Time,EMG
0.0,70.0165573770492
0.000983767830791933,52.016557377049196
0.001967535661583866,50.016557377049196
0.002951303492375799,35.016557377049196
0.003935071323167732,5.016557377049196
0.004918839153959666,-26.983442622950804
0.005902606984751598,-36.983442622950804
0.006886374815543531,-54.983442622950804
0.007870142646335464,-74.9834426229508
0.008853910477127398,-75.9834426229508
0.009837678307919331,-70.9834426229508
0.010821446138711263,-59.983442622950804
0.011805213969503197,-54.983442622950804
0.01278898180029513,-36.983442622950804
0.013772749631087062,-7.983442622950804
0.014756517461878995,27.016557377049196
0.01574028529267093,41.016557377049196
0.01672405312346286,60.016557377049196
0.017707820954254796,83.0165573770492
0.018691588785046728,85.0165573770492
0.019675356615838663,76.0165573770492
0.020659124446630595,58.016557377049196
0.021642892277422526,54.016557377049196
0.02262666010821446,38.016557377049196
0.023610427939006393,3.016557377049196
0.024594195769798325,-32.983442622950804
0.02557796360059026,-45.983442622950804
0.026561731431382192,-59.983442622950804
0.027545499262174124,-77.9834426229508
0.02852926709296606,-79.9834426229508
0.02951303492375799,-74.9834426229508
0.030496802754549926,-58.983442622950804
0.03148057058534186,-53.983442622950804
0.03246433841613379,-35.983442622950804
0.03344810624692572,-7.983442622950804
0.03443187407771766,29.016557377049196
0.03541564190850959,46.016557377049196
0.03639940973930152,61.016557377049196
0.037383177570093455,80.0165573770492
0.03836694540088539,79.0165573770492
0.039350713231677326,72.0165573770492
0.04033448106246926,62.016557377049196
0.04131824889326119,58.016557377049196
0.04230201672405312,37.016557377049196
0.04328578455484505,3.016557377049196
0.044269552385636984,-31.983442622950804
0.04525332021642892,-42.983442622950804
0.046237088047220855,-61.983442622950804
0.04722085587801279,-81.9834426229508
0.04820462370880472,-83.9834426229508
0.04918839153959665,-75.9834426229508
0.05017215937038859,-62.983442622950804
0.05115592720118052,-54.983442622950804
0.05213969503197245,-36.983442622950804
0.053123462862764384,-3.983442622950804
0.054107230693556316,30.016557377049196
0.05509099852434825,46.016557377049196
0.056074766355140186,64.0165573770492
0.05705853418593212,84.0165573770492
0.05804230201672405,81.0165573770492
0.05902606984751598,73.0165573770492
0.06000983767830791,58.016557377049196
0.06099360550909985,56.016557377049196
0.061977373339891784,40.016557377049196
0.06296114117068372,4.016557377049196
0.06394490900147565,-27.983442622950804
0.06492867683226758,-40.983442622950804
0.06591244466305951,-58.983442622950804
0.06689621249385144,-83.9834426229508
0.06787998032464337,-83.9834426229508
0.06886374815543532,-75.9834426229508
0.06984751598622725,-60.983442622950804
0.07083128381701918,-54.983442622950804
0.07181505164781112,-34.983442622950804
0.07279881947860305,-2.983442622950804
0.07378258730939498,29.016557377049196
0.07476635514018691,41.016557377049196
0.07575012297097884,61.016557377049196
0.07673389080177077,83.0165573770492
0.0777176586325627,81.0165573770492
0.07870142646335465,80.0165573770492
0.07968519429414658,61.016557377049196
0.08066896212493851,56.016557377049196
0.08165272995573045,37.016557377049196
0.08263649778652238,2.016557377049196
0.08362026561731431,-30.983442622950804
0.08460403344810624,-42.983442622950804
0.08558780127889817,-58.983442622950804
0.0865715691096901,-76.9834426229508
0.08755533694048204,-82.9834426229508
0.08853910477127397,-69.9834426229508
0.08952287260206591,-55.983442622950804
0.09050664043285785,-53.983442622950804
0.09149040826364978,-34.983442622950804
0.09247417609444171,-0.983442622950804
0.09345794392523364,30.016557377049196
0.09444171175602557,41.016557377049196
0.0954254795868175,54.016557377049196
0.09640924741760944,76.0165573770492
0.09739301524840137,76.0165573770492
0.0983767830791933,70.0165573770492
0.09936055090998523,56.016557377049196
0.10034431874077718,53.016557377049196
0.10132808657156911,38.016557377049196
0.10231185440236104,1.016557377049196
0.10329562223315297,-32.983442622950804
0.1042793900639449,-43.983442622950804
0.10526315789473684,-59.983442622950804
0.10624692572552877,-81.9834426229508
0.1072306935563207,-81.9834426229508
0.10821446138711263,-74.9834426229508
0.10919822921790456,-59.983442622950804
0.1101819970486965,-55.983442622950804
0.11116576487948844,-35.983442622950804
0.11214953271028037,1.016557377049196
0.1131333005410723,34.016557377049196
0.11411706837186424,46.016557377049196
0.11510083620265617,62.016557377049196
0.1160846040334481,82.0165573770492
0.11706837186424003,82.0165573770492
0.11805213969503196,74.0165573770492
0.1190359075258239,61.016557377049196
0.12001967535661583,53.016557377049196
0.12100344318740777,35.016557377049196
0.1219872110181997,2.016557377049196
0.12297097884899164,-28.983442622950804
0.12395474667978357,-45.983442622950804
0.1249385145105755,-62.983442622950804
0.12592228234136743,-83.9834426229508
0.12690605017215936,-81.9834426229508
0.1278898180029513,-73.9834426229508
0.12887358583374323,-58.983442622950804
0.12985735366453516,-52.983442622950804
0.1308411214953271,-34.983442622950804
0.13182488932611902,-0.983442622950804
0.13280865715691095,29.016557377049196
0.13379242498770288,45.016557377049196
0.13477619281849482,62.016557377049196
0.13575996064928675,83.0165573770492
0.1367437284800787,80.0165573770492
0.13772749631087064,72.0165573770492
0.13871126414166257,57.016557377049196
0.1396950319724545,52.016557377049196
0.14067879980324643,31.016557377049196
0.14166256763403837,0.01655737704919602
0.1426463354648303,-27.983442622950804
0.14363010329562223,-41.983442622950804
0.14461387112641416,-62.983442622950804
0.1455976389572061,-79.9834426229508
0.14658140678799803,-82.9834426229508
0.14756517461878996,-73.9834426229508
0.1485489424495819,-55.983442622950804
0.14953271028037382,-52.983442622950804
0.15051647811116575,-31.983442622950804
0.15150024594195768,0.01655737704919602
0.15248401377274962,27.016557377049196
0.15346778160354155,45.016557377049196
0.15445154943433348,60.016557377049196
0.1554353172651254,81.0165573770492
0.15641908509591734,83.0165573770492
0.1574028529267093,74.0165573770492
0.15838662075750123,61.016557377049196
0.15937038858829317,56.016557377049196
0.1603541564190851,37.016557377049196
0.16133792424987703,1.016557377049196
0.16232169208066896,-31.983442622950804
0.1633054599114609,-44.983442622950804
0.16428922774225282,-63.983442622950804
0.16527299557304476,-83.9834426229508
0.1662567634038367,-82.9834426229508
0.16724053123462862,-75.9834426229508
0.16822429906542055,-55.983442622950804
0.16920806689621248,-55.983442622950804
0.17019183472700442,-37.983442622950804
0.17117560255779635,-1.983442622950804
0.17215937038858828,33.016557377049196
0.1731431382193802,44.016557377049196
0.17412690605017214,66.0165573770492
0.17511067388096407,85.0165573770492
0.176094441711756,83.0165573770492
0.17707820954254794,72.0165573770492
0.17806197737333987,57.016557377049196
0.17904574520413183,53.016557377049196
0.18002951303492376,36.016557377049196
0.1810132808657157,3.016557377049196
0.18199704869650762,-27.983442622950804
0.18298081652729956,-39.983442622950804
0.1839645843580915,-60.983442622950804
0.18494835218888342,-86.9834426229508
0.18593212001967535,-83.9834426229508
0.18691588785046728,-72.9834426229508
0.18789965568125921,-58.983442622950804
0.18888342351205115,-51.983442622950804
0.18986719134284308,-33.983442622950804
0.190850959173635,-2.983442622950804
0.19183472700442694,31.016557377049196
0.19281849483521887,43.016557377049196
0.1938022626660108,62.016557377049196
0.19478603049680274,88.0165573770492
0.19576979832759467,85.0165573770492
0.1967535661583866,72.0165573770492
0.19773733398917853,52.016557377049196
0.19872110181997046,49.016557377049196
0.19970486965076242,31.016557377049196
0.20068863748155436,-0.983442622950804
0.2016724053123463,-30.983442622950804
0.20265617314313822,-40.983442622950804
0.20363994097393015,-62.983442622950804
0.20462370880472208,-82.9834426229508
0.205607476635514,-84.9834426229508
0.20659124446630595,-74.9834426229508
0.20757501229709788,-56.983442622950804
0.2085587801278898,-52.983442622950804
0.20954254795868174,-39.983442622950804
0.21052631578947367,-5.983442622950804
0.2115100836202656,31.016557377049196
0.21249385145105754,43.016557377049196
0.21347761928184947,65.0165573770492
0.2144613871126414,86.0165573770492
0.21544515494343333,88.0165573770492
0.21642892277422526,76.0165573770492
0.2174126906050172,59.016557377049196
0.21839645843580913,55.016557377049196
0.21938022626660106,37.016557377049196
0.220363994097393,3.016557377049196
0.22134776192818495,-32.983442622950804
0.22233152975897688,-44.983442622950804
0.2233152975897688,-60.983442622950804
0.22429906542056074,-79.9834426229508
0.22528283325135268,-79.9834426229508
0.2262666010821446,-73.9834426229508
0.22725036891293654,-60.983442622950804
0.22823413674372847,-58.983442622950804
0.2292179045745204,-36.983442622950804
0.23020167240531234,-2.983442622950804
0.23118544023610427,29.016557377049196
0.2321692080668962,45.016557377049196
0.23315297589768813,66.0165573770492
0.23413674372848006,82.0165573770492
0.235120511559272,80.0165573770492
0.23610427939006393,72.0165573770492
0.23708804722085586,56.016557377049196
0.2380718150516478,53.016557377049196
0.23905558288243972,36.016557377049196
0.24003935071323165,2.016557377049196
0.24102311854402358,-29.983442622950804
0.24200688637481554,-40.983442622950804
0.24299065420560748,-58.983442622950804
0.2439744220363994,-81.9834426229508
0.24495818986719134,-82.9834426229508
0.24594195769798327,-70.9834426229508
0.2469257255287752,-56.983442622950804
0.24790949335956713,-51.983442622950804
0.24889326119035907,-30.983442622950804
0.249877029021151,1.016557377049196
0.2508607968519429,28.016557377049196
0.25184456468273486,39.016557377049196
0.2528283325135268,64.0165573770492
0.2538121003443187,84.0165573770492
0.2547958681751107,82.0165573770492
0.2557796360059026,74.0165573770492
0.25676340383669455,56.016557377049196
0.25774717166748645,51.016557377049196
0.2587309394982784,33.016557377049196
0.2597147073290703,-1.983442622950804
0.2606984751598623,-32.983442622950804
0.2616822429906542,-41.983442622950804
0.26266601082144614,-63.983442622950804
0.26364977865223804,-79.9834426229508
0.26463354648303,-81.9834426229508
0.2656173143138219,-72.9834426229508
0.26660108214461387,-55.983442622950804
0.26758484997540577,-52.983442622950804
0.26856861780619773,-35.983442622950804
0.26955238563698963,-0.983442622950804
0.2705361534677816,28.016557377049196
0.2715199212985735,38.016557377049196
0.27250368912936546,61.016557377049196
0.2734874569601574,84.0165573770492
0.2744712247909493,83.0165573770492
0.2754549926217413,78.0165573770492
0.2764387604525332,61.016557377049196
0.27742252828332514,54.016557377049196
0.27840629611411705,33.016557377049196
0.279390063944909,0.01655737704919602
0.2803738317757009,-34.983442622950804
0.28135759960649287,-45.983442622950804
0.2823413674372848,-68.9834426229508
0.28332513526807673,-85.9834426229508
0.28430890309886864,-79.9834426229508
0.2852926709296606,-68.9834426229508
0.2862764387604525,-48.983442622950804
0.28726020659124446,-50.983442622950804
0.28824397442203636,-33.983442622950804
0.2892277422528283,-1.983442622950804
0.2902115100836202,29.016557377049196
0.2911952779144122,40.016557377049196
0.2921790457452041,59.016557377049196
0.29316281357599605,81.0165573770492
0.294146581406788,80.0165573770492
0.2951303492375799,74.0165573770492
0.2961141170683719,58.016557377049196
0.2970978848991638,54.016557377049196
0.29808165272995574,32.016557377049196
0.29906542056074764,-2.983442622950804
0.3000491883915396,-33.983442622950804
0.3010329562223315,-44.983442622950804
0.30201672405312346,-63.983442622950804
0.30300049188391537,-81.9834426229508
0.30398425971470733,-82.9834426229508
0.30496802754549923,-74.9834426229508
0.3059517953762912,-59.983442622950804
0.3069355632070831,-53.983442622950804
0.30791933103787505,-33.983442622950804
0.30890309886866696,2.016557377049196
0.3098868666994589,31.016557377049196
0.3108706345302508,45.016557377049196
0.3118544023610428,66.0165573770492
0.3128381701918347,85.0165573770492
0.31382193802262665,87.0165573770492
0.3148057058534186,78.0165573770492
0.3157894736842105,59.016557377049196
0.31677324151500247,57.016557377049196
0.3177570093457944,34.016557377049196
0.31874077717658633,-2.983442622950804
0.31972454500737824,-31.983442622950804
0.3207083128381702,-44.983442622950804
0.3216920806689621,-62.983442622950804
0.32267584849975406,-81.9834426229508
0.32365961633054596,-81.9834426229508
0.3246433841613379,-73.9834426229508
0.3256271519921298,-60.983442622950804
0.3266109198229218,-54.983442622950804
0.3275946876537137,-35.983442622950804
0.32857845548450565,0.01655737704919602
0.32956222331529755,32.016557377049196
0.3305459911460895,46.016557377049196
0.3315297589768814,68.0165573770492
0.3325135268076734,85.0165573770492
0.3334972946384653,84.0165573770492
0.33448106246925724,73.0165573770492
0.33546483030004914,57.016557377049196
0.3364485981308411,51.016557377049196
0.33743236596163306,30.016557377049196
0.33841613379242497,-0.983442622950804
0.3393999016232169,-28.983442622950804
0.34038366945400883,-44.983442622950804
0.3413674372848008,-65.9834426229508
0.3423512051155927,-84.9834426229508
0.34333497294638465,-81.9834426229508
0.34431874077717656,-70.9834426229508
0.3453025086079685,-56.983442622950804
0.3462862764387604,-51.983442622950804
0.3472700442695524,-32.983442622950804
0.3482538121003443,0.01655737704919602
0.34923757993113624,32.016557377049196
0.35022134776192815,46.016557377049196
0.3512051155927201,64.0165573770492
0.352188883423512,83.0165573770492
0.35317265125430397,83.0165573770492
0.3541564190850959,75.0165573770492
0.35514018691588783,56.016557377049196
0.35612395474667974,51.016557377049196
0.3571077225774717,33.016557377049196
0.35809149040826366,-0.983442622950804
0.35907525823905556,-33.983442622950804
0.3600590260698475,-42.983442622950804
0.3610427939006394,-66.9834426229508
0.3620265617314314,-82.9834426229508
0.3630103295622233,-81.9834426229508
0.36399409739301525,-74.9834426229508
0.36497786522380715,-57.983442622950804
0.3659616330545991,-54.983442622950804
0.366945400885391,-36.983442622950804
0.367929168716183,4.016557377049196
0.3689129365469749,35.016557377049196
0.36989670437776684,44.016557377049196
0.37088047220855874,68.0165573770492
0.3718642400393507,86.0165573770492
0.3728480078701426,81.0165573770492
0.37383177570093457,72.0165573770492
0.37481554353172647,55.016557377049196
0.37579931136251843,53.016557377049196
0.37678307919331033,34.016557377049196
0.3777668470241023,-0.983442622950804
0.37875061485489425,-33.983442622950804
0.37973438268568616,-42.983442622950804
0.3807181505164781,-64.9834426229508
0.38170191834727,-84.9834426229508
0.382685686178062,-80.9834426229508
0.3836694540088539,-71.9834426229508
0.38465322183964584,-56.983442622950804
0.38563698967043775,-55.983442622950804
0.3866207575012297,-36.983442622950804
0.3876045253320216,-2.983442622950804
0.38858829316281357,28.016557377049196
0.3895720609936055,42.016557377049196
0.39055582882439743,68.0165573770492
0.39153959665518934,91.0165573770492
0.3925233644859813,89.0165573770492
0.3935071323167732,80.0165573770492
0.39449090014756516,61.016557377049196
0.39547466797835706,54.016557377049196
0.396458435809149,31.016557377049196
0.3974422036399409,-7.983442622950804
0.3984259714707329,-37.983442622950804
0.39940973930152485,-46.983442622950804
0.40039350713231675,-66.9834426229508
0.4013772749631087,-83.9834426229508
0.4023610427939006,-80.9834426229508
0.4033448106246926,-70.9834426229508
0.4043285784554845,-57.983442622950804
0.40531234628627644,-51.983442622950804
0.40629611411706834,-34.983442622950804
0.4072798819478603,1.016557377049196
0.4082636497786522,36.016557377049196
0.40924741760944416,48.016557377049196
0.41023118544023607,68.0165573770492
0.411214953271028,88.0165573770492
0.41219872110181993,82.0165573770492
0.4131824889326119,72.0165573770492
0.4141662567634038,58.016557377049196
0.41515002459419575,54.016557377049196
0.41613379242498766,34.016557377049196
0.4171175602557796,-2.983442622950804
0.4181013280865715,-33.983442622950804
0.4190850959173635,-43.983442622950804
0.42006886374815544,-62.983442622950804
0.42105263157894735,-83.9834426229508
0.4220363994097393,-84.9834426229508
0.4230201672405312,-73.9834426229508
0.42400393507132317,-55.983442622950804
0.42498770290211507,-53.983442622950804
0.42597147073290703,-33.983442622950804
0.42695523856369894,2.016557377049196
0.4279390063944909,35.016557377049196
0.4289227742252828,39.016557377049196
0.42990654205607476,61.016557377049196
0.43089030988686666,82.0165573770492
0.4318740777176586,78.0165573770492
0.4328578455484505,71.0165573770492
0.4338416133792425,56.016557377049196
0.4348253812100344,52.016557377049196
0.43580914904082635,36.016557377049196
0.43679291687161825,-0.983442622950804
0.4377766847024102,-31.983442622950804
0.4387604525332021,-42.983442622950804
0.4397442203639941,-64.9834426229508
0.440727988194786,-83.9834426229508
0.44171175602557794,-82.9834426229508
0.4426955238563699,-72.9834426229508
0.4436792916871618,-55.983442622950804
0.44466305951795376,-51.983442622950804
0.44564682734874567,-32.983442622950804
0.4466305951795376,3.016557377049196
0.44761436301032953,32.016557377049196
0.4485981308411215,43.016557377049196
0.4495818986719134,64.0165573770492
0.45056566650270535,81.0165573770492
0.45154943433349726,78.0165573770492
0.4525332021642892,72.0165573770492
0.4535169699950811,60.016557377049196
0.4545007378258731,53.016557377049196
0.455484505656665,34.016557377049196
0.45646827348745694,-1.983442622950804
0.45745204131824885,-35.983442622950804
0.4584358091490408,-42.983442622950804
0.4594195769798327,-63.983442622950804
0.46040334481062467,-83.9834426229508
0.4613871126414166,-77.9834426229508
0.46237088047220853,-70.9834426229508
0.4633546483030005,-53.983442622950804
0.4643384161337924,-49.983442622950804
0.46532218396458436,-27.983442622950804
0.46630595179537626,8.016557377049196
0.4672897196261682,33.016557377049196
0.4682734874569601,40.016557377049196
0.4692572552877521,62.016557377049196
0.470241023118544,82.0165573770492
0.47122479094933595,81.0165573770492
0.47220855878012785,73.0165573770492
0.4731923266109198,56.016557377049196
0.4741760944417117,52.016557377049196
0.4751598622725037,29.016557377049196
0.4761436301032956,-2.983442622950804
0.47712739793408754,-33.983442622950804
0.47811116576487944,-44.983442622950804
0.4790949335956714,-65.9834426229508
0.4800787014264633,-80.9834426229508
0.48106246925725527,-78.9834426229508
0.48204623708804717,-67.9834426229508
0.48303000491883913,-55.983442622950804
0.4840137727496311,-53.983442622950804
0.484997540580423,-33.983442622950804
0.48598130841121495,2.016557377049196
0.48696507624200686,34.016557377049196
0.4879488440727988,43.016557377049196
0.4889326119035907,63.016557377049196
0.4899163797343827,80.0165573770492
0.4909001475651746,81.0165573770492
0.49188391539596654,73.0165573770492
0.49286768322675845,58.016557377049196
0.4938514510575504,53.016557377049196
0.4948352188883423,34.016557377049196
0.49581898671913427,-3.983442622950804
0.4968027545499262,-33.983442622950804
0.49778652238071813,-44.983442622950804
0.49877029021151004,-67.9834426229508
0.499754058042302,-81.9834426229508
0.5007378258730939,-83.9834426229508
0.5017215937038858,-73.9834426229508
0.5027053615346778,-55.983442622950804
0.5036891293654697,-53.983442622950804
0.5046728971962616,-31.983442622950804
0.5056566650270536,2.016557377049196
0.5066404328578455,36.016557377049196
0.5076242006886375,41.016557377049196
0.5086079685194294,65.0165573770492
0.5095917363502214,88.0165573770492
0.5105755041810133,81.0165573770492
0.5115592720118052,70.0165573770492
0.5125430398425971,59.016557377049196
0.5135268076733891,56.016557377049196
0.514510575504181,39.016557377049196
0.5154943433349729,1.016557377049196
0.5164781111657648,-32.983442622950804
0.5174618789965568,-43.983442622950804
0.5184456468273487,-66.9834426229508
0.5194294146581406,-83.9834426229508
0.5204131824889325,-82.9834426229508
0.5213969503197246,-74.9834426229508
0.5223807181505165,-58.983442622950804
0.5233644859813084,-55.983442622950804
0.5243482538121003,-33.983442622950804
0.5253320216428923,6.016557377049196
0.5263157894736842,30.016557377049196
0.5272995573044761,44.016557377049196
0.5282833251352681,70.0165573770492
0.52926709296606,89.0165573770492
0.5302508607968519,84.0165573770492
0.5312346286276438,73.0165573770492
0.5322183964584358,56.016557377049196
0.5332021642892277,50.016557377049196
0.5341859321200196,30.016557377049196
0.5351696999508115,-6.983442622950804
0.5361534677816036,-31.983442622950804
0.5371372356123955,-43.983442622950804
0.5381210034431874,-63.983442622950804
0.5391047712739793,-82.9834426229508
0.5400885391047713,-81.9834426229508
0.5410723069355632,-72.9834426229508
0.5420560747663551,-60.983442622950804
0.543039842597147,-56.983442622950804
0.544023610427939,-35.983442622950804
0.5450073782587309,2.016557377049196
0.5459911460895228,35.016557377049196
0.5469749139203148,44.016557377049196
0.5479586817511067,66.0165573770492
0.5489424495818986,83.0165573770492
0.5499262174126905,82.0165573770492
0.5509099852434826,71.0165573770492
0.5518937530742745,57.016557377049196
0.5528775209050664,53.016557377049196
0.5538612887358583,33.016557377049196
0.5548450565666503,-6.983442622950804
0.5558288243974422,-34.983442622950804
0.5568125922282341,-43.983442622950804
0.557796360059026,-66.9834426229508
0.558780127889818,-84.9834426229508
0.5597638957206099,-82.9834426229508
0.5607476635514018,-70.9834426229508
0.5617314313821937,-55.983442622950804
0.5627151992129857,-52.983442622950804
0.5636989670437776,-30.983442622950804
0.5646827348745695,8.016557377049196
0.5656665027053615,35.016557377049196
0.5666502705361535,43.016557377049196
0.5676340383669454,67.0165573770492
0.5686178061977373,82.0165573770492
0.5696015740285293,80.0165573770492
0.5705853418593212,69.0165573770492
0.5715691096901131,58.016557377049196
0.572552877520905,54.016557377049196
0.573536645351697,33.016557377049196
0.5745204131824889,-1.983442622950804
0.5755041810132808,-34.983442622950804
0.5764879488440727,-45.983442622950804
0.5774717166748647,-66.9834426229508
0.5784554845056566,-81.9834426229508
0.5794392523364486,-84.9834426229508
0.5804230201672405,-74.9834426229508
0.5814067879980325,-57.983442622950804
0.5823905558288244,-50.983442622950804
0.5833743236596163,-27.983442622950804
0.5843580914904082,13.016557377049196
0.5853418593212002,41.016557377049196
0.5863256271519921,48.016557377049196
0.587309394982784,69.0165573770492
0.588293162813576,81.0165573770492
0.5892769306443679,81.0165573770492
0.5902606984751598,71.0165573770492
0.5912444663059517,54.016557377049196
0.5922282341367437,49.016557377049196
0.5932120019675357,30.016557377049196
0.5941957697983276,-6.983442622950804
0.5951795376291195,-35.983442622950804
0.5961633054599115,-42.983442622950804
0.5971470732907034,-62.983442622950804
0.5981308411214953,-78.9834426229508
0.5991146089522872,-78.9834426229508
0.6000983767830792,-66.9834426229508
0.6010821446138711,-56.983442622950804
0.602065912444663,-54.983442622950804
0.6030496802754549,-30.983442622950804
0.6040334481062469,6.016557377049196
0.6050172159370388,34.016557377049196
0.6060009837678307,42.016557377049196
0.6069847515986226,64.0165573770492
0.6079685194294147,80.0165573770492
0.6089522872602066,76.0165573770492
0.6099360550909985,69.0165573770492
0.6109198229217905,59.016557377049196
0.6119035907525824,53.016557377049196
0.6128873585833743,36.016557377049196
0.6138711264141662,0.01655737704919602
0.6148548942449582,-32.983442622950804
0.6158386620757501,-43.983442622950804
0.616822429906542,-65.9834426229508
0.6178061977373339,-78.9834426229508
0.6187899655681259,-76.9834426229508
0.6197737333989178,-70.9834426229508
0.6207575012297097,-57.983442622950804
0.6217412690605016,-55.983442622950804
0.6227250368912937,-33.983442622950804
0.6237088047220856,5.016557377049196
0.6246925725528775,36.016557377049196
0.6256763403836694,38.016557377049196
0.6266601082144614,56.016557377049196
0.6276438760452533,74.0165573770492
0.6286276438760452,76.0165573770492
0.6296114117068372,77.0165573770492
0.6305951795376291,75.0165573770492
0.631578947368421,60.016557377049196
0.6325627151992129,27.016557377049196
0.6335464830300049,-9.983442622950804
0.6345302508607968,-30.983442622950804
0.6355140186915887,-39.983442622950804
0.6364977865223806,-75.9834426229508
0.6374815543531727,-89.9834426229508
0.6384653221839646,-81.9834426229508
0.6394490900147565,-67.9834426229508
0.6404328578455484,-43.983442622950804
0.6414166256763404,-41.983442622950804
0.6424003935071323,-27.983442622950804
0.6433841613379242,-1.983442622950804
0.6443679291687161,17.016557377049196
0.6453516969995081,26.016557377049196
0.6463354648303,69.0165573770492
0.6473192326610919,87.0165573770492
0.6483030004918838,87.0165573770492
0.6492867683226758,70.0165573770492
0.6502705361534677,64.0165573770492
0.6512543039842597,69.0165573770492
0.6522380718150517,42.016557377049196
0.6532218396458436,-17.983442622950804
0.6542056074766355,-58.983442622950804
0.6551893753074274,-58.983442622950804
0.6561731431382194,-72.9834426229508
0.6571569109690113,-77.9834426229508
0.6581406787998032,-82.9834426229508
0.6591244466305951,-69.9834426229508
0.6601082144613871,-46.983442622950804
0.661091982292179,-42.983442622950804
0.6620757501229709,-23.983442622950804
0.6630595179537628,14.016557377049196
0.6640432857845548,36.016557377049196
0.6650270536153468,46.016557377049196
0.6660108214461387,68.0165573770492
0.6669945892769306,81.0165573770492
0.6679783571077226,81.0165573770492
0.6689621249385145,73.0165573770492
0.6699458927693064,57.016557377049196
0.6709296606000983,42.016557377049196
0.6719134284308903,38.016557377049196
0.6728971962616822,0.01655737704919602
0.6738809640924741,-46.983442622950804
0.6748647319232661,-50.983442622950804
0.675848499754058,-87.9834426229508
0.6768322675848499,-89.9834426229508
0.6778160354156418,-75.9834426229508
0.6787998032464339,-51.983442622950804
0.6797835710772258,-54.983442622950804
0.6807673389080177,-46.983442622950804
0.6817511067388096,-23.983442622950804
0.6827348745696016,5.016557377049196
0.6837186424003935,36.016557377049196
0.6847024102311854,65.0165573770492
0.6856861780619773,85.0165573770492
0.6866699458927693,84.0165573770492
0.6876537137235612,80.0165573770492
0.6886374815543531,70.0165573770492
0.689621249385145,71.0165573770492
0.690605017215937,49.016557377049196
0.6915887850467289,5.016557377049196
0.6925725528775208,-34.983442622950804
0.6935563207083129,-41.983442622950804
0.6945400885391048,-44.983442622950804
0.6955238563698967,-66.9834426229508
0.6965076242006886,-60.983442622950804
0.6974913920314806,-59.983442622950804
0.6984751598622725,-68.9834426229508
0.6994589276930644,-64.9834426229508
0.7004426955238563,-50.983442622950804
0.7014264633546483,-43.983442622950804
0.7024102311854402,3.016557377049196
0.7033939990162321,41.016557377049196
0.704377766847024,62.016557377049196
0.705361534677816,90.0165573770492
0.7063453025086079,74.0165573770492
0.7073290703393998,55.016557377049196
0.7083128381701917,49.016557377049196
0.7092966060009838,53.016557377049196
0.7102803738317757,64.0165573770492
0.7112641416625676,45.016557377049196
0.7122479094933595,-8.983442622950804
0.7132316773241515,-65.9834426229508
0.7142154451549434,-72.9834426229508
0.7151992129857353,-83.9834426229508
0.7161829808165273,-92.9834426229508
0.7171667486473192,-79.9834426229508
0.7181505164781111,-43.983442622950804
0.719134284308903,-19.983442622950804
0.720118052139695,-23.983442622950804
0.721101819970487,-12.983442622950804
0.7220855878012788,-9.983442622950804
0.7230693556320708,-3.983442622950804
0.7240531234628628,22.016557377049196
0.7250368912936547,63.016557377049196
0.7260206591244466,92.0165573770492
0.7270044269552385,78.0165573770492
0.7279881947860305,73.0165573770492
0.7289719626168224,90.0165573770492
0.7299557304476143,62.016557377049196
0.7309394982784062,17.016557377049196
0.7319232661091982,-9.983442622950804
0.7329070339399901,-37.983442622950804
0.733890801770782,-71.9834426229508
0.734874569601574,-76.9834426229508
0.735858337432366,-57.983442622950804
0.7368421052631579,-35.983442622950804
0.7378258730939498,-46.983442622950804
0.7388096409247418,-73.9834426229508
0.7397934087555337,-49.983442622950804
0.7407771765863256,-6.983442622950804
0.7417609444171175,-7.983442622950804
0.7427447122479095,11.016557377049196
0.7437284800787014,11.016557377049196
0.7447122479094933,48.016557377049196
0.7456960157402852,54.016557377049196
0.7466797835710772,70.0165573770492
0.7476635514018691,65.0165573770492
0.748647319232661,45.016557377049196
0.7496310870634529,58.016557377049196
0.750614854894245,105.0165573770492
0.7515986227250369,96.0165573770492
0.7525823905558288,-22.983442622950804
0.7535661583866207,-103.9834426229508
0.7545499262174127,-110.9834426229508
0.7555336940482046,-50.983442622950804
0.7565174618789965,-55.983442622950804
0.7575012297097885,-73.9834426229508
0.7584849975405804,-78.9834426229508
0.7594687653713723,-78.9834426229508
0.7604525332021642,-63.983442622950804
0.7614363010329562,-7.983442622950804
0.7624200688637481,53.016557377049196
0.76340383669454,82.0165573770492
0.7643876045253319,43.016557377049196
0.765371372356124,47.016557377049196
0.7663551401869159,73.0165573770492
0.7673389080177078,87.0165573770492
0.7683226758484997,73.0165573770492
0.7693064436792917,87.0165573770492
0.7702902115100836,35.016557377049196
0.7712739793408755,39.016557377049196
0.7722577471716674,45.016557377049196
0.7732415150024594,-102.9834426229508
0.7742252828332513,-149.9834426229508
0.7752090506640432,-153.9834426229508
0.7761928184948351,-136.9834426229508
0.7771765863256271,-86.9834426229508
0.778160354156419,-52.983442622950804
0.779144121987211,20.016557377049196
0.780127889818003,15.016557377049196
0.7811116576487949,20.016557377049196
0.7820954254795868,50.016557377049196
0.7830791933103787,-30.983442622950804
0.7840629611411707,20.016557377049196
0.7850467289719626,110.0165573770492
0.7860304968027545,142.0165573770492
0.7870142646335464,169.0165573770492
0.7879980324643384,109.0165573770492
0.7889818002951303,59.016557377049196
0.7899655681259222,-33.983442622950804
0.7909493359567141,-85.9834426229508
0.7919331037875061,-95.9834426229508
0.792916871618298,-65.9834426229508
0.79390063944909,6.016557377049196
0.7948844072798819,-12.983442622950804
0.7958681751106739,-110.9834426229508
0.7968519429414658,-162.9834426229508
0.7978357107722577,-165.9834426229508
0.7988194786030497,-130.9834426229508
0.7998032464338416,-78.9834426229508
0.8007870142646335,10.016557377049196
0.8017707820954254,159.0165573770492
0.8027545499262174,145.0165573770492
0.8037383177570093,120.0165573770492
0.8047220855878012,214.0165573770492
0.8057058534185931,177.0165573770492
0.8066896212493851,37.016557377049196
0.807673389080177,-2.983442622950804
0.808657156910969,49.016557377049196
0.8096409247417609,63.016557377049196
0.8106246925725529,-33.983442622950804
0.8116084604033448,-108.9834426229508
0.8125922282341367,-62.983442622950804
0.8135759960649286,-76.9834426229508
0.8145597638957206,-165.9834426229508
0.8155435317265125,-174.9834426229508
0.8165272995573044,-97.9834426229508
0.8175110673880963,-70.9834426229508
0.8184948352188883,-20.983442622950804
0.8194786030496802,55.016557377049196
0.8204623708804721,25.016557377049196
0.8214461387112642,-89.9834426229508
0.822429906542056,53.016557377049196
0.823413674372848,232.0165573770492
0.8243974422036399,321.0165573770492
0.8253812100344319,171.0165573770492
0.8263649778652238,-24.983442622950804
0.8273487456960157,-67.9834426229508
0.8283325135268076,-73.9834426229508
0.8293162813575996,-0.983442622950804
0.8303000491883915,-42.983442622950804
0.8312838170191834,29.016557377049196
0.8322675848499753,-80.9834426229508
0.8332513526807673,-145.9834426229508
0.8342351205115592,-70.9834426229508
0.8352188883423511,7.016557377049196
0.836202656173143,-19.983442622950804
0.8371864240039351,-57.983442622950804
0.838170191834727,-85.9834426229508
0.8391539596655189,-32.983442622950804
0.8401377274963109,25.016557377049196
0.8411214953271028,-50.983442622950804
0.8421052631578947,-70.9834426229508
0.8430890309886866,-19.983442622950804
0.8440727988194786,17.016557377049196
0.8450565666502705,0.01655737704919602
0.8460403344810624,83.0165573770492
0.8470241023118543,129.0165573770492
0.8480078701426463,142.0165573770492
0.8489916379734382,243.0165573770492
0.8499754058042301,339.0165573770492
0.850959173635022,104.0165573770492
0.8519429414658141,-79.9834426229508
0.852926709296606,-229.9834426229508
0.8539104771273979,-267.9834426229508
0.8548942449581898,-249.9834426229508
0.8558780127889818,-215.9834426229508
0.8568617806197737,-124.9834426229508
0.8578455484505656,34.016557377049196
0.8588293162813575,161.0165573770492
0.8598130841121495,68.0165573770492
0.8607968519429414,-78.9834426229508
0.8617806197737333,-57.983442622950804
0.8627643876045253,134.0165573770492
0.8637481554353172,129.0165573770492
0.8647319232661091,145.0165573770492
0.865715691096901,158.0165573770492
0.8666994589276931,93.0165573770492
0.867683226758485,23.016557377049196
0.8686669945892769,-56.983442622950804
0.8696507624200688,-175.9834426229508
0.8706345302508608,-274.9834426229508
0.8716182980816527,-110.9834426229508
0.8726020659124446,-60.983442622950804
0.8735858337432365,156.0165573770492
0.8745696015740285,347.0165573770492
0.8755533694048204,150.0165573770492
0.8765371372356123,-58.983442622950804
0.8775209050664042,-170.9834426229508
0.8785046728971962,-161.9834426229508
0.8794884407279882,-105.9834426229508
0.8804722085587801,-14.983442622950804
0.881455976389572,30.016557377049196
0.882439744220364,37.016557377049196
0.8834235120511559,-39.983442622950804
0.8844072798819478,-28.983442622950804
0.8853910477127398,15.016557377049196
0.8863748155435317,80.0165573770492
0.8873585833743236,159.0165573770492
0.8883423512051155,167.0165573770492
0.8893261190359075,50.016557377049196
0.8903098868666994,37.016557377049196
0.8912936546974913,80.0165573770492
0.8922774225282832,32.016557377049196
0.8932611903590753,-20.983442622950804
0.8942449581898672,-47.983442622950804
0.8952287260206591,-140.9834426229508
0.896212493851451,-154.9834426229508
0.897196261682243,-184.9834426229508
0.8981800295130349,-243.9834426229508
0.8991637973438268,-104.9834426229508
0.9001475651746187,32.016557377049196
0.9011313330054107,43.016557377049196
0.9021151008362026,-115.9834426229508
0.9030988686669945,36.016557377049196
0.9040826364977865,218.0165573770492
0.9050664043285784,318.0165573770492
0.9060501721593703,218.0165573770492
0.9070339399901622,123.0165573770492
0.9080177078209543,16.016557377049196
0.9090014756517462,-127.9834426229508
0.9099852434825381,-158.9834426229508
0.91096901131333,-123.9834426229508
0.911952779144122,-90.9834426229508
0.9129365469749139,-16.983442622950804
0.9139203148057058,63.016557377049196
0.9149040826364977,-211.9834426229508
0.9158878504672897,-315.9834426229508
0.9168716182980816,-176.9834426229508
0.9178553861288735,-16.983442622950804
0.9188391539596654,-39.983442622950804
0.9198229217904574,8.016557377049196
0.9208066896212493,161.0165573770492
0.9217904574520412,285.0165573770492
0.9227742252828331,365.0165573770492
0.9237579931136252,345.0165573770492
0.9247417609444171,197.0165573770492
0.925725528775209,-101.9834426229508
0.926709296606001,-262.9834426229508
0.9276930644367929,-205.9834426229508
0.9286768322675848,75.0165573770492
0.9296606000983767,253.0165573770492
0.9306443679291687,174.0165573770492
0.9316281357599606,58.016557377049196
0.9326119035907525,-277.9834426229508
0.9335956714215444,-284.9834426229508
0.9345794392523364,-94.9834426229508
0.9355632070831283,-141.9834426229508
0.9365469749139202,-86.9834426229508
0.9375307427447122,8.016557377049196
0.9385145105755042,12.016557377049196
0.9394982784062961,103.0165573770492
0.940482046237088,161.0165573770492
0.9414658140678799,-148.9834426229508
0.9424495818986719,-63.983442622950804
0.9434333497294638,60.016557377049196
0.9444171175602557,56.016557377049196
0.9454008853910477,125.0165573770492
0.9463846532218396,272.0165573770492
0.9473684210526315,313.0165573770492
0.9483521888834234,233.0165573770492
0.9493359567142154,83.0165573770492
0.9503197245450073,-25.983442622950804
0.9513034923757993,-189.9834426229508
0.9522872602065912,-211.9834426229508
0.9532710280373832,-97.9834426229508
0.9542547958681751,-19.983442622950804
0.955238563698967,8.016557377049196
0.9562223315297589,-59.983442622950804
0.9572060993605509,-156.9834426229508
0.9581898671913428,-29.983442622950804
0.9591736350221347,-19.983442622950804
0.9601574028529266,-37.983442622950804
0.9611411706837186,150.0165573770492
0.9621249385145105,98.0165573770492
0.9631087063453024,-25.983442622950804
0.9640924741760943,77.0165573770492
0.9650762420068864,153.0165573770492
0.9660600098376783,273.0165573770492
0.9670437776684702,187.0165573770492
0.9680275454992622,-63.983442622950804
0.9690113133300541,-148.9834426229508
0.969995081160846,-200.9834426229508
0.9709788489916379,-37.983442622950804
0.9719626168224299,25.016557377049196
0.9729463846532218,-198.9834426229508
0.9739301524840137,-65.9834426229508
0.9749139203148056,18.016557377049196
0.9758976881455976,3.016557377049196
0.9768814559763895,-100.9834426229508
0.9778652238071814,-42.983442622950804
0.9788489916379733,91.0165573770492
0.9798327594687654,163.0165573770492
0.9808165272995573,36.016557377049196
0.9818002951303492,68.0165573770492
0.9827840629611411,130.0165573770492
0.9837678307919331,94.0165573770492
0.984751598622725,56.016557377049196
0.9857353664535169,-100.9834426229508
0.9867191342843089,-265.9834426229508
0.9877029021151008,-218.9834426229508
0.9886866699458927,-35.983442622950804
0.9896704377766846,181.0165573770492
0.9906542056074766,223.0165573770492
0.9916379734382685,-5.983442622950804
0.9926217412690604,78.0165573770492
0.9936055090998523,24.016557377049196
0.9945892769306444,-105.9834426229508
0.9955730447614363,-103.9834426229508
0.9965568125922282,-205.9834426229508
0.9975405804230201,-163.9834426229508
0.9985243482538121,-122.9834426229508
0.999508116084604,-167.9834426229508
1.000491883915396,-98.9834426229508
1.0014756517461878,249.0165573770492
1.0024594195769798,262.0165573770492
1.0034431874077716,268.0165573770492
1.0044269552385636,374.0165573770492
1.0054107230693556,250.0165573770492
1.0063944909001474,-174.9834426229508
1.0073782587309394,-273.9834426229508
1.0083620265617315,-166.9834426229508
1.0093457943925233,-76.9834426229508
1.0103295622233153,-28.983442622950804
1.0113133300541073,-47.983442622950804
1.012297097884899,-205.9834426229508
1.013280865715691,-175.9834426229508
1.0142646335464829,-97.9834426229508
1.015248401377275,144.0165573770492
1.016232169208067,-125.9834426229508
1.0172159370388587,-204.9834426229508
1.0181997048696507,163.0165573770492
1.0191834727004427,110.0165573770492
1.0201672405312345,20.016557377049196
1.0211510083620265,-151.9834426229508
1.0221347761928183,-49.983442622950804
1.0231185440236104,120.0165573770492
1.0241023118544024,250.0165573770492
1.0250860796851942,154.0165573770492
1.0260698475159862,135.0165573770492
1.0270536153467782,-31.983442622950804
1.02803738317757,-195.9834426229508
1.029021151008362,-225.9834426229508
1.030004918839154,-189.9834426229508
1.0309886866699458,-11.983442622950804
1.0319724545007378,96.0165573770492
1.0329562223315296,-28.983442622950804
1.0339399901623216,-75.9834426229508
1.0349237579931136,-158.9834426229508
1.0359075258239054,-129.9834426229508
1.0368912936546975,2.016557377049196
1.0378750614854895,-23.983442622950804
1.0388588293162813,31.016557377049196
1.0398425971470733,332.0165573770492
1.040826364977865,249.0165573770492
1.041810132808657,-216.9834426229508
1.042793900639449,-152.9834426229508
1.043777668470241,-44.983442622950804
1.044761436301033,139.0165573770492
1.045745204131825,47.016557377049196
1.0467289719626167,107.0165573770492
1.0477127397934087,-13.983442622950804
1.0486965076242005,-116.9834426229508
1.0496802754549925,-143.9834426229508
1.0506640432857846,47.016557377049196
1.0516478111165763,99.0165573770492
1.0526315789473684,-41.983442622950804
1.0536153467781604,-59.983442622950804
1.0545991146089522,-45.983442622950804
1.0555828824397442,-43.983442622950804
1.0565666502705362,-222.9834426229508
1.057550418101328,-32.983442622950804
1.05853418593212,42.016557377049196
1.0595179537629118,69.0165573770492
1.0605017215937038,45.016557377049196
1.0614854894244958,43.016557377049196
1.0624692572552876,43.016557377049196
1.0634530250860796,131.0165573770492
1.0644367929168717,130.0165573770492
1.0654205607476634,113.0165573770492
1.0664043285784555,-79.9834426229508
1.0673880964092473,-94.9834426229508
1.0683718642400393,-142.9834426229508
1.0693556320708313,-125.9834426229508
1.070339399901623,-41.983442622950804
1.071323167732415,2.016557377049196
1.072306935563207,-69.9834426229508
1.073290703393999,-143.9834426229508
1.074274471224791,-131.9834426229508
1.075258239055583,-94.9834426229508
1.0762420068863747,54.016557377049196
1.0772257747171667,125.0165573770492
1.0782095425479585,86.0165573770492
1.0791933103787505,245.0165573770492
1.0801770782095426,393.0165573770492
1.0811608460403344,136.0165573770492
1.0821446138711264,-18.983442622950804
1.0831283817019184,-13.983442622950804
1.0841121495327102,62.016557377049196
1.0850959173635022,60.016557377049196
1.086079685194294,1.016557377049196
1.087063453025086,-125.9834426229508
1.088047220855878,-59.983442622950804
1.0890309886866698,-68.9834426229508
1.0900147565174618,-288.9834426229508
1.0909985243482538,-144.9834426229508
1.0919822921790456,-54.983442622950804
1.0929660600098376,-28.983442622950804
1.0939498278406297,-18.983442622950804
1.0949335956714215,35.016557377049196
1.0959173635022135,97.0165573770492
1.0969011313330053,41.016557377049196
1.0978848991637973,-38.983442622950804
1.0988686669945893,-69.9834426229508
1.099852434825381,-180.9834426229508
1.100836202656173,-182.9834426229508
1.1018199704869651,97.0165573770492
1.102803738317757,198.0165573770492
1.103787506148549,134.0165573770492
1.1047712739793407,119.0165573770492
1.1057550418101327,228.0165573770492
1.1067388096409247,184.0165573770492
1.1077225774717165,-3.983442622950804
1.1087063453025086,-102.9834426229508
1.1096901131333006,-198.9834426229508
1.1106738809640924,-180.9834426229508
1.1116576487948844,20.016557377049196
1.1126414166256764,157.0165573770492
1.1136251844564682,21.016557377049196
1.1146089522872602,-179.9834426229508
1.115592720118052,-11.983442622950804
1.116576487948844,4.016557377049196
1.117560255779636,-95.9834426229508
1.1185440236104278,-17.983442622950804
1.1195277914412198,27.016557377049196
1.1205115592720118,125.0165573770492
1.1214953271028036,214.0165573770492
1.1224790949335957,174.0165573770492
1.1234628627643874,-70.9834426229508
1.1244466305951795,-93.9834426229508
1.1254303984259715,59.016557377049196
1.1264141662567633,-82.9834426229508
1.1273979340875553,-190.9834426229508
1.1283817019183473,-219.9834426229508
1.129365469749139,-349.9834426229508
1.130349237579931,-171.9834426229508
1.131333005410723,-22.983442622950804
1.132316773241515,-63.983442622950804
1.133300541072307,-112.9834426229508
1.1342843089030987,-102.9834426229508
1.1352680767338907,-154.9834426229508
1.1362518445646828,-171.9834426229508
1.1372356123954745,-66.9834426229508
1.1382193802262666,-78.9834426229508
1.1392031480570586,-17.983442622950804
1.1401869158878504,-38.983442622950804
1.1411706837186424,-77.9834426229508
1.1421544515494342,-74.9834426229508
1.1431382193802262,-132.9834426229508
1.1441219872110182,-172.9834426229508
1.14510575504181,-262.9834426229508
1.146089522872602,-331.9834426229508
1.147073290703394,-261.9834426229508
1.1480570585341858,-82.9834426229508
1.1490408263649778,1.016557377049196
1.1500245941957696,49.016557377049196
1.1510083620265616,-45.983442622950804
1.1519921298573537,13.016557377049196
1.1529758976881455,136.0165573770492
1.1539596655189375,189.0165573770492
1.1549434333497295,97.0165573770492
1.1559272011805213,-3.983442622950804
1.1569109690113133,-83.9834426229508
1.1578947368421053,-195.9834426229508
1.158878504672897,-172.9834426229508
1.1598622725036891,163.0165573770492
1.160846040334481,366.0165573770492
1.161829808165273,261.0165573770492
1.162813575996065,171.0165573770492
1.1637973438268567,175.0165573770492
1.1647811116576487,68.0165573770492
1.1657648794884408,-42.983442622950804
1.1667486473192326,115.0165573770492
1.1677324151500246,-29.983442622950804
1.1687161829808164,-13.983442622950804
1.1696999508116084,-30.983442622950804
1.1706837186424004,92.0165573770492
1.1716674864731922,19.016557377049196
1.1726512543039842,-76.9834426229508
1.1736350221347762,171.0165573770492
1.174618789965568,159.0165573770492
1.17560255779636,165.0165573770492
1.176586325627152,87.0165573770492
1.1775700934579438,8.016557377049196
1.1785538612887358,22.016557377049196
1.1795376291195276,114.0165573770492
1.1805213969503197,17.016557377049196
1.1815051647811117,92.0165573770492
1.1824889326119035,193.0165573770492
1.1834727004426955,222.0165573770492
1.1844564682734875,68.0165573770492
1.1854402361042793,-97.9834426229508
1.1864240039350713,12.016557377049196
1.187407771765863,19.016557377049196
1.188391539596655,44.016557377049196
1.1893753074274471,84.0165573770492
1.190359075258239,-139.9834426229508
1.191342843089031,-41.983442622950804
1.192326610919823,151.0165573770492
1.1933103787506147,129.0165573770492
1.1942941465814068,-29.983442622950804
1.1952779144121985,-37.983442622950804
1.1962616822429906,45.016557377049196
1.1972454500737826,134.0165573770492
1.1982292179045744,71.0165573770492
1.1992129857353664,-25.983442622950804
1.2001967535661584,43.016557377049196
1.2011805213969502,8.016557377049196
1.2021642892277422,-46.983442622950804
1.2031480570585342,132.0165573770492
1.204131824889326,131.0165573770492
1.205115592720118,-69.9834426229508
1.2060993605509098,-54.983442622950804
1.2070831283817018,25.016557377049196
1.2080668962124939,-74.9834426229508
1.2090506640432856,-262.9834426229508
1.2100344318740777,-162.9834426229508
1.2110181997048697,-46.983442622950804
1.2120019675356615,89.0165573770492
1.2129857353664535,167.0165573770492
1.2139695031972453,261.0165573770492
1.2149532710280373,187.0165573770492
1.2159370388588293,20.016557377049196
1.216920806689621,13.016557377049196
1.2179045745204131,72.0165573770492
1.2188883423512051,147.0165573770492
1.219872110181997,202.0165573770492
1.220855878012789,-5.983442622950804
1.221839645843581,-275.9834426229508
1.2228234136743728,-214.9834426229508
1.2238071815051648,42.016557377049196
1.2247909493359566,8.016557377049196
1.2257747171667486,70.0165573770492
1.2267584849975406,78.0165573770492
1.2277422528283324,-23.983442622950804
1.2287260206591244,-114.9834426229508
1.2297097884899164,-92.9834426229508
1.2306935563207082,35.016557377049196
1.2316773241515002,3.016557377049196
1.232661091982292,-155.9834426229508
1.233644859813084,-183.9834426229508
1.234628627643876,-16.983442622950804
1.2356123954746678,119.0165573770492
1.2365961633054599,219.0165573770492
1.2375799311362519,161.0165573770492
1.2385636989670437,-73.9834426229508
1.2395474667978357,-21.983442622950804
1.2405312346286277,77.0165573770492
1.2415150024594195,202.0165573770492
1.2424987702902115,182.0165573770492
1.2434825381210033,-35.983442622950804
1.2444663059517953,-186.9834426229508
1.2454500737825873,-142.9834426229508
1.2464338416133791,43.016557377049196
1.2474176094441711,-82.9834426229508
1.2484013772749631,-73.9834426229508
1.249385145105755,-27.983442622950804
1.250368912936547,-76.9834426229508
1.2513526807673387,-79.9834426229508
1.2523364485981308,-97.9834426229508
1.2533202164289228,35.016557377049196
1.2543039842597146,189.0165573770492
1.2552877520905066,89.0165573770492
1.2562715199212986,47.016557377049196
1.2572552877520904,40.016557377049196
1.2582390555828824,-40.983442622950804
1.2592228234136744,-172.9834426229508
1.2602065912444662,-96.9834426229508
1.2611903590752582,-7.983442622950804
1.26217412690605,21.016557377049196
1.263157894736842,24.016557377049196
1.264141662567634,112.0165573770492
1.2651254303984258,44.016557377049196
1.2661091982292179,-79.9834426229508
1.2670929660600099,-213.9834426229508
1.2680767338908017,25.016557377049196
1.2690605017215937,-44.983442622950804
1.2700442695523855,-32.983442622950804
1.2710280373831775,15.016557377049196
1.2720118052139695,-28.983442622950804
1.2729955730447613,-22.983442622950804
1.2739793408755533,-47.983442622950804
1.2749631087063453,93.0165573770492
1.2759468765371371,134.0165573770492
1.2769306443679291,130.0165573770492
1.277914412198721,72.0165573770492
1.278898180029513,44.016557377049196
1.279881947860305,19.016557377049196
1.2808657156910968,8.016557377049196
1.2818494835218888,-14.983442622950804
1.2828332513526808,-41.983442622950804
1.2838170191834726,-45.983442622950804
1.2848007870142646,-27.983442622950804
1.2857845548450566,-66.9834426229508
1.2867683226758484,-101.9834426229508
1.2877520905066404,-66.9834426229508
1.2887358583374322,12.016557377049196
1.2897196261682242,29.016557377049196
1.2907033939990162,-146.9834426229508
1.291687161829808,-34.983442622950804
1.2926709296606,-30.983442622950804
1.293654697491392,50.016557377049196
1.2946384653221839,60.016557377049196
1.2956222331529759,110.0165573770492
1.2966060009837677,-34.983442622950804
1.2975897688145597,8.016557377049196
1.2985735366453517,85.0165573770492
1.2995573044761435,109.0165573770492
1.3005410723069355,171.0165573770492
1.3015248401377275,96.0165573770492
1.3025086079685193,0.01655737704919602
1.3034923757993113,3.016557377049196
1.3044761436301033,-79.9834426229508
1.3054599114608951,-89.9834426229508
1.3064436792916871,-7.983442622950804
1.307427447122479,-22.983442622950804
1.308411214953271,-75.9834426229508
1.309394982784063,30.016557377049196
1.3103787506148548,-106.9834426229508
1.3113625184456468,-63.983442622950804
1.3123462862764388,6.016557377049196
1.3133300541072306,79.0165573770492
1.3143138219380226,15.016557377049196
1.3152975897688144,61.016557377049196
1.3162813575996064,73.0165573770492
1.3172651254303984,73.0165573770492
1.3182488932611902,54.016557377049196
1.3192326610919822,46.016557377049196
1.3202164289227742,-9.983442622950804
1.321200196753566,57.016557377049196
1.322183964584358,-13.983442622950804
1.32316773241515,-92.9834426229508
1.3241515002459419,-79.9834426229508
1.3251352680767339,-42.983442622950804
1.3261190359075257,-42.983442622950804
1.3271028037383177,-27.983442622950804
1.3280865715691097,-52.983442622950804
1.3290703393999015,-77.9834426229508
1.3300541072306935,-83.9834426229508
1.3310378750614855,-17.983442622950804
1.3320216428922773,12.016557377049196
1.3330054107230693,45.016557377049196
1.3339891785538611,17.016557377049196
1.3349729463846531,29.016557377049196
1.3359567142154452,61.016557377049196
1.336940482046237,65.0165573770492
1.337924249877029,3.016557377049196
1.338908017707821,51.016557377049196
1.3398917855386128,80.0165573770492
1.3408755533694048,-13.983442622950804
1.3418593212001966,-35.983442622950804
1.3428430890309886,-45.983442622950804
1.3438268568617806,56.016557377049196
1.3448106246925724,45.016557377049196
1.3457943925233644,-40.983442622950804
1.3467781603541564,-58.983442622950804
1.3477619281849482,3.016557377049196
1.3487456960157402,14.016557377049196
1.3497294638465323,-45.983442622950804
1.350713231677324,-61.983442622950804
1.351696999508116,-19.983442622950804
1.3526807673389079,-13.983442622950804
1.3536645351696999,-9.983442622950804
1.3546483030004919,22.016557377049196
1.3556320708312837,65.0165573770492
1.3566158386620757,59.016557377049196
1.3575996064928677,79.0165573770492
1.3585833743236595,80.0165573770492
1.3595671421544515,43.016557377049196
1.3605509099852433,9.016557377049196
1.3615346778160353,-19.983442622950804
1.3625184456468273,0.01655737704919602
1.3635022134776191,17.016557377049196
1.3644859813084111,-31.983442622950804
1.3654697491392032,-118.9834426229508
1.366453516969995,-103.9834426229508
1.367437284800787,1.016557377049196
1.368421052631579,13.016557377049196
1.3694048204623708,12.016557377049196
1.3703885882931628,21.016557377049196
1.3713723561239546,20.016557377049196
1.3723561239547466,24.016557377049196
1.3733398917855386,18.016557377049196
1.3743236596163304,6.016557377049196
1.3753074274471224,16.016557377049196
1.3762911952779144,24.016557377049196
1.3772749631087062,28.016557377049196
1.3782587309394982,56.016557377049196
1.37924249877029,64.0165573770492
1.380226266601082,51.016557377049196
1.381210034431874,8.016557377049196
1.3821938022626659,-35.983442622950804
1.3831775700934579,-83.9834426229508
1.38416133792425,-106.9834426229508
1.3851451057550417,-106.9834426229508
1.3861288735858337,-86.9834426229508
1.3871126414166257,-77.9834426229508
1.3880964092474175,-72.9834426229508
1.3890801770782095,-42.983442622950804
1.3900639449090013,11.016557377049196
1.3910477127397933,42.016557377049196
1.3920314805705853,43.016557377049196
1.3930152484013771,40.016557377049196
1.3939990162321692,62.016557377049196
1.3949827840629612,61.016557377049196
1.395966551893753,32.016557377049196
1.396950319724545,40.016557377049196
1.3979340875553368,58.016557377049196
1.3989178553861288,72.0165573770492
1.3999016232169208,71.0165573770492
1.4008853910477126,38.016557377049196
1.4018691588785046,33.016557377049196
1.4028529267092966,1.016557377049196
1.4038366945400884,-38.983442622950804
1.4048204623708804,-59.983442622950804
1.4058042302016722,-47.983442622950804
1.4067879980324642,-55.983442622950804
1.4077717658632563,-59.983442622950804
1.408755533694048,-30.983442622950804
1.40973930152484,-33.983442622950804
1.410723069355632,18.016557377049196
1.4117068371864239,64.0165573770492
1.4126906050172159,68.0165573770492
1.413674372848008,66.0165573770492
1.4146581406787997,76.0165573770492
1.4156419085095917,60.016557377049196
1.4166256763403835,52.016557377049196
1.4176094441711755,61.016557377049196
1.4185932120019675,58.016557377049196
1.4195769798327593,6.016557377049196
1.4205607476635513,-38.983442622950804
1.4215445154943434,-49.983442622950804
1.4225282833251351,-35.983442622950804
1.4235120511559272,-44.983442622950804
1.424495818986719,-26.983442622950804
1.425479586817511,-16.983442622950804
1.426463354648303,-23.983442622950804
1.4274471224790948,-25.983442622950804
1.4284308903098868,-67.9834426229508
1.4294146581406788,-59.983442622950804
1.4303984259714706,-21.983442622950804
1.4313821938022626,27.016557377049196
1.4323659616330546,59.016557377049196
1.4333497294638464,76.0165573770492
1.4343334972946384,69.0165573770492
1.4353172651254302,53.016557377049196
1.4363010329562222,73.0165573770492
1.4372848007870143,58.016557377049196
1.438268568617806,39.016557377049196
1.439252336448598,23.016557377049196
1.44023610427939,-19.983442622950804
1.4412198721101819,-31.983442622950804
1.442203639940974,-17.983442622950804
1.4431874077717657,-26.983442622950804
1.4441711756025577,-55.983442622950804
1.4451549434333497,-55.983442622950804
1.4461387112641415,-40.983442622950804
1.4471224790949335,-40.983442622950804
1.4481062469257255,-42.983442622950804
1.4490900147565173,-38.983442622950804
1.4500737825873093,5.016557377049196
1.4510575504181014,21.016557377049196
1.4520413182488932,7.016557377049196
1.4530250860796852,70.0165573770492
1.454008853910477,112.0165573770492
1.454992621741269,90.0165573770492
1.455976389572061,78.0165573770492
1.4569601574028528,85.0165573770492
1.4579439252336448,76.0165573770492
1.4589276930644368,41.016557377049196
1.4599114608952286,-17.983442622950804
1.4608952287260206,-50.983442622950804
1.4618789965568124,-65.9834426229508
1.4628627643876044,-80.9834426229508
1.4638465322183964,-62.983442622950804
1.4648303000491882,-51.983442622950804
1.4658140678799803,-28.983442622950804
1.4667978357107723,-14.983442622950804
1.467781603541564,-15.983442622950804
1.468765371372356,-4.983442622950804
1.469749139203148,17.016557377049196
1.4707329070339399,18.016557377049196
1.471716674864732,23.016557377049196
1.4727004426955237,40.016557377049196
1.4736842105263157,50.016557377049196
1.4746679783571077,56.016557377049196
1.4756517461878995,48.016557377049196
1.4766355140186915,38.016557377049196
1.4776192818494835,26.016557377049196
1.4786030496802753,12.016557377049196
1.4795868175110674,-9.983442622950804
1.4805705853418591,-22.983442622950804
1.4815543531726512,-27.983442622950804
1.4825381210034432,-39.983442622950804
1.483521888834235,-41.983442622950804
1.484505656665027,-40.983442622950804
1.485489424495819,-21.983442622950804
1.4864731923266108,-19.983442622950804
1.4874569601574028,-27.983442622950804
1.4884407279881946,-10.983442622950804
1.4894244958189866,7.016557377049196
1.4904082636497786,26.016557377049196
1.4913920314805704,38.016557377049196
1.4923757993113624,64.0165573770492
1.4933595671421545,61.016557377049196
1.4943433349729462,50.016557377049196
1.4953271028037383,28.016557377049196
1.4963108706345303,17.016557377049196
1.497294638465322,20.016557377049196
1.498278406296114,3.016557377049196
1.4992621741269059,-21.983442622950804
1.500245941957698,-21.983442622950804
1.50122970978849,-15.983442622950804
1.5022134776192817,-43.983442622950804
1.5031972454500737,-46.983442622950804
1.5041810132808657,-44.983442622950804
1.5051647811116575,-38.983442622950804
1.5061485489424495,-35.983442622950804
1.5071323167732413,-31.983442622950804
1.5081160846040333,-14.983442622950804
1.5090998524348254,8.016557377049196
1.5100836202656172,34.016557377049196
1.5110673880964092,29.016557377049196
1.5120511559272012,36.016557377049196
1.513034923757993,42.016557377049196
1.514018691588785,43.016557377049196
1.515002459419577,28.016557377049196
1.5159862272503688,29.016557377049196
1.5169699950811608,24.016557377049196
1.5179537629119526,6.016557377049196
1.5189375307427446,-13.983442622950804
1.5199212985735366,-27.983442622950804
1.5209050664043284,-28.983442622950804
1.5218888342351204,-45.983442622950804
1.5228726020659125,-47.983442622950804
1.5238563698967043,-38.983442622950804
1.5248401377274963,-28.983442622950804
1.525823905558288,-22.983442622950804
1.52680767338908,-28.983442622950804
1.527791441219872,-10.983442622950804
1.5287752090506639,14.016557377049196
1.529758976881456,29.016557377049196
1.530742744712248,30.016557377049196
1.5317265125430397,52.016557377049196
1.5327102803738317,53.016557377049196
1.5336940482046237,43.016557377049196
1.5346778160354155,34.016557377049196
1.5356615838662075,39.016557377049196
1.5366453516969993,32.016557377049196
1.5376291195277914,11.016557377049196
1.5386128873585834,-10.983442622950804
1.5395966551893752,-22.983442622950804
1.5405804230201672,-26.983442622950804
1.5415641908509592,-40.983442622950804
1.542547958681751,-51.983442622950804
1.543531726512543,-47.983442622950804
1.5445154943433348,-39.983442622950804
1.5454992621741268,-33.983442622950804
1.5464830300049188,-24.983442622950804
1.5474667978357106,-4.983442622950804
1.5484505656665026,14.016557377049196
1.5494343334972946,32.016557377049196
1.5504181013280864,35.016557377049196
1.5514018691588785,59.016557377049196
1.5523856369896702,59.016557377049196
1.5533694048204623,50.016557377049196
1.5543531726512543,36.016557377049196
1.555336940482046,25.016557377049196
1.556320708312838,25.016557377049196
1.55730447614363,11.016557377049196
1.558288243974422,-16.983442622950804
1.559272011805214,-28.983442622950804
1.560255779636006,-28.983442622950804
1.5612395474667977,-49.983442622950804
1.5622233152975897,-52.983442622950804
1.5632070831283815,-50.983442622950804
1.5641908509591735,-38.983442622950804
1.5651746187899656,-30.983442622950804
1.5661583866207573,-24.983442622950804
1.5671421544515494,-2.983442622950804
1.5681259222823414,19.016557377049196
1.5691096901131332,31.016557377049196
1.5700934579439252,29.016557377049196
1.571077225774717,46.016557377049196
1.572060993605509,51.016557377049196
1.573044761436301,46.016557377049196
1.5740285292670928,38.016557377049196
1.5750122970978848,36.016557377049196
1.5759960649286768,30.016557377049196
1.5769798327594686,11.016557377049196
1.5779636005902606,-15.983442622950804
1.5789473684210527,-29.983442622950804
1.5799311362518444,-29.983442622950804
1.5809149040826365,-47.983442622950804
1.5818986719134283,-53.983442622950804
1.5828824397442203,-48.983442622950804
1.5838662075750123,-35.983442622950804
1.584849975405804,-27.983442622950804
1.585833743236596,-20.983442622950804
1.586817511067388,-4.983442622950804
1.58780127889818,19.016557377049196
1.588785046728972,32.016557377049196
1.5897688145597637,30.016557377049196
1.5907525823905557,52.016557377049196
1.5917363502213477,61.016557377049196
1.5927201180521395,53.016557377049196
1.5937038858829315,44.016557377049196
1.5946876537137236,38.016557377049196
1.5956714215445154,37.016557377049196
1.5966551893753074,20.016557377049196
1.5976389572060994,-6.983442622950804
1.5986227250368912,-23.983442622950804
1.5996064928676832,-25.983442622950804
1.600590260698475,-44.983442622950804
1.601574028529267,-49.983442622950804
1.602557796360059,-46.983442622950804
1.6035415641908508,-35.983442622950804
1.6045253320216428,-30.983442622950804
1.6055090998524348,-31.983442622950804
1.6064928676832266,-11.983442622950804
1.6074766355140186,19.016557377049196
1.6084604033448104,30.016557377049196
1.6094441711756025,33.016557377049196
1.6104279390063945,53.016557377049196
1.6114117068371863,63.016557377049196
1.6123954746679783,58.016557377049196
1.6133792424987703,44.016557377049196
1.614363010329562,36.016557377049196
1.615346778160354,33.016557377049196
1.6163305459911461,12.016557377049196
1.617314313821938,-17.983442622950804
1.61829808165273,-37.983442622950804
1.6192818494835217,-38.983442622950804
1.6202656173143137,-61.983442622950804
1.6212493851451057,-67.9834426229508
1.6222331529758975,-59.983442622950804
1.6232169208066896,-48.983442622950804
1.6242006886374816,-41.983442622950804
1.6251844564682734,-34.983442622950804
1.6261682242990654,-19.983442622950804
1.6271519921298572,12.016557377049196
1.6281357599606492,25.016557377049196
1.6291195277914412,35.016557377049196
1.630103295622233,57.016557377049196
1.631087063453025,59.016557377049196
1.632070831283817,59.016557377049196
1.6330545991146088,46.016557377049196
1.6340383669454008,44.016557377049196
1.6350221347761926,40.016557377049196
1.6360059026069846,22.016557377049196
1.6369896704377767,-9.983442622950804
1.6379734382685684,-24.983442622950804
1.6389572060993605,-22.983442622950804
1.6399409739301525,-46.983442622950804
1.6409247417609443,-48.983442622950804
1.6419085095917363,-43.983442622950804
1.6428922774225283,-29.983442622950804
1.64387604525332,-24.983442622950804
1.644859813084112,-23.983442622950804
1.645843580914904,-2.983442622950804
1.646827348745696,28.016557377049196
1.647811116576488,45.016557377049196
1.6487948844072797,45.016557377049196
1.6497786522380717,62.016557377049196
1.6507624200688638,70.0165573770492
1.6517461878996555,68.0165573770492
1.6527299557304476,53.016557377049196
1.6537137235612394,46.016557377049196
1.6546974913920314,36.016557377049196
1.6556812592228234,16.016557377049196
1.6566650270536152,-14.983442622950804
1.6576487948844072,-30.983442622950804
1.6586325627151992,-38.983442622950804
1.659616330545991,-61.983442622950804
1.660600098376783,-71.9834426229508
1.661583866207575,-72.9834426229508
1.6625676340383668,-55.983442622950804
1.6635514018691588,-49.983442622950804
1.6645351696999506,-34.983442622950804
1.6655189375307426,-13.983442622950804
1.6665027053615347,21.016557377049196
1.6674864731923265,40.016557377049196
1.6684702410231185,43.016557377049196
1.6694540088539105,62.016557377049196
1.6704377766847023,66.0165573770492
1.6714215445154943,59.016557377049196
1.672405312346286,45.016557377049196
1.673389080177078,41.016557377049196
1.6743728480078701,33.016557377049196
1.675356615838662,12.016557377049196
1.676340383669454,-16.983442622950804
1.677324151500246,-34.983442622950804
1.6783079193310377,-39.983442622950804
1.6792916871618297,-67.9834426229508
1.6802754549926218,-74.9834426229508
1.6812592228234136,-73.9834426229508
1.6822429906542056,-59.983442622950804
1.6832267584849974,-57.983442622950804
1.6842105263157894,-46.983442622950804
1.6851942941465814,-19.983442622950804
1.6861780619773732,11.016557377049196
1.6871618298081652,29.016557377049196
1.6881455976389572,38.016557377049196
1.689129365469749,64.0165573770492
1.690113133300541,65.0165573770492
1.6910969011313328,64.0165573770492
1.6920806689621248,46.016557377049196
1.6930644367929168,41.016557377049196
1.6940482046237086,32.016557377049196
1.6950319724545007,8.016557377049196
1.6960157402852927,-25.983442622950804
1.6969995081160845,-42.983442622950804
1.6979832759468765,-46.983442622950804
1.6989670437776683,-68.9834426229508
1.6999508116084603,-76.9834426229508
1.7009345794392523,-71.9834426229508
1.701918347270044,-55.983442622950804
1.7029021151008361,-52.983442622950804
1.7038858829316281,-44.983442622950804
1.70486965076242,-17.983442622950804
1.705853418593212,12.016557377049196
1.706837186424004,30.016557377049196
1.7078209542547957,40.016557377049196
1.7088047220855878,68.0165573770492
1.7097884899163796,69.0165573770492
1.7107722577471716,59.016557377049196
1.7117560255779636,46.016557377049196
1.7127397934087554,40.016557377049196
1.7137235612395474,29.016557377049196
1.7147073290703394,6.016557377049196
1.7156910969011312,-25.983442622950804
1.7166748647319232,-43.983442622950804
1.717658632562715,-45.983442622950804
1.718642400393507,-61.983442622950804
1.719626168224299,-60.983442622950804
1.7206099360550908,-56.983442622950804
1.7215937038858828,-47.983442622950804
1.7225774717166749,-45.983442622950804
1.7235612395474667,-40.983442622950804
1.7245450073782587,-17.983442622950804
1.7255287752090507,14.016557377049196
1.7265125430398425,31.016557377049196
1.7274963108706345,35.016557377049196
1.7284800787014263,60.016557377049196
1.7294638465322183,70.0165573770492
1.7304476143630103,62.016557377049196
1.731431382193802,49.016557377049196
1.7324151500245941,44.016557377049196
1.7333989178553861,38.016557377049196
1.734382685686178,14.016557377049196
1.73536645351697,-19.983442622950804
1.7363502213477617,-32.983442622950804
1.7373339891785538,-38.983442622950804
1.7383177570093458,-61.983442622950804
1.7393015248401376,-67.9834426229508
1.7402852926709296,-65.9834426229508
1.7412690605017216,-46.983442622950804
1.7422528283325134,-44.983442622950804
1.7432365961633054,-38.983442622950804
1.7442203639940974,-13.983442622950804
1.7452041318248892,22.016557377049196
1.7461878996556812,38.016557377049196
1.747171667486473,43.016557377049196
1.748155435317265,68.0165573770492
1.749139203148057,72.0165573770492
1.7501229709788488,71.0165573770492
1.7511067388096409,52.016557377049196
1.7520905066404329,44.016557377049196
1.7530742744712247,35.016557377049196
1.7540580423020167,12.016557377049196
1.7550418101328085,-20.983442622950804
1.7560255779636005,-36.983442622950804
1.7570093457943925,-44.983442622950804
1.7579931136251843,-66.9834426229508
1.7589768814559763,-71.9834426229508
1.7599606492867683,-67.9834426229508
1.7609444171175601,-51.983442622950804
1.7619281849483521,-50.983442622950804
1.762911952779144,-38.983442622950804
1.763895720609936,-14.983442622950804
1.764879488440728,17.016557377049196
1.7658632562715197,36.016557377049196
1.7668470241023118,38.016557377049196
1.7678307919331038,60.016557377049196
1.7688145597638956,65.0165573770492
1.7697983275946876,62.016557377049196
1.7707820954254796,51.016557377049196
1.7717658632562714,46.016557377049196
1.7727496310870634,40.016557377049196
1.7737333989178552,19.016557377049196
1.7747171667486472,-16.983442622950804
1.7757009345794392,-37.983442622950804
1.776684702410231,-42.983442622950804
1.777668470241023,-62.983442622950804
1.778652238071815,-66.9834426229508
1.7796360059026068,-66.9834426229508
1.7806197737333989,-54.983442622950804
1.7816035415641907,-47.983442622950804
1.7825873093949827,-39.983442622950804
1.7835710772257747,-8.983442622950804
1.7845548450565665,21.016557377049196
1.7855386128873585,37.016557377049196
1.7865223807181505,39.016557377049196
1.7875061485489423,61.016557377049196
1.7884899163797343,69.0165573770492
1.7894736842105263,61.016557377049196
1.7904574520413181,44.016557377049196
1.7914412198721101,38.016557377049196
1.792424987702902,30.016557377049196
1.793408755533694,8.016557377049196
1.794392523364486,-21.983442622950804
1.7953762911952778,-40.983442622950804
1.7963600590260698,-48.983442622950804
1.7973438268568618,-70.9834426229508
1.7983275946876536,-76.9834426229508
1.7993113625184456,-71.9834426229508
1.8002951303492374,-55.983442622950804
1.8012788981800294,-49.983442622950804
1.8022626660108214,-38.983442622950804
1.8032464338416132,-13.983442622950804
1.8042302016724052,14.016557377049196
1.8052139695031972,30.016557377049196
1.806197737333989,37.016557377049196
1.807181505164781,60.016557377049196
1.808165272995573,68.0165573770492
1.8091490408263649,61.016557377049196
1.8101328086571569,50.016557377049196
1.8111165764879487,47.016557377049196
1.8121003443187407,37.016557377049196
1.8130841121495327,12.016557377049196
1.8140678799803245,-19.983442622950804
1.8150516478111165,-38.983442622950804
1.8160354156419085,-43.983442622950804
1.8170191834727003,-65.9834426229508
1.8180029513034923,-70.9834426229508
1.8189867191342841,-65.9834426229508
1.8199704869650761,-50.983442622950804
1.8209542547958681,-47.983442622950804
1.82193802262666,-39.983442622950804
1.822921790457452,-10.983442622950804
1.823905558288244,15.016557377049196
1.8248893261190358,32.016557377049196
1.8258730939498278,36.016557377049196
1.8268568617806198,62.016557377049196
1.8278406296114116,69.0165573770492
1.8288243974422036,63.016557377049196
1.8298081652729954,51.016557377049196
1.8307919331037874,49.016557377049196
1.8317757009345794,36.016557377049196
1.8327594687653712,13.016557377049196
1.8337432365961632,-22.983442622950804
1.8347270044269552,-34.983442622950804
1.835710772257747,-43.983442622950804
1.836694540088539,-65.9834426229508
1.8376783079193308,-72.9834426229508
1.8386620757501229,-68.9834426229508
1.8396458435809149,-51.983442622950804
1.8406296114117067,-47.983442622950804
1.8416133792424987,-37.983442622950804
1.8425971470732907,-9.983442622950804
1.8435809149040825,20.016557377049196
1.8445646827348745,33.016557377049196
1.8455484505656663,41.016557377049196
1.8465322183964583,62.016557377049196
1.8475159862272503,70.0165573770492
1.8484997540580421,64.0165573770492
1.8494835218888341,47.016557377049196
1.8504672897196262,49.016557377049196
1.851451057550418,36.016557377049196
1.85243482538121,9.016557377049196
1.853418593212002,-23.983442622950804
1.8544023610427938,-36.983442622950804
1.8553861288735858,-40.983442622950804
1.8563698967043776,-61.983442622950804
1.8573536645351696,-67.9834426229508
1.8583374323659616,-63.983442622950804
1.8593212001967534,-47.983442622950804
1.8603049680275454,-38.983442622950804
1.8612887358583374,-28.983442622950804
1.8622725036891292,-5.983442622950804
1.8632562715199212,23.016557377049196
1.864240039350713,38.016557377049196
1.865223807181505,41.016557377049196
1.866207575012297,68.0165573770492
1.8671913428430889,74.0165573770492
1.8681751106738809,70.0165573770492
1.8691588785046729,58.016557377049196
1.8701426463354647,48.016557377049196
1.8711264141662567,36.016557377049196
1.8721101819970487,9.016557377049196
1.8730939498278405,-25.983442622950804
1.8740777176586325,-39.983442622950804
1.8750614854894243,-44.983442622950804
1.8760452533202163,-67.9834426229508
1.8770290211510083,-73.9834426229508
1.8780127889818001,-66.9834426229508
1.8789965568125921,-51.983442622950804
1.8799803246433842,-49.983442622950804
1.880964092474176,-37.983442622950804
1.881947860304968,-10.983442622950804
1.8829316281357598,20.016557377049196
1.8839153959665518,34.016557377049196
1.8848991637973438,42.016557377049196
1.8858829316281356,65.0165573770492
1.8868666994589276,72.0165573770492
1.8878504672897196,63.016557377049196
1.8888342351205114,45.016557377049196
1.8898180029513034,46.016557377049196
1.8908017707820954,41.016557377049196
1.8917855386128872,11.016557377049196
1.8927693064436792,-19.983442622950804
1.893753074274471,-39.983442622950804
1.894736842105263,-46.983442622950804
1.895720609936055,-68.9834426229508
1.8967043777668469,-76.9834426229508
1.8976881455976389,-66.9834426229508
1.898671913428431,-51.983442622950804
1.8996556812592227,-43.983442622950804
1.9006394490900147,-31.983442622950804
1.9016232169208065,-9.983442622950804
1.9026069847515985,20.016557377049196
1.9035907525823905,33.016557377049196
1.9045745204131823,41.016557377049196
1.9055582882439743,63.016557377049196
1.9065420560747663,72.0165573770492
1.9075258239055581,63.016557377049196
1.9085095917363502,48.016557377049196
1.909493359567142,43.016557377049196
1.910477127397934,33.016557377049196
1.911460895228726,1.016557377049196
1.9124446630595178,-22.983442622950804
1.9134284308903098,-38.983442622950804
1.9144121987211018,-48.983442622950804
1.9153959665518936,-68.9834426229508
1.9163797343826856,-68.9834426229508
1.9173635022134776,-60.983442622950804
1.9183472700442694,-44.983442622950804
1.9193310378750614,-43.983442622950804
1.9203148057058532,-34.983442622950804
1.9212985735366452,-8.983442622950804
1.9222823413674373,21.016557377049196
1.923266109198229,36.016557377049196
1.924249877029021,39.016557377049196
1.925233644859813,68.0165573770492
1.9262174126906049,71.0165573770492
1.9272011805213969,63.016557377049196
1.9281849483521887,48.016557377049196
1.9291687161829807,44.016557377049196
1.9301524840137727,35.016557377049196
1.9311362518445645,10.016557377049196
1.9321200196753565,-22.983442622950804
1.9331037875061485,-37.983442622950804
1.9340875553369403,-40.983442622950804
1.9350713231677323,-65.9834426229508
1.9360550909985244,-70.9834426229508
1.9370388588293161,-63.983442622950804
1.9380226266601082,-46.983442622950804
1.9390063944909,-44.983442622950804
1.939990162321692,-36.983442622950804
1.940973930152484,-9.983442622950804
1.9419576979832758,24.016557377049196
1.9429414658140678,36.016557377049196
1.9439252336448598,44.016557377049196
1.9449090014756516,68.0165573770492
1.9458927693064436,72.0165573770492
1.9468765371372354,62.016557377049196
1.9478603049680274,47.016557377049196
1.9488440727988194,44.016557377049196
1.9498278406296112,34.016557377049196
1.9508116084604032,9.016557377049196
1.9517953762911953,-25.983442622950804
1.952779144121987,-36.983442622950804
1.953762911952779,-36.983442622950804
1.954746679783571,-64.9834426229508
1.9557304476143629,-71.9834426229508
1.956714215445155,-66.9834426229508
1.9576979832759467,-46.983442622950804
1.9586817511067387,-44.983442622950804
1.9596655189375307,-31.983442622950804
1.9606492867683225,-2.983442622950804
1.9616330545991145,27.016557377049196
1.9626168224299065,41.016557377049196
1.9636005902606983,48.016557377049196
1.9645843580914903,68.0165573770492
1.9655681259222821,74.0165573770492
1.9665518937530742,65.0165573770492
1.9675356615838662,46.016557377049196
1.968519429414658,43.016557377049196
1.96950319724545,30.016557377049196
1.970486965076242,3.016557377049196
1.9714707329070338,-25.983442622950804
1.9724545007378258,-40.983442622950804
1.9734382685686178,-46.983442622950804
1.9744220363994096,-62.983442622950804
1.9754058042302016,-68.9834426229508
1.9763895720609934,-63.983442622950804
1.9773733398917854,-51.983442622950804
1.9783571077225774,-48.983442622950804
1.9793408755533692,-34.983442622950804
1.9803246433841613,-8.983442622950804
1.9813084112149533,27.016557377049196
1.982292179045745,39.016557377049196
1.983275946876537,43.016557377049196
1.9842597147073289,67.0165573770492
1.9852434825381209,72.0165573770492
1.986227250368913,65.0165573770492
1.9872110181997047,46.016557377049196
1.9881947860304967,43.016557377049196
1.9891785538612887,35.016557377049196
1.9901623216920805,10.016557377049196
1.9911460895228725,-22.983442622950804
1.9921298573536643,-36.983442622950804
1.9931136251844563,-44.983442622950804
1.9940973930152484,-65.9834426229508
1.9950811608460401,-70.9834426229508
1.9960649286768322,-67.9834426229508
1.9970486965076242,-49.983442622950804
1.998032464338416,-49.983442622950804
1.999016232169208,-42.983442622950804
2.0,-10.983442622950804
2.000983767830792,18.016557377049196
2.0019675356615836,33.016557377049196
2.0029513034923756,41.016557377049196
2.0039350713231676,63.016557377049196
2.0049188391539596,73.0165573770492
2.0059026069847516,68.0165573770492
2.006886374815543,49.016557377049196
2.0078701426463352,51.016557377049196
2.0088539104771272,37.016557377049196
2.0098376783079193,11.016557377049196
2.0108214461387113,-22.983442622950804
2.0118052139695033,-41.983442622950804
2.012788981800295,-46.983442622950804
2.013772749631087,-69.9834426229508
2.014756517461879,-69.9834426229508
2.015740285292671,-65.9834426229508
2.016724053123463,-48.983442622950804
2.0177078209542545,-41.983442622950804
2.0186915887850465,-30.983442622950804
2.0196753566158385,-4.983442622950804
2.0206591244466305,21.016557377049196
2.0216428922774226,36.016557377049196
2.0226266601082146,43.016557377049196
2.023610427939006,65.0165573770492
2.024594195769798,69.0165573770492
2.02557796360059,63.016557377049196
2.026561731431382,46.016557377049196
2.027545499262174,41.016557377049196
2.0285292670929658,36.016557377049196
2.029513034923758,7.016557377049196
2.03049680275455,-26.983442622950804
2.031480570585342,-41.983442622950804
2.032464338416134,-47.983442622950804
2.0334481062469254,-70.9834426229508
2.0344318740777174,-75.9834426229508
2.0354156419085094,-70.9834426229508
2.0363994097393014,-52.983442622950804
2.0373831775700935,-45.983442622950804
2.0383669454008855,-32.983442622950804
2.039350713231677,-6.983442622950804
2.040334481062469,24.016557377049196
2.041318248893261,40.016557377049196
2.042302016724053,46.016557377049196
2.043285784554845,71.0165573770492
2.0442695523856367,70.0165573770492
2.0452533202164287,61.016557377049196
2.0462370880472207,47.016557377049196
2.0472208558780127,46.016557377049196
2.0482046237088047,33.016557377049196
2.0491883915395968,2.016557377049196
2.0501721593703883,-27.983442622950804
2.0511559272011803,-39.983442622950804
2.0521396950319724,-46.983442622950804
2.0531234628627644,-68.9834426229508
2.0541072306935564,-68.9834426229508
2.055090998524348,-62.983442622950804
2.05607476635514,-47.983442622950804
2.057058534185932,-46.983442622950804
2.058042302016724,-35.983442622950804
2.059026069847516,-7.983442622950804
2.060009837678308,20.016557377049196
2.0609936055090996,36.016557377049196
2.0619773733398916,46.016557377049196
2.0629611411706836,65.0165573770492
2.0639449090014756,70.0165573770492
2.0649286768322677,64.0165573770492
2.0659124446630592,49.016557377049196
2.0668962124938512,43.016557377049196
2.0678799803246433,32.016557377049196
2.0688637481554353,4.016557377049196
2.0698475159862273,-27.983442622950804
2.070831283817019,-38.983442622950804
2.071815051647811,-38.983442622950804
2.072798819478603,-62.983442622950804
2.073782587309395,-68.9834426229508
2.074766355140187,-65.9834426229508
2.075750122970979,-48.983442622950804
2.0767338908017705,-44.983442622950804
2.0777176586325625,-34.983442622950804
2.0787014264633545,-7.983442622950804
2.0796851942941466,26.016557377049196
2.0806689621249386,40.016557377049196
2.08165272995573,47.016557377049196
2.082636497786522,70.0165573770492
2.083620265617314,69.0165573770492
2.084604033448106,63.016557377049196
2.085587801278898,45.016557377049196
2.08657156910969,45.016557377049196
2.087555336940482,31.016557377049196
2.088539104771274,8.016557377049196
2.089522872602066,-26.983442622950804
2.090506640432858,-39.983442622950804
2.09149040826365,-43.983442622950804
2.0924741760944414,-63.983442622950804
2.0934579439252334,-63.983442622950804
2.0944417117560254,-60.983442622950804
2.0954254795868175,-46.983442622950804
2.0964092474176095,-45.983442622950804
2.097393015248401,-34.983442622950804
2.098376783079193,-6.983442622950804
2.099360550909985,22.016557377049196
2.100344318740777,38.016557377049196
2.101328086571569,45.016557377049196
2.102311854402361,67.0165573770492
2.1032956222331527,72.0165573770492
2.1042793900639447,66.0165573770492
2.1052631578947367,53.016557377049196
2.1062469257255287,47.016557377049196
2.1072306935563208,39.016557377049196
2.1082144613871123,13.016557377049196
2.1091982292179043,-22.983442622950804
2.1101819970486964,-39.983442622950804
2.1111657648794884,-48.983442622950804
2.1121495327102804,-71.9834426229508
2.1131333005410724,-71.9834426229508
2.114117068371864,-64.9834426229508
2.115100836202656,-46.983442622950804
2.116084604033448,-43.983442622950804
2.11706837186424,-33.983442622950804
2.118052139695032,-11.983442622950804
2.1190359075258236,17.016557377049196
2.1200196753566156,31.016557377049196
2.1210034431874076,43.016557377049196
2.1219872110181996,68.0165573770492
2.1229709788489917,76.0165573770492
2.1239547466797837,69.0165573770492
2.1249385145105752,55.016557377049196
2.1259222823413673,49.016557377049196
2.1269060501721593,36.016557377049196
2.1278898180029513,7.016557377049196
2.1288735858337433,-26.983442622950804
2.129857353664535,-39.983442622950804
2.130841121495327,-49.983442622950804
2.131824889326119,-73.9834426229508
2.132808657156911,-73.9834426229508
2.133792424987703,-66.9834426229508
2.1347761928184945,-49.983442622950804
2.1357599606492865,-44.983442622950804
2.1367437284800785,-35.983442622950804
2.1377274963108706,-6.983442622950804
2.1387112641416626,22.016557377049196
2.1396950319724546,34.016557377049196
2.140678799803246,42.016557377049196
2.141662567634038,66.0165573770492
2.14264633546483,71.0165573770492
2.143630103295622,64.0165573770492
2.144613871126414,48.016557377049196
2.145597638957206,48.016557377049196
2.146581406787998,32.016557377049196
2.14756517461879,3.016557377049196
2.148548942449582,-26.983442622950804
2.149532710280374,-39.983442622950804
2.150516478111166,-46.983442622950804
2.1515002459419574,-66.9834426229508
2.1524840137727494,-71.9834426229508
2.1534677816035415,-64.9834426229508
2.1544515494343335,-49.983442622950804
2.1554353172651255,-44.983442622950804
2.156419085095917,-33.983442622950804
2.157402852926709,-2.983442622950804
2.158386620757501,29.016557377049196
2.159370388588293,39.016557377049196
2.160354156419085,48.016557377049196
2.1613379242498767,72.0165573770492
2.1623216920806687,75.0165573770492
2.1633054599114607,68.0165573770492
2.1642892277422527,53.016557377049196
2.1652729955730448,46.016557377049196
2.1662567634038368,31.016557377049196
2.1672405312346283,4.016557377049196
2.1682242990654204,-26.983442622950804
2.1692080668962124,-39.983442622950804
2.1701918347270044,-47.983442622950804
2.1711756025577964,-68.9834426229508
2.172159370388588,-71.9834426229508
2.17314313821938,-64.9834426229508
2.174126906050172,-49.983442622950804
2.175110673880964,-46.983442622950804
2.176094441711756,-33.983442622950804
2.177078209542548,-2.983442622950804
2.1780619773733396,24.016557377049196
2.1790457452041316,37.016557377049196
2.1800295130349236,46.016557377049196
2.1810132808657157,69.0165573770492
2.1819970486965077,72.0165573770492
2.1829808165272993,61.016557377049196
2.1839645843580913,44.016557377049196
2.1849483521888833,41.016557377049196
2.1859321200196753,32.016557377049196
2.1869158878504673,5.016557377049196
2.1878996556812593,-26.983442622950804
2.188883423512051,-36.983442622950804
2.189867191342843,-43.983442622950804
2.190850959173635,-66.9834426229508
2.191834727004427,-68.9834426229508
2.192818494835219,-64.9834426229508
2.1938022626660105,-46.983442622950804
2.1947860304968025,-45.983442622950804
2.1957697983275946,-34.983442622950804
2.1967535661583866,-3.983442622950804
2.1977373339891786,26.016557377049196
2.19872110181997,40.016557377049196
2.199704869650762,48.016557377049196
2.200688637481554,71.0165573770492
2.201672405312346,74.0165573770492
2.202656173143138,65.0165573770492
2.2036399409739302,47.016557377049196
2.204623708804722,45.016557377049196
2.205607476635514,30.016557377049196
2.206591244466306,1.016557377049196
2.207575012297098,-29.983442622950804
2.20855878012789,-40.983442622950804
2.2095425479586814,-47.983442622950804
2.2105263157894735,-67.9834426229508
2.2115100836202655,-66.9834426229508
2.2124938514510575,-59.983442622950804
2.2134776192818495,-43.983442622950804
2.2144613871126415,-43.983442622950804
2.215445154943433,-32.983442622950804
2.216428922774225,-6.983442622950804
2.217412690605017,20.016557377049196
2.218396458435809,35.016557377049196
2.219380226266601,49.016557377049196
2.2203639940973927,71.0165573770492
2.2213477619281847,72.0165573770492
2.2223315297589767,61.016557377049196
2.2233152975897688,43.016557377049196
2.2242990654205608,44.016557377049196
2.225282833251353,32.016557377049196
2.2262666010821444,9.016557377049196
2.2272503689129364,-23.983442622950804
2.2282341367437284,-32.983442622950804
2.2292179045745204,-44.983442622950804
2.2302016724053124,-72.9834426229508
2.231185440236104,-73.9834426229508
2.232169208066896,-66.9834426229508
2.233152975897688,-48.983442622950804
2.23413674372848,-45.983442622950804
2.235120511559272,-33.983442622950804
2.2361042793900636,-2.983442622950804
2.2370880472208556,27.016557377049196
2.2380718150516477,37.016557377049196
2.2390555828824397,47.016557377049196
2.2400393507132317,71.0165573770492
2.2410231185440237,69.0165573770492
2.2420068863748153,64.0165573770492
2.2429906542056073,45.016557377049196
2.2439744220363993,44.016557377049196
2.2449581898671913,33.016557377049196
2.2459419576979833,4.016557377049196
2.246925725528775,-24.983442622950804
2.247909493359567,-37.983442622950804
2.248893261190359,-49.983442622950804
2.249877029021151,-72.9834426229508
2.250860796851943,-73.9834426229508
2.251844564682735,-65.9834426229508
2.2528283325135265,-44.983442622950804
2.2538121003443186,-45.983442622950804
2.2547958681751106,-31.983442622950804
2.2557796360059026,-4.983442622950804
2.2567634038366946,24.016557377049196
2.257747171667486,38.016557377049196
2.258730939498278,49.016557377049196
2.25971470732907,70.0165573770492
2.260698475159862,75.0165573770492
2.2616822429906542,62.016557377049196
2.262666010821446,50.016557377049196
2.263649778652238,50.016557377049196
2.26463354648303,34.016557377049196
2.265617314313822,8.016557377049196
2.266601082144614,-20.983442622950804
2.267584849975406,-38.983442622950804
2.2685686178061975,-48.983442622950804
2.2695523856369895,-70.9834426229508
2.2705361534677815,-73.9834426229508
2.2715199212985735,-65.9834426229508
2.2725036891293655,-48.983442622950804
2.273487456960157,-44.983442622950804
2.274471224790949,-31.983442622950804
2.275454992621741,-3.983442622950804
2.276438760452533,26.016557377049196
2.277422528283325,38.016557377049196
2.278406296114117,51.016557377049196
2.2793900639449087,68.0165573770492
2.2803738317757007,73.0165573770492
2.2813575996064928,64.0165573770492
2.2823413674372848,45.016557377049196
2.283325135268077,40.016557377049196
2.2843089030988684,31.016557377049196
2.2852926709296604,4.016557377049196
2.2862764387604524,-27.983442622950804
2.2872602065912444,-33.983442622950804
2.2882439744220364,-45.983442622950804
2.2892277422528284,-65.9834426229508
2.29021151008362,-71.9834426229508
2.291195277914412,-64.9834426229508
2.292179045745204,-51.983442622950804
2.293162813575996,-47.983442622950804
2.294146581406788,-34.983442622950804
2.2951303492375796,-6.983442622950804
2.2961141170683717,21.016557377049196
2.2970978848991637,38.016557377049196
2.2980816527299557,51.016557377049196
2.2990654205607477,69.0165573770492
2.3000491883915393,75.0165573770492
2.3010329562223313,64.0165573770492
2.3020167240531233,45.016557377049196
2.3030004918839153,44.016557377049196
2.3039842597147073,31.016557377049196
2.3049680275454993,6.016557377049196
2.305951795376291,-22.983442622950804
2.306935563207083,-34.983442622950804
2.307919331037875,-46.983442622950804
2.308903098868667,-68.9834426229508
2.309886866699459,-71.9834426229508
2.3108706345302505,-64.9834426229508
2.3118544023610426,-46.983442622950804
2.3128381701918346,-43.983442622950804
2.3138219380226266,-31.983442622950804
2.3148057058534186,0.01655737704919602
2.3157894736842106,29.016557377049196
2.316773241515002,38.016557377049196
2.317757009345794,47.016557377049196
2.318740777176586,68.0165573770492
2.3197245450073782,72.0165573770492
2.3207083128381703,65.0165573770492
2.321692080668962,46.016557377049196
2.322675848499754,47.016557377049196
2.323659616330546,35.016557377049196
2.324643384161338,5.016557377049196
2.32562715199213,-26.983442622950804
2.3266109198229215,-36.983442622950804
2.3275946876537135,-48.983442622950804
2.3285784554845055,-71.9834426229508
2.3295622233152975,-71.9834426229508
2.3305459911460895,-59.983442622950804
2.3315297589768815,-44.983442622950804
2.332513526807673,-45.983442622950804
2.333497294638465,-30.983442622950804
2.334481062469257,-2.983442622950804
2.335464830300049,27.016557377049196
2.336448598130841,34.016557377049196
2.3374323659616327,49.016557377049196
2.3384161337924247,71.0165573770492
2.3393999016232168,74.0165573770492
2.3403836694540088,66.0165573770492
2.341367437284801,47.016557377049196
2.342351205115593,47.016557377049196
2.3433349729463844,33.016557377049196
2.3443187407771764,4.016557377049196
2.3453025086079684,-26.983442622950804
2.3462862764387604,-39.983442622950804
2.3472700442695524,-46.983442622950804
2.348253812100344,-67.9834426229508
2.349237579931136,-69.9834426229508
2.350221347761928,-63.983442622950804
2.35120511559272,-47.983442622950804
2.352188883423512,-44.983442622950804
2.353172651254304,-34.983442622950804
2.3541564190850957,-3.983442622950804
2.3551401869158877,24.016557377049196
2.3561239547466797,35.016557377049196
2.3571077225774717,50.016557377049196
2.3580914904082637,68.0165573770492
2.3590752582390553,71.0165573770492
2.3600590260698473,59.016557377049196
2.3610427939006393,45.016557377049196
2.3620265617314313,45.016557377049196
2.3630103295622233,32.016557377049196
2.363994097393015,4.016557377049196
2.364977865223807,-21.983442622950804
2.365961633054599,-34.983442622950804
2.366945400885391,-44.983442622950804
2.367929168716183,-68.9834426229508
2.368912936546975,-73.9834426229508
2.3698967043777666,-60.983442622950804
2.3708804722085586,-47.983442622950804
2.3718642400393506,-44.983442622950804
2.3728480078701426,-29.983442622950804
2.3738317757009346,-4.983442622950804
2.374815543531726,27.016557377049196
2.375799311362518,37.016557377049196
2.37678307919331,52.016557377049196
2.3777668470241022,75.0165573770492
2.3787506148548943,75.0165573770492
2.3797343826856863,65.0165573770492
2.380718150516478,47.016557377049196
2.38170191834727,48.016557377049196
2.382685686178062,34.016557377049196
2.383669454008854,1.016557377049196
2.384653221839646,-27.983442622950804
2.3856369896704375,-37.983442622950804
2.3866207575012295,-49.983442622950804
2.3876045253320215,-68.9834426229508
2.3885882931628135,-74.9834426229508
2.3895720609936055,-65.9834426229508
2.390555828824397,-49.983442622950804
2.391539596655189,-50.983442622950804
2.392523364485981,-38.983442622950804
2.393507132316773,-3.983442622950804
2.394490900147565,25.016557377049196
2.395474667978357,37.016557377049196
2.3964584358091487,53.016557377049196
2.3974422036399408,72.0165573770492
2.3984259714707328,73.0165573770492
2.399409739301525,64.0165573770492
2.400393507132317,44.016557377049196
2.4013772749631084,41.016557377049196
2.4023610427939004,29.016557377049196
2.4033448106246924,2.016557377049196
2.4043285784554844,-27.983442622950804
2.4053123462862764,-38.983442622950804
2.4062961141170685,-47.983442622950804
2.40727988194786,-68.9834426229508
2.408263649778652,-70.9834426229508
2.409247417609444,-63.983442622950804
2.410231185440236,-45.983442622950804
2.411214953271028,-44.983442622950804
2.4121987211018197,-30.983442622950804
2.4131824889326117,-3.983442622950804
2.4141662567634037,26.016557377049196
2.4151500245941957,35.016557377049196
2.4161337924249877,52.016557377049196
2.4171175602557797,70.0165573770492
2.4181013280865713,73.0165573770492
2.4190850959173633,64.0165573770492
2.4200688637481553,45.016557377049196
2.4210526315789473,44.016557377049196
2.4220363994097394,32.016557377049196
2.423020167240531,4.016557377049196
2.424003935071323,-29.983442622950804
2.424987702902115,-38.983442622950804
2.425971470732907,-52.983442622950804
2.426955238563699,-68.9834426229508
2.4279390063944906,-66.9834426229508
2.4289227742252826,-59.983442622950804
2.4299065420560746,-51.983442622950804
2.4308903098868666,-48.983442622950804
2.4318740777176586,-34.983442622950804
2.4328578455484506,-2.983442622950804
2.433841613379242,26.016557377049196
2.4348253812100342,37.016557377049196
2.4358091490408262,47.016557377049196
2.4367929168716183,68.0165573770492
2.4377766847024103,70.0165573770492
2.438760452533202,62.016557377049196
2.439744220363994,45.016557377049196
2.440727988194786,45.016557377049196
2.441711756025578,30.016557377049196
2.44269552385637,1.016557377049196
2.443679291687162,-24.983442622950804
2.4446630595179535,-30.983442622950804
2.4456468273487455,-42.983442622950804
2.4466305951795375,-62.983442622950804
2.4476143630103295,-67.9834426229508
2.4485981308411215,-60.983442622950804
2.449581898671913,-46.983442622950804
2.450565666502705,-46.983442622950804
2.451549434333497,-29.983442622950804
2.452533202164289,1.016557377049196
2.453516969995081,30.016557377049196
2.4545007378258727,40.016557377049196
2.4554845056566648,48.016557377049196
2.4564682734874568,66.0165573770492
2.457452041318249,66.0165573770492
2.458435809149041,60.016557377049196
2.459419576979833,46.016557377049196
2.4604033448106244,46.016557377049196
2.4613871126414164,29.016557377049196
2.4623708804722084,1.016557377049196
2.4633546483030004,-26.983442622950804
2.4643384161337925,-41.983442622950804
2.465322183964584,-51.983442622950804
2.466305951795376,-66.9834426229508
2.467289719626168,-63.983442622950804
2.46827348745696,-57.983442622950804
2.469257255287752,-48.983442622950804
2.470241023118544,-46.983442622950804
2.4712247909493357,-31.983442622950804
2.4722085587801277,1.016557377049196
2.4731923266109197,27.016557377049196
2.4741760944417117,34.016557377049196
2.4751598622725037,46.016557377049196
2.4761436301032953,70.0165573770492
2.4771273979340873,75.0165573770492
2.4781111657648793,68.0165573770492
2.4790949335956713,56.016557377049196
2.4800787014264634,53.016557377049196
2.4810624692572554,31.016557377049196
2.482046237088047,-4.983442622950804
2.483030004918839,-33.983442622950804
2.484013772749631,-43.983442622950804
2.484997540580423,-53.983442622950804
2.485981308411215,-65.9834426229508
2.4869650762420066,-63.983442622950804
2.4879488440727986,-56.983442622950804
2.4889326119035906,-42.983442622950804
2.4899163797343826,-43.983442622950804
2.4909001475651746,-27.983442622950804
2.491883915395966,7.016557377049196
2.4928676832267582,32.016557377049196
2.4938514510575502,35.016557377049196
2.4948352188883423,48.016557377049196
2.4958189867191343,64.0165573770492
2.4968027545499263,63.016557377049196
2.497786522380718,59.016557377049196
2.49877029021151,44.016557377049196
2.499754058042302,40.016557377049196
2.500737825873094,28.016557377049196
2.501721593703886,2.016557377049196
2.5027053615346775,-25.983442622950804
2.5036891293654695,-35.983442622950804
2.5046728971962615,-49.983442622950804
2.5056566650270535,-68.9834426229508
2.5066404328578455,-70.9834426229508
2.5076242006886376,-61.983442622950804
2.508607968519429,-46.983442622950804
2.509591736350221,-44.983442622950804
2.510575504181013,-34.983442622950804
2.511559272011805,-4.983442622950804
2.512543039842597,22.016557377049196
2.5135268076733888,34.016557377049196
2.514510575504181,46.016557377049196
2.515494343334973,64.0165573770492
2.516478111165765,68.0165573770492
2.517461878996557,58.016557377049196
2.518445646827349,43.016557377049196
2.5194294146581404,45.016557377049196
2.5204131824889324,27.016557377049196
2.5213969503197244,1.016557377049196
2.5223807181505165,-24.983442622950804
2.5233644859813085,-34.983442622950804
2.5243482538121,-47.983442622950804
2.525332021642892,-62.983442622950804
2.526315789473684,-64.9834426229508
2.527299557304476,-54.983442622950804
2.528283325135268,-43.983442622950804
2.5292670929660597,-44.983442622950804
2.5302508607968517,-32.983442622950804
2.5312346286276437,-2.983442622950804
2.5322183964584357,24.016557377049196
2.5332021642892277,36.016557377049196
2.5341859321200197,52.016557377049196
2.5351696999508113,67.0165573770492
2.5361534677816033,69.0165573770492
2.5371372356123953,61.016557377049196
2.5381210034431874,44.016557377049196
2.5391047712739794,42.016557377049196
2.540088539104771,28.016557377049196
2.541072306935563,0.01655737704919602
2.542056074766355,-30.983442622950804
2.543039842597147,-36.983442622950804
2.544023610427939,-51.983442622950804
2.545007378258731,-74.9834426229508
2.5459911460895226,-73.9834426229508
2.5469749139203146,-59.983442622950804
2.5479586817511066,-43.983442622950804
2.5489424495818986,-44.983442622950804
2.5499262174126907,-30.983442622950804
2.5509099852434822,1.016557377049196
2.5518937530742742,34.016557377049196
2.5528775209050663,42.016557377049196
2.5538612887358583,56.016557377049196
2.5548450565666503,72.0165573770492
2.555828824397442,68.0165573770492
2.556812592228234,62.016557377049196
2.557796360059026,47.016557377049196
2.558780127889818,45.016557377049196
2.55976389572061,30.016557377049196
2.560747663551402,3.016557377049196
2.5617314313821935,-25.983442622950804
2.5627151992129855,-39.983442622950804
2.5636989670437775,-53.983442622950804
2.5646827348745695,-72.9834426229508
2.5656665027053616,-74.9834426229508
2.566650270536153,-64.9834426229508
2.567634038366945,-47.983442622950804
2.568617806197737,-45.983442622950804
2.569601574028529,-27.983442622950804
2.570585341859321,2.016557377049196
2.571569109690113,28.016557377049196
2.572552877520905,37.016557377049196
2.573536645351697,53.016557377049196
2.574520413182489,72.0165573770492
2.575504181013281,73.0165573770492
2.576487948844073,61.016557377049196
2.5774717166748644,44.016557377049196
2.5784554845056564,41.016557377049196
2.5794392523364484,27.016557377049196
2.5804230201672405,-1.983442622950804
2.5814067879980325,-30.983442622950804
2.5823905558288245,-37.983442622950804
2.583374323659616,-49.983442622950804
2.584358091490408,-68.9834426229508
2.5853418593212,-70.9834426229508
2.586325627151992,-62.983442622950804
2.587309394982784,-45.983442622950804
2.5882931628135757,-43.983442622950804
2.5892769306443677,-31.983442622950804
2.5902606984751597,-0.983442622950804
2.5912444663059517,30.016557377049196
2.5922282341367437,35.016557377049196
2.5932120019675353,50.016557377049196
2.5941957697983273,67.0165573770492
2.5951795376291193,70.0165573770492
2.5961633054599114,61.016557377049196
2.5971470732907034,46.016557377049196
2.5981308411214954,43.016557377049196
2.599114608952287,26.016557377049196
2.600098376783079,-2.983442622950804
2.601082144613871,-32.983442622950804
2.602065912444663,-41.983442622950804
2.603049680275455,-54.983442622950804
2.6040334481062466,-67.9834426229508
2.6050172159370386,-67.9834426229508
2.6060009837678306,-56.983442622950804
2.6069847515986226,-46.983442622950804
2.6079685194294147,-46.983442622950804
2.6089522872602067,-28.983442622950804
2.6099360550909982,5.016557377049196
2.6109198229217903,35.016557377049196
2.6119035907525823,45.016557377049196
2.6128873585833743,56.016557377049196
2.6138711264141663,68.0165573770492
2.614854894244958,69.0165573770492
2.61583866207575,67.0165573770492
2.616822429906542,51.016557377049196
2.617806197737334,51.016557377049196
2.618789965568126,33.016557377049196
2.6197737333989175,0.01655737704919602
2.6207575012297095,-30.983442622950804
2.6217412690605015,-36.983442622950804
2.6227250368912935,-53.983442622950804
2.6237088047220856,-72.9834426229508
2.6246925725528776,-71.9834426229508
2.625676340383669,-61.983442622950804
2.626660108214461,-47.983442622950804
2.627643876045253,-49.983442622950804
2.628627643876045,-35.983442622950804
2.629611411706837,-3.983442622950804
2.630595179537629,20.016557377049196
2.631578947368421,31.016557377049196
2.632562715199213,52.016557377049196
2.633546483030005,71.0165573770492
2.634530250860797,75.0165573770492
2.635514018691589,62.016557377049196
2.6364977865223804,50.016557377049196
2.6374815543531724,47.016557377049196
2.6384653221839645,33.016557377049196
2.6394490900147565,6.016557377049196
2.6404328578455485,-25.983442622950804
2.64141662567634,-31.983442622950804
2.642400393507132,-48.983442622950804
2.643384161337924,-69.9834426229508
2.644367929168716,-73.9834426229508
2.645351696999508,-62.983442622950804
2.6463354648303,-48.983442622950804
2.6473192326610917,-44.983442622950804
2.6483030004918837,-29.983442622950804
2.6492867683226757,-0.983442622950804
2.6502705361534677,25.016557377049196
2.6512543039842598,38.016557377049196
2.6522380718150513,58.016557377049196
2.6532218396458433,70.0165573770492
2.6542056074766354,64.0165573770492
2.6551893753074274,59.016557377049196
2.6561731431382194,52.016557377049196
2.657156910969011,43.016557377049196
2.658140678799803,29.016557377049196
2.659124446630595,-2.983442622950804
2.660108214461387,-39.983442622950804
2.661091982292179,-44.983442622950804
2.662075750122971,-52.983442622950804
2.6630595179537626,-59.983442622950804
2.6640432857845546,-60.983442622950804
2.6650270536153466,-58.983442622950804
2.6660108214461387,-51.983442622950804
2.6669945892769307,-57.983442622950804
2.6679783571077222,-38.983442622950804
2.6689621249385143,-2.983442622950804
2.6699458927693063,39.016557377049196
2.6709296606000983,69.0165573770492
2.6719134284308903,77.0165573770492
2.6728971962616823,84.0165573770492
2.673880964092474,77.0165573770492
2.674864731923266,51.016557377049196
2.675848499754058,27.016557377049196
2.67683226758485,33.016557377049196
2.677816035415642,29.016557377049196
2.6787998032464335,-4.983442622950804
2.6797835710772255,-42.983442622950804
2.6807673389080175,-49.983442622950804
2.6817511067388096,-53.983442622950804
2.6827348745696016,-76.9834426229508
2.683718642400393,-60.983442622950804
2.684702410231185,-53.983442622950804
2.685686178061977,-47.983442622950804
2.686669945892769,-64.9834426229508
2.687653713723561,-39.983442622950804
2.6886374815543532,-5.983442622950804
2.689621249385145,11.016557377049196
2.690605017215937,32.016557377049196
2.691588785046729,66.0165573770492
2.692572552877521,98.0165573770492
2.693556320708313,94.0165573770492
2.6945400885391044,69.0165573770492
2.6955238563698964,58.016557377049196
2.6965076242006885,75.0165573770492
2.6974913920314805,38.016557377049196
2.6984751598622725,10.016557377049196
2.6994589276930645,-30.983442622950804
2.700442695523856,-81.9834426229508
2.701426463354648,-96.9834426229508
2.70241023118544,-89.9834426229508
2.703393999016232,-76.9834426229508
2.704377766847024,-62.983442622950804
2.7053615346778157,-18.983442622950804
2.7063453025086077,-6.983442622950804
2.7073290703393997,-1.983442622950804
2.7083128381701917,16.016557377049196
2.7092966060009838,24.016557377049196
2.710280373831776,23.016557377049196
2.7112641416625674,12.016557377049196
2.7122479094933594,38.016557377049196
2.7132316773241514,55.016557377049196
2.7142154451549434,65.0165573770492
2.7151992129857354,52.016557377049196
2.716182980816527,43.016557377049196
2.717166748647319,29.016557377049196
2.718150516478111,28.016557377049196
2.719134284308903,12.016557377049196
2.720118052139695,11.016557377049196
2.7211018199704866,-22.983442622950804
2.7220855878012786,-69.9834426229508
2.7230693556320706,-94.9834426229508
2.7240531234628627,-93.9834426229508
2.7250368912936547,-60.983442622950804
2.7260206591244467,-46.983442622950804
2.7270044269552383,-22.983442622950804
2.7279881947860303,6.016557377049196
2.7289719626168223,29.016557377049196
2.7299557304476143,21.016557377049196
2.7309394982784063,71.0165573770492
2.731923266109198,101.0165573770492
2.73290703393999,29.016557377049196
2.733890801770782,4.016557377049196
2.734874569601574,48.016557377049196
2.735858337432366,56.016557377049196
2.736842105263158,42.016557377049196
2.7378258730939495,-42.983442622950804
2.7388096409247416,-84.9834426229508
2.7397934087555336,-26.983442622950804
2.7407771765863256,-71.9834426229508
2.7417609444171176,-70.9834426229508
2.742744712247909,-30.983442622950804
2.743728480078701,-14.983442622950804
2.744712247909493,22.016557377049196
2.745696015740285,-34.983442622950804
2.7466797835710772,-150.9834426229508
2.747663551401869,-185.9834426229508
2.748647319232661,-65.9834426229508
2.749631087063453,99.0165573770492
2.750614854894245,212.0165573770492
2.751598622725037,226.0165573770492
2.752582390555829,132.0165573770492
2.7535661583866204,97.0165573770492
2.7545499262174125,62.016557377049196
2.7555336940482045,-20.983442622950804
2.7565174618789965,-49.983442622950804
2.7575012297097885,-21.983442622950804
2.75848499754058,-15.983442622950804
2.759468765371372,19.016557377049196
2.760452533202164,64.0165573770492
2.761436301032956,-113.9834426229508
2.762420068863748,-306.9834426229508
2.76340383669454,-280.9834426229508
2.7643876045253317,-40.983442622950804
2.7653713723561237,111.0165573770492
2.7663551401869158,178.0165573770492
2.7673389080177078,23.016557377049196
2.7683226758485,4.016557377049196
2.7693064436792914,-28.983442622950804
2.7702902115100834,11.016557377049196
2.7712739793408754,-57.983442622950804
2.7722577471716674,-37.983442622950804
2.7732415150024594,14.016557377049196
2.7742252828332514,112.0165573770492
2.775209050664043,140.0165573770492
2.776192818494835,136.0165573770492
2.777176586325627,77.0165573770492
2.778160354156419,37.016557377049196
2.779144121987211,-68.9834426229508
2.7801278898180026,-161.9834426229508
2.7811116576487946,-179.9834426229508
2.7820954254795867,-154.9834426229508
2.7830791933103787,-84.9834426229508
2.7840629611411707,1.016557377049196
2.7850467289719623,39.016557377049196
2.7860304968027543,22.016557377049196
2.7870142646335463,-18.983442622950804
2.7879980324643383,1.016557377049196
2.7889818002951303,7.016557377049196
2.7899655681259223,-24.983442622950804
2.790949335956714,-62.983442622950804
2.791933103787506,212.0165573770492
2.792916871618298,309.0165573770492
2.79390063944909,228.0165573770492
2.794884407279882,67.0165573770492
2.7958681751106735,-102.9834426229508
2.7968519429414656,-127.9834426229508
2.7978357107722576,-118.9834426229508
2.7988194786030496,-79.9834426229508
2.7998032464338416,-27.983442622950804
2.8007870142646336,11.016557377049196
2.801770782095425,-17.983442622950804
2.802754549926217,-205.9834426229508
2.803738317757009,-206.9834426229508
2.8047220855878012,-74.9834426229508
2.8057058534185932,-7.983442622950804
2.806689621249385,-3.983442622950804
2.807673389080177,13.016557377049196
2.808657156910969,19.016557377049196
2.809640924741761,56.016557377049196
2.810624692572553,-156.9834426229508
2.8116084604033444,-164.9834426229508
2.8125922282341365,41.016557377049196
2.8135759960649285,261.0165573770492
2.8145597638957205,200.0165573770492
2.8155435317265125,61.016557377049196
2.8165272995573045,-189.9834426229508
2.817511067388096,-167.9834426229508
2.818494835218888,95.0165573770492
2.81947860304968,186.0165573770492
2.820462370880472,0.01655737704919602
2.821446138711264,72.0165573770492
2.8224299065420557,126.0165573770492
2.8234136743728477,-43.983442622950804
2.8243974422036398,-135.9834426229508
2.8253812100344318,-30.983442622950804
2.826364977865224,-31.983442622950804
2.827348745696016,-47.983442622950804
2.8283325135268074,30.016557377049196
2.8293162813575994,60.016557377049196
2.8303000491883914,166.0165573770492
2.8312838170191834,248.0165573770492
2.8322675848499754,46.016557377049196
2.833251352680767,-87.9834426229508
2.834235120511559,-164.9834426229508
2.835218888342351,19.016557377049196
2.836202656173143,213.0165573770492
2.837186424003935,201.0165573770492
2.838170191834727,29.016557377049196
2.8391539596655186,-60.983442622950804
2.8401377274963107,-147.9834426229508
2.8411214953271027,-291.9834426229508
2.8421052631578947,-275.9834426229508
2.8430890309886867,-115.9834426229508
2.8440727988194783,17.016557377049196
2.8450565666502703,140.0165573770492
2.8460403344810623,101.0165573770492
2.8470241023118543,-63.983442622950804
2.8480078701426463,-20.983442622950804
2.848991637973438,25.016557377049196
2.84997540580423,-6.983442622950804
2.850959173635022,-137.9834426229508
2.851942941465814,-71.9834426229508
2.852926709296606,155.0165573770492
2.853910477127398,267.0165573770492
2.8548942449581896,221.0165573770492
2.8558780127889816,-125.9834426229508
2.8568617806197736,-91.9834426229508
2.8578455484505656,96.0165573770492
2.8588293162813576,19.016557377049196
2.859813084112149,45.016557377049196
2.860796851942941,-28.983442622950804
2.861780619773733,-83.9834426229508
2.8627643876045252,-159.9834426229508
2.8637481554353172,-47.983442622950804
2.8647319232661093,44.016557377049196
2.865715691096901,37.016557377049196
2.866699458927693,-98.9834426229508
2.867683226758485,-69.9834426229508
2.868666994589277,193.0165573770492
2.869650762420069,139.0165573770492
2.8706345302508605,72.0165573770492
2.8716182980816525,-31.983442622950804
2.8726020659124445,126.0165573770492
2.8735858337432365,133.0165573770492
2.8745696015740285,-93.9834426229508
2.8755533694048205,-147.9834426229508
2.876537137235612,31.016557377049196
2.877520905066404,268.0165573770492
2.878504672897196,185.0165573770492
2.879488440727988,-142.9834426229508
2.88047220855878,-139.9834426229508
2.8814559763895717,-116.9834426229508
2.8824397442203638,-243.9834426229508
2.8834235120511558,-166.9834426229508
2.884407279881948,-112.9834426229508
2.88539104771274,-27.983442622950804
2.8863748155435314,184.0165573770492
2.8873585833743234,296.0165573770492
2.8883423512051154,243.0165573770492
2.8893261190359074,38.016557377049196
2.8903098868666994,-65.9834426229508
2.8912936546974914,-24.983442622950804
2.892277422528283,100.0165573770492
2.893261190359075,133.0165573770492
2.894244958189867,-31.983442622950804
2.895228726020659,-121.9834426229508
2.896212493851451,-75.9834426229508
2.8971962616822426,-124.9834426229508
2.8981800295130347,-164.9834426229508
2.8991637973438267,38.016557377049196
2.9001475651746187,21.016557377049196
2.9011313330054107,-167.9834426229508
2.9021151008362027,-178.9834426229508
2.9030988686669943,67.0165573770492
2.9040826364977863,76.0165573770492
2.9050664043285783,33.016557377049196
2.9060501721593703,39.016557377049196
2.9070339399901624,-99.9834426229508
2.908017707820954,-119.9834426229508
2.909001475651746,-127.9834426229508
2.909985243482538,-168.9834426229508
2.91096901131333,-32.983442622950804
2.911952779144122,188.0165573770492
2.9129365469749136,251.0165573770492
2.9139203148057056,452.0165573770492
2.9149040826364976,278.0165573770492
2.9158878504672896,69.0165573770492
2.9168716182980816,-77.9834426229508
2.9178553861288736,-262.9834426229508
2.918839153959665,-188.9834426229508
2.919822921790457,-85.9834426229508
2.9208066896212492,-114.9834426229508
2.9217904574520412,-254.9834426229508
2.9227742252828333,25.016557377049196
2.923757993113625,305.0165573770492
2.924741760944417,111.0165573770492
2.925725528775209,-194.9834426229508
2.926709296606001,-248.9834426229508
2.927693064436793,13.016557377049196
2.928676832267585,97.0165573770492
2.9296606000983765,-28.983442622950804
2.9306443679291685,-104.9834426229508
2.9316281357599605,67.0165573770492
2.9326119035907525,76.0165573770492
2.9335956714215445,148.0165573770492
2.934579439252336,-39.983442622950804
2.935563207083128,-63.983442622950804
2.93654697491392,-133.9834426229508
2.937530742744712,-18.983442622950804
2.938514510575504,141.0165573770492
2.939498278406296,-222.9834426229508
2.9404820462370878,-260.9834426229508
2.9414658140678798,-343.9834426229508
2.942449581898672,-272.9834426229508
2.943433349729464,-76.9834426229508
2.944417117560256,38.016557377049196
2.9454008853910474,-94.9834426229508
2.9463846532218394,-99.9834426229508
2.9473684210526314,-163.9834426229508
2.9483521888834234,-231.9834426229508
2.9493359567142154,-207.9834426229508
2.950319724545007,-152.9834426229508
2.951303492375799,-379.9834426229508
2.952287260206591,-347.9834426229508
2.953271028037383,-215.9834426229508
2.954254795868175,-239.9834426229508
2.955238563698967,-289.9834426229508
2.9562223315297587,-341.9834426229508
2.9572060993605507,-313.9834426229508
2.9581898671913427,46.016557377049196
2.9591736350221347,42.016557377049196
2.9601574028529267,-85.9834426229508
2.9611411706837183,-23.983442622950804
2.9621249385145103,81.0165573770492
2.9631087063453023,118.0165573770492
2.9640924741760943,-17.983442622950804
2.9650762420068864,68.0165573770492
2.9660600098376784,265.0165573770492
2.96704377766847,164.0165573770492
2.968027545499262,279.0165573770492
2.969011313330054,149.0165573770492
2.969995081160846,121.0165573770492
2.970978848991638,153.0165573770492
2.9719626168224296,240.0165573770492
2.9729463846532216,143.0165573770492
2.9739301524840136,85.0165573770492
2.9749139203148056,42.016557377049196
2.9758976881455976,22.016557377049196
2.976881455976389,78.0165573770492
2.977865223807181,-31.983442622950804
2.9788489916379732,-131.9834426229508
2.9798327594687652,-119.9834426229508
2.9808165272995573,-127.9834426229508
2.9818002951303493,-6.983442622950804
2.982784062961141,152.0165573770492
2.983767830791933,111.0165573770492
2.984751598622725,54.016557377049196
2.985735366453517,1.016557377049196
2.986719134284309,41.016557377049196
2.9877029021151005,-59.983442622950804
2.9886866699458925,-166.9834426229508
2.9896704377766845,-30.983442622950804
2.9906542056074765,125.0165573770492
2.9916379734382685,309.0165573770492
2.9926217412690606,419.0165573770492
2.993605509099852,359.0165573770492
2.994589276930644,192.0165573770492
2.995573044761436,36.016557377049196
2.996556812592228,-145.9834426229508
2.99754058042302,-163.9834426229508
2.9985243482538118,-31.983442622950804
2.9995081160846038,48.016557377049196
3.000491883915396,-33.983442622950804
3.001475651746188,-107.9834426229508
3.00245941957698,70.0165573770492
3.003443187407772,3.016557377049196
3.0044269552385634,152.0165573770492
3.0054107230693554,122.0165573770492
3.0063944909001474,-4.983442622950804
3.0073782587309394,164.0165573770492
3.0083620265617315,139.0165573770492
3.009345794392523,21.016557377049196
3.010329562223315,-135.9834426229508
3.011313330054107,37.016557377049196
3.012297097884899,260.0165573770492
3.013280865715691,133.0165573770492
3.0142646335464827,225.0165573770492
3.0152484013772747,62.016557377049196
3.0162321692080667,-217.9834426229508
3.0172159370388587,-72.9834426229508
3.0181997048696507,116.0165573770492
3.0191834727004427,90.0165573770492
3.0201672405312343,19.016557377049196
3.0211510083620263,-131.9834426229508
3.0221347761928183,-81.9834426229508
3.0231185440236104,32.016557377049196
3.0241023118544024,-78.9834426229508
3.025086079685194,-43.983442622950804
3.026069847515986,45.016557377049196
3.027053615346778,150.0165573770492
3.02803738317757,185.0165573770492
3.029021151008362,81.0165573770492
3.030004918839154,188.0165573770492
3.0309886866699456,156.0165573770492
3.0319724545007376,257.0165573770492
3.0329562223315296,219.0165573770492
3.0339399901623216,41.016557377049196
3.0349237579931136,-81.9834426229508
3.035907525823905,-130.9834426229508
3.0368912936546972,-202.9834426229508
3.0378750614854892,-142.9834426229508
3.0388588293162813,7.016557377049196
3.0398425971470733,206.0165573770492
3.040826364977865,57.016557377049196
3.041810132808657,-386.9834426229508
3.042793900639449,-93.9834426229508
3.043777668470241,134.0165573770492
3.044761436301033,103.0165573770492
3.045745204131825,344.0165573770492
3.0467289719626165,217.0165573770492
3.0477127397934085,86.0165573770492
3.0486965076242005,137.0165573770492
3.0496802754549925,-4.983442622950804
3.0506640432857846,-30.983442622950804
3.051647811116576,-196.9834426229508
3.052631578947368,-240.9834426229508
3.05361534677816,12.016557377049196
3.054599114608952,132.0165573770492
3.055582882439744,29.016557377049196
3.056566650270536,-190.9834426229508
3.0575504181013278,-192.9834426229508
3.05853418593212,-62.983442622950804
3.059517953762912,223.0165573770492
3.060501721593704,127.0165573770492
3.061485489424496,-345.9834426229508
3.0624692572552874,-192.9834426229508
3.0634530250860794,70.0165573770492
3.0644367929168714,195.0165573770492
3.0654205607476634,248.0165573770492
3.0664043285784555,216.0165573770492
3.0673880964092475,254.0165573770492
3.068371864240039,89.0165573770492
3.069355632070831,-95.9834426229508
3.070339399901623,-108.9834426229508
3.071323167732415,-42.983442622950804
3.072306935563207,-100.9834426229508
3.0732907033939987,-171.9834426229508
3.0742744712247907,-212.9834426229508
3.0752582390555827,-181.9834426229508
3.0762420068863747,72.0165573770492
3.0772257747171667,61.016557377049196
3.0782095425479583,224.0165573770492
3.0791933103787503,109.0165573770492
3.0801770782095423,-8.983442622950804
3.0811608460403344,-111.9834426229508
3.0821446138711264,-40.983442622950804
3.0831283817019184,-16.983442622950804
3.08411214953271,-61.983442622950804
3.085095917363502,-96.9834426229508
3.086079685194294,9.016557377049196
3.087063453025086,-9.983442622950804
3.088047220855878,-97.9834426229508
3.0890309886866696,-16.983442622950804
3.0900147565174616,74.0165573770492
3.0909985243482536,-30.983442622950804
3.0919822921790456,-210.9834426229508
3.0929660600098376,120.0165573770492
3.0939498278406297,221.0165573770492
3.0949335956714212,152.0165573770492
3.0959173635022132,33.016557377049196
3.0969011313330053,-192.9834426229508
3.0978848991637973,-139.9834426229508
3.0988686669945893,-84.9834426229508
3.099852434825381,2.016557377049196
3.100836202656173,-18.983442622950804
3.101819970486965,-25.983442622950804
3.102803738317757,-60.983442622950804
3.103787506148549,-39.983442622950804
3.1047712739793405,-17.983442622950804
3.1057550418101325,241.0165573770492
3.1067388096409245,246.0165573770492
3.1077225774717165,111.0165573770492
3.1087063453025086,100.0165573770492
3.1096901131333006,17.016557377049196
3.110673880964092,13.016557377049196
3.111657648794884,-25.983442622950804
3.112641416625676,-107.9834426229508
3.113625184456468,-138.9834426229508
3.11460895228726,15.016557377049196
3.1155927201180518,101.0165573770492
3.116576487948844,-20.983442622950804
3.117560255779636,-249.9834426229508
3.118544023610428,-207.9834426229508
3.11952779144122,-8.983442622950804
3.120511559272012,51.016557377049196
3.1214953271028034,115.0165573770492
3.1224790949335954,113.0165573770492
3.1234628627643874,-48.983442622950804
3.1244466305951795,17.016557377049196
3.1254303984259715,98.0165573770492
3.126414166256763,30.016557377049196
3.127397934087555,44.016557377049196
3.128381701918347,129.0165573770492
3.129365469749139,187.0165573770492
3.130349237579931,13.016557377049196
3.131333005410723,-118.9834426229508
3.1323167732415147,-225.9834426229508
3.1333005410723067,-73.9834426229508
3.1342843089030987,20.016557377049196
