0,1,2,3,4,5,6,7,8,9,10,11,12,13,14,15,16,17,18,19,20,21,22,23,24,25,26,27,28,29,30,31,32,33,34,35,36,37,38,39,40,41,42,43,44,45,46,47,48,49,50,51,52,53,54,55,56,57,58,59,60,61,62,63,64,65,66,67,68,69,70,71,72,73,74,75,76,77,78,79,80,81,82,83,84,85,86,87,88,89,90,91,92,93,94,95,96,97,98,99,100,101,102,103,104,105,106,107,108,109,110,111,112,113,114,115,116,117,118,119,120,121,122,123,124,125,126,127,128,129,130,131,132,133,134,135,136,137,138,139,140,141,142,143,144,145,146,147,148,149,150,151,152,153,154,155,156,157,158,159,160,161,162,163,164,165,166,167,168,169,170,171,172,173,174,175,176,177,178,179,180,181,182,183,184,185,186,187,188,189,190,191,192,193,194,195,196,197,198,199,200,201,202,203,204,205,206,207,208,209,210,211,212,213,214,215,216,217,218,219,220,221,222,223,224,225,226,227,228,229,230,231,232,233,234,235,236,237,238,239,240,241,242,243,244,245,246,247,248,249,250,251,252,253,254,255,256,257,258,259,260,261,262,263,264,265,266,267,268,269,270,271,272,273,274,275,276,277,278,279,280,281,282,283,284,285,286,287,288,289,290,291,292,293,294,295,296,297,298,299,300,301,302,303,304,305,306,307,308,309,310,311,312,313,314,315,316,317,318,319,320,321,322,323,324,325,326,327,328,329,330,331,332,333,334,335,336,337,338,339,340,341,342,343,344,345,346,347,348,349,350,351,352,353,354,355,356,357,358,359,360,361,362,363,364,365,366,367,368,369,370,371,372,373,374,375,376,377,378,379,380,381,382,383,384,385,386,387,388,389,390,391,392,393,394,395,396,397,398,399,400,401,402,403,404,405,406,407,408,409,410,411,412,413,414,415,416,417,418,419,420,421,422,423,424,425,426,427,428,429,430,431,432,433,434,435,436,437,438,439,440,441,442,443,444,445,446,447,448,449,450,451,452,453,454,455,456,457,458,459,460,461,462,463,464,465,466,467,468,469,470,471,472,473,474,475,476,477,478,479,480,481,482,483,484,485,486,487,488,489,490,491,492,493,494,495,496,497,498,499,500,501,502,503,504,505,506,507,508,509,510,511
-2.991328903654505,-7.991328903654505,9.008671096345497,15.008671096345493,23.008671096345488,20.00867109634549,11.008671096345497,-7.991328903654505,-10.991328903654503,-13.991328903654507,-9.991328903654503,-9.991328903654503,-10.991328903654503,-16.991328903654505,-14.991328903654507,-4.991328903654505,5.008671096345495,11.008671096345497,23.008671096345488,13.008671096345493,-1.9913289036545048,-16.991328903654505,-14.991328903654507,-6.991328903654505,1.0086710963454948,17.008671096345495,19.00867109634549,34.00867109634549,39.008671096345495,26.008671096345488,27.008671096345488,33.00867109634549,22.00867109634549,8.008671096345495,-2.991328903654505,-28.991328903654505,-49.9913289036545,-60.9913289036545,-52.9913289036545,-38.991328903654505,-21.991328903654505,4.008671096345495,14.008671096345493,-7.991328903654505,-6.991328903654505,-10.991328903654503,-41.991328903654505,-23.991328903654505,33.00867109634549,55.0086710963455,44.008671096345495,62.0086710963455,93.0086710963455,28.008671096345488,-73.9913289036545,-108.9913289036545,-133.9913289036545,-129.9913289036545,-66.9913289036545,-9.991328903654503,41.008671096345495,143.0086710963455,193.0086710963455,204.0086710963455,185.0086710963455,102.0086710963455,12.008671096345493,-75.9913289036545,-143.9913289036545,-178.9913289036545,-150.9913289036545,-105.9913289036545,-20.991328903654505,24.008671096345488,8.008671096345495,23.008671096345488,2.008671096345495,-52.9913289036545,-45.9913289036545,83.0086710963455,184.0086710963455,212.0086710963455,148.0086710963455,30.008671096345488,-57.9913289036545,-118.9913289036545,-148.9913289036545,-109.9913289036545,-60.9913289036545,-14.991328903654507,53.0086710963455,87.0086710963455,133.0086710963455,86.0086710963455,-1.9913289036545048,-85.9913289036545,-134.9913289036545,-133.9913289036545,-121.9913289036545,-91.9913289036545,-30.991328903654505,26.008671096345488,88.0086710963455,159.0086710963455,156.0086710963455,91.0086710963455,54.0086710963455,-6.991328903654505,-67.9913289036545,-85.9913289036545,-66.9913289036545,-39.991328903654505,-3.991328903654505,34.00867109634549,52.0086710963455,48.0086710963455,42.008671096345495,10.008671096345497,-20.991328903654505,-24.991328903654505,-19.991328903654505,-15.991328903654507,-11.991328903654507,-4.991328903654505,0.008671096345494789,9.008671096345497,6.008671096345495,-5.991328903654505,1.0086710963454948,1.0086710963454948,-10.991328903654503,-7.991328903654505,-0.9913289036545052,18.008671096345495,23.008671096345488,13.008671096345493,12.008671096345493,-9.991328903654503,-23.991328903654505,-22.991328903654505,-7.991328903654505,-17.991328903654505,-17.991328903654505,-2.991328903654505,21.00867109634549,17.008671096345495,11.008671096345497,12.008671096345493,6.008671096345495,3.008671096345495,5.008671096345495,11.008671096345497,-15.991328903654507,-37.991328903654505,-26.991328903654505,-17.991328903654505,-27.991328903654505,-29.991328903654505,-26.991328903654505,-4.991328903654505,18.008671096345495,13.008671096345493,17.008671096345495,16.008671096345495,21.00867109634549,21.00867109634549,8.008671096345495,-13.991328903654507,-23.991328903654505,-23.991328903654505,-17.991328903654505,-14.991328903654507,-3.991328903654505,2.008671096345495,-18.991328903654505,-23.991328903654505,-3.991328903654505,-0.9913289036545052,14.008671096345493,46.0086710963455,36.008671096345495,6.008671096345495,-14.991328903654507,-29.991328903654505,-23.991328903654505,-10.991328903654503,44.008671096345495,93.0086710963455,69.0086710963455,21.00867109634549,-7.991328903654505,-18.991328903654505,-37.991328903654505,-39.991328903654505,-25.991328903654505,3.008671096345495,9.008671096345497,14.008671096345493,-2.991328903654505,-12.991328903654507,-18.991328903654505,-23.991328903654505,-10.991328903654503,9.008671096345497,30.008671096345488,36.008671096345495,26.008671096345488,33.00867109634549,37.008671096345495,5.008671096345495,-33.991328903654505,-14.991328903654507,-19.991328903654505,-28.991328903654505,-12.991328903654507,7.008671096345495,20.00867109634549,15.008671096345493,6.008671096345495,3.008671096345495,-1.9913289036545048,-2.991328903654505,8.008671096345495,11.008671096345497,16.008671096345495,16.008671096345495,8.008671096345495,5.008671096345495,2.008671096345495,-6.991328903654505,-11.991328903654507,-14.991328903654507,-20.991328903654505,-21.991328903654505,-10.991328903654503,1.0086710963454948,5.008671096345495,5.008671096345495,13.008671096345493,5.008671096345495,1.0086710963454948,-3.991328903654505,6.008671096345495,6.008671096345495,4.008671096345495,5.008671096345495,5.008671096345495,2.008671096345495,0.008671096345494789,-3.991328903654505,-3.991328903654505,-6.991328903654505,-11.991328903654507,-13.991328903654507,-13.991328903654507,-12.991328903654507,-8.991328903654507,-9.991328903654503,-5.991328903654505,-4.991328903654505,-3.991328903654505,-5.991328903654505,-2.991328903654505,-3.991328903654505,3.008671096345495,23.008671096345488,36.008671096345495,38.008671096345495,10.008671096345497,-10.991328903654503,-17.991328903654505,-5.991328903654505,-1.9913289036545048,-9.991328903654503,-17.991328903654505,-21.991328903654505,-14.991328903654507,-10.991328903654503,-9.991328903654503,-2.991328903654505,3.008671096345495,5.008671096345495,6.008671096345495,8.008671096345495,9.008671096345497,12.008671096345493,10.008671096345497,5.008671096345495,1.0086710963454948,-3.991328903654505,-8.991328903654507,-11.991328903654507,-13.991328903654507,-19.991328903654505,-20.991328903654505,-17.991328903654505,-5.991328903654505,15.008671096345493,25.008671096345488,14.008671096345493,11.008671096345497,16.008671096345495,11.008671096345497,14.008671096345493,15.008671096345493,7.008671096345495,4.008671096345495,5.008671096345495,0.008671096345494789,-8.991328903654507,-6.991328903654505,-7.991328903654505,-11.991328903654507,-12.991328903654507,-11.991328903654507,-9.991328903654503,-8.991328903654507,-3.991328903654505,-2.991328903654505,3.008671096345495,9.008671096345497,8.008671096345495,14.008671096345493,14.008671096345493,15.008671096345493,16.008671096345495,12.008671096345493,11.008671096345497,6.008671096345495,2.008671096345495,-0.9913289036545052,-2.991328903654505,-7.991328903654505,-7.991328903654505,-10.991328903654503,-9.991328903654503,-7.991328903654505,-4.991328903654505,-3.991328903654505,3.008671096345495,5.008671096345495,7.008671096345495,9.008671096345497,12.008671096345493,10.008671096345497,12.008671096345493,9.008671096345497,6.008671096345495,4.008671096345495,-2.991328903654505,-4.991328903654505,-5.991328903654505,-10.991328903654503,-13.991328903654507,-14.991328903654507,-14.991328903654507,-10.991328903654503,-8.991328903654507,-2.991328903654505,0.008671096345494789,1.0086710963454948,1.0086710963454948,8.008671096345495,6.008671096345495,8.008671096345495,9.008671096345497,5.008671096345495,2.008671096345495,-1.9913289036545048,-2.991328903654505,-4.991328903654505,-7.991328903654505,-10.991328903654503,-12.991328903654507,-12.991328903654507,-10.991328903654503,-8.991328903654507,-8.991328903654507,-4.991328903654505,-2.991328903654505,1.0086710963454948,4.008671096345495,8.008671096345495,10.008671096345497,8.008671096345495,11.008671096345497,9.008671096345497,8.008671096345495,2.008671096345495,0.008671096345494789,-1.9913289036545048,-3.991328903654505,-10.991328903654503,-10.991328903654503,-10.991328903654503,-8.991328903654507,-7.991328903654505,-2.991328903654505,-3.991328903654505,-0.9913289036545052,4.008671096345495,5.008671096345495,8.008671096345495,11.008671096345497,9.008671096345497,12.008671096345493,8.008671096345495,7.008671096345495,5.008671096345495,2.008671096345495,-1.9913289036545048,-5.991328903654505,-6.991328903654505,-10.991328903654503,-13.991328903654507,-13.991328903654507,-8.991328903654507,-5.991328903654505,-3.991328903654505,2.008671096345495,4.008671096345495,5.008671096345495,9.008671096345497,10.008671096345497,12.008671096345493,10.008671096345497,8.008671096345495,7.008671096345495,5.008671096345495,0.008671096345494789,-2.991328903654505,-3.991328903654505,-10.991328903654503,-8.991328903654507,-11.991328903654507,-12.991328903654507,-8.991328903654507,-6.991328903654505,-3.991328903654505,3.008671096345495,5.008671096345495,3.008671096345495,9.008671096345497,11.008671096345497,11.008671096345497,11.008671096345497,10.008671096345497,7.008671096345495,4.008671096345495,1.0086710963454948,-2.991328903654505,-7.991328903654505,-7.991328903654505,-9.991328903654503,-9.991328903654503,-8.991328903654507,-9.991328903654503,-3.991328903654505,-2.991328903654505,2.008671096345495,7.008671096345495,5.008671096345495,9.008671096345497,12.008671096345493,10.008671096345497,10.008671096345497,6.008671096345495,6.008671096345495,1.0086710963454948,-2.991328903654505,-2.991328903654505,-5.991328903654505,-9.991328903654503,-9.991328903654503,-11.991328903654507,-10.991328903654503,-7.991328903654505,-2.991328903654505,-2.991328903654505,0.008671096345494789,0.008671096345494789,4.008671096345495,8.008671096345495,12.008671096345493,12.008671096345493,10.008671096345497,8.008671096345495,7.008671096345495,3.008671096345495,-0.9913289036545052,-0.9913289036545052,-5.991328903654505,-9.991328903654503,-10.991328903654503,-11.991328903654507,-10.991328903654503,-8.991328903654507,-5.991328903654505,-3.991328903654505,2.008671096345495,5.008671096345495,5.008671096345495,8.008671096345495,9.008671096345497,10.008671096345497,13.008671096345493,10.008671096345497,7.008671096345495,4.008671096345495,1.0086710963454948,-2.991328903654505,-4.991328903654505
1.0,1.0,1.0,1.0,1.0,1.0,1.0,1.0,1.0,1.0,1.0,1.0,1.0,1.0,1.0,1.0,1.0,1.0,1.0,1.0,1.0,1.0,1.0,1.0,1.0,1.0,1.0,1.0,1.0,1.0,1.0,1.0,1.0,1.0,1.0,1.0,1.0,1.0,1.0,1.0,1.0,1.0,1.0,1.0,1.0,1.0,1.0,1.0,1.0,1.0,1.0,1.0,1.0,1.0,1.0,1.0,1.0,1.0,1.0,1.0,1.0,1.0,1.0,1.0,1.0,1.0,1.0,1.0,1.0,1.0,1.0,1.0,1.0,1.0,1.0,1.0,1.0,1.0,1.0,1.0,1.0,1.0,1.0,1.0,1.0,1.0,1.0,1.0,1.0,1.0,1.0,1.0,1.0,1.0,1.0,1.0,1.0,1.0,1.0,1.0,1.0,1.0,1.0,1.0,1.0,1.0,1.0,1.0,1.0,1.0,1.0,1.0,1.0,1.0,1.0,1.0,1.0,1.0,1.0,1.0,1.0,1.0,1.0,1.0,1.0,1.0,1.0,1.0,1.0,1.0,1.0,1.0,1.0,1.0,1.0,1.0,1.0,1.0,1.0,1.0,1.0,1.0,1.0,1.0,1.0,1.0,1.0,1.0,1.0,1.0,1.0,1.0,1.0,1.0,1.0,1.0,1.0,1.0,1.0,1.0,1.0,1.0,1.0,1.0,1.0,1.0,1.0,1.0,1.0,1.0,1.0,1.0,1.0,1.0,1.0,1.0,1.0,1.0,1.0,1.0,1.0,1.0,1.0,1.0,1.0,1.0,1.0,1.0,1.0,1.0,1.0,1.0,1.0,1.0,1.0,1.0,1.0,1.0,1.0,1.0,1.0,1.0,1.0,1.0,1.0,1.0,1.0,1.0,1.0,1.0,1.0,1.0,1.0,1.0,1.0,1.0,1.0,1.0,1.0,1.0,1.0,1.0,1.0,1.0,1.0,1.0,1.0,1.0,1.0,1.0,1.0,1.0,1.0,1.0,1.0,1.0,1.0,1.0,1.0,1.0,1.0,1.0,1.0,1.0,1.0,1.0,1.0,1.0,1.0,1.0,1.0,1.0,1.0,1.0,1.0,1.0,1.0,1.0,1.0,1.0,1.0,1.0,1.0,1.0,1.0,1.0,1.0,1.0,1.0,1.0,1.0,1.0,1.0,1.0,1.0,1.0,1.0,1.0,1.0,1.0,1.0,1.0,1.0,1.0,1.0,1.0,1.0,1.0,1.0,1.0,1.0,1.0,1.0,1.0,1.0,1.0,1.0,1.0,1.0,1.0,1.0,1.0,1.0,1.0,1.0,1.0,1.0,1.0,1.0,1.0,1.0,1.0,1.0,1.0,1.0,1.0,1.0,1.0,1.0,1.0,1.0,1.0,1.0,1.0,1.0,1.0,1.0,1.0,1.0,1.0,1.0,1.0,1.0,1.0,1.0,1.0,1.0,1.0,1.0,1.0,1.0,1.0,1.0,1.0,1.0,1.0,1.0,1.0,1.0,1.0,1.0,1.0,1.0,1.0,1.0,1.0,1.0,1.0,1.0,1.0,1.0,0.0,0.0,0.0,0.0,0.0,0.0,0.0,0.0,0.0,0.0,0.0,0.0,0.0,0.0,0.0,0.0,0.0,0.0,0.0,0.0,0.0,0.0,0.0,0.0,0.0,0.0,0.0,0.0,0.0,0.0,0.0,0.0,0.0,0.0,0.0,0.0,0.0,0.0,0.0,0.0,0.0,0.0,0.0,0.0,0.0,0.0,0.0,0.0,0.0,0.0,0.0,0.0,0.0,0.0,0.0,0.0,0.0,0.0,0.0,0.0,0.0,0.0,0.0,0.0,0.0,0.0,0.0,0.0,0.0,0.0,0.0,0.0,0.0,0.0,0.0,0.0,0.0,0.0,0.0,0.0,0.0,0.0,0.0,0.0,0.0,0.0,0.0,0.0,0.0,0.0,0.0,0.0,0.0,0.0,0.0,0.0,0.0,0.0,0.0,0.0,0.0,0.0,0.0,0.0,0.0,0.0,0.0,0.0,0.0,0.0,0.0,0.0,0.0,0.0,0.0,0.0,0.0,0.0,0.0,0.0,0.0,0.0,0.0,0.0,0.0,0.0,0.0,0.0,0.0,0.0,0.0,0.0,0.0,0.0,0.0,0.0,0.0,0.0,0.0,0.0,0.0,0.0,0.0,0.0,0.0,0.0,0.0,0.0,0.0,0.0,0.0
