0,1,2,3,4,5,6,7,8,9,10,11,12,13,14,15,16,17,18,19,20,21,22,23,24,25,26,27,28,29,30,31,32,33,34,35,36,37,38,39,40,41,42,43,44,45,46,47,48,49,50,51,52,53,54,55,56,57,58,59,60,61,62,63,64,65,66,67,68,69,70,71,72,73,74,75,76,77,78,79,80,81,82,83,84,85,86,87,88,89,90,91,92,93,94,95,96,97,98,99,100,101,102,103,104,105,106,107,108,109,110,111,112,113,114,115,116,117,118,119,120,121,122,123,124,125,126,127,128,129,130,131,132,133,134,135,136,137,138,139,140,141,142,143,144,145,146,147,148,149,150,151,152,153,154,155,156,157,158,159,160,161,162,163,164,165,166,167,168,169,170,171,172,173,174,175,176,177,178,179,180,181,182,183,184,185,186,187,188,189,190,191,192,193,194,195,196,197,198,199,200,201,202,203,204,205,206,207,208,209,210,211,212,213,214,215,216,217,218,219,220,221,222,223,224,225,226,227,228,229,230,231,232,233,234,235,236,237,238,239,240,241,242,243,244,245,246,247,248,249,250,251,252,253,254,255,256,257,258,259,260,261,262,263,264,265,266,267,268,269,270,271,272,273,274,275,276,277,278,279,280,281,282,283,284,285,286,287,288,289,290,291,292,293,294,295,296,297,298,299,300,301,302,303,304,305,306,307,308,309,310,311,312,313,314,315,316,317,318,319,320,321,322,323,324,325,326,327,328,329,330,331,332,333,334,335,336,337,338,339,340,341,342,343,344,345,346,347,348,349,350,351,352,353,354,355,356,357,358,359,360,361,362,363,364,365,366,367,368,369,370,371,372,373,374,375,376,377,378,379,380,381,382,383,384,385,386,387,388,389,390,391,392,393,394,395,396,397,398,399,400,401,402,403,404,405,406,407,408,409,410,411,412,413,414,415,416,417,418,419,420,421,422,423,424,425,426,427,428,429,430,431,432,433,434,435,436,437,438,439,440,441,442,443,444,445,446,447,448,449,450,451,452,453,454,455,456,457,458,459,460,461,462,463,464,465,466,467,468,469,470,471,472,473,474,475,476,477,478,479,480,481,482,483,484,485,486,487,488,489,490,491,492,493,494,495,496,497,498,499,500,501,502,503,504,505,506,507,508,509,510,511,512,513,514,515,516,517,518,519,520,521,522,523,524,525,526,527,528,529,530,531,532,533,534,535,536,537,538,539,540,541,542,543,544,545,546,547,548,549,550,551,552,553,554,555,556,557,558,559,560,561,562,563,564,565,566,567,568,569,570,571,572,573,574,575,576,577,578,579,580,581,582,583,584,585,586,587,588,589,590,591,592,593,594,595,596,597,598,599,600,601,602,603,604,605,606,607,608,609,610,611,612,613,614,615,616,617,618,619,620,621,622,623,624,625,626,627,628,629,630,631,632,633,634,635,636,637,638,639,640,641,642,643,644,645,646,647,648,649,650,651,652,653,654,655,656,657,658,659,660,661,662,663,664,665,666,667,668,669,670,671,672,673,674,675,676,677,678,679,680,681,682,683,684,685,686,687,688,689,690,691,692,693,694,695,696,697,698,699,700,701,702,703,704,705,706,707,708,709,710,711,712,713,714,715,716,717,718,719,720,721,722,723,724,725,726,727,728,729,730,731,732,733,734,735,736,737,738,739,740,741,742,743,744,745,746,747,748,749,750,751,752,753,754,755,756,757,758,759,760,761,762,763,764,765,766,767,768,769,770,771,772,773,774,775,776,777,778,779,780,781,782,783,784,785,786,787,788,789,790,791,792,793,794,795,796,797,798,799,800,801,802,803,804,805,806,807,808,809,810,811,812,813,814,815,816,817,818,819,820,821,822,823,824,825,826,827,828,829,830,831,832,833,834,835,836,837,838,839,840,841,842,843,844,845,846,847,848,849,850,851,852,853,854,855,856,857,858,859,860,861,862,863,864,865,866,867,868,869,870,871,872,873,874,875,876,877,878,879,880,881,882,883,884,885,886,887,888,889,890,891,892,893,894,895,896,897,898,899,900,901,902,903,904,905,906,907,908,909,910,911,912,913,914,915,916,917,918,919,920,921,922,923,924,925,926,927,928,929,930,931,932,933,934,935,936,937,938,939,940,941,942,943,944,945,946,947,948,949,950,951,952,953,954,955,956,957,958,959,960,961,962,963,964,965,966,967,968,969,970,971,972,973,974,975,976,977,978,979,980,981,982,983,984,985,986,987,988,989,990,991,992,993,994,995,996,997,998,999,1000,1001,1002,1003,1004,1005,1006,1007,1008,1009,1010,1011,1012,1013,1014,1015,1016,1017,1018,1019,1020,1021,1022,1023
-2.9930232558139664,-7.9930232558139656,-7.9930232558139656,-9.993023255813966,-10.993023255813966,-10.993023255813966,-7.9930232558139656,-0.9930232558139664,3.0069767441860336,3.0069767441860336,4.006976744186034,5.0069767441860344,5.0069767441860344,5.0069767441860344,8.006976744186034,9.006976744186034,5.0069767441860344,4.006976744186034,3.0069767441860336,-1.9930232558139664,-2.9930232558139664,-8.993023255813966,-5.9930232558139656,-8.993023255813966,-8.993023255813966,-7.9930232558139656,-4.9930232558139656,-1.9930232558139664,-1.9930232558139664,2.0069767441860336,4.006976744186034,3.0069767441860336,7.0069767441860344,9.006976744186034,6.0069767441860344,8.006976744186034,5.0069767441860344,4.006976744186034,-0.9930232558139664,-2.9930232558139664,-1.9930232558139664,-6.9930232558139656,-8.993023255813966,-8.993023255813966,-8.993023255813966,-6.9930232558139656,-5.9930232558139656,-3.9930232558139664,-0.9930232558139664,4.006976744186034,4.006976744186034,9.006976744186034,9.006976744186034,8.006976744186034,7.0069767441860344,7.0069767441860344,6.0069767441860344,4.006976744186034,1.0069767441860336,-1.9930232558139664,-2.9930232558139664,-5.9930232558139656,-7.9930232558139656,-7.9930232558139656,-9.993023255813966,-7.9930232558139656,-4.9930232558139656,-3.9930232558139664,-0.9930232558139664,1.0069767441860336,5.0069767441860344,6.0069767441860344,10.006976744186034,13.006976744186034,12.006976744186034,8.006976744186034,4.006976744186034,1.0069767441860336,0.006976744186033557,-2.9930232558139664,-3.9930232558139664,-7.9930232558139656,-7.9930232558139656,-9.993023255813966,-10.993023255813966,-5.9930232558139656,-4.9930232558139656,-2.9930232558139664,0.006976744186033557,2.0069767441860336,3.0069767441860336,4.006976744186034,8.006976744186034,9.006976744186034,9.006976744186034,11.006976744186034,5.0069767441860344,3.0069767441860336,1.0069767441860336,-0.9930232558139664,-3.9930232558139664,-6.9930232558139656,-5.9930232558139656,-7.9930232558139656,-6.9930232558139656,-7.9930232558139656,-6.9930232558139656,-2.9930232558139664,1.0069767441860336,5.0069767441860344,5.0069767441860344,6.0069767441860344,6.0069767441860344,5.0069767441860344,8.006976744186034,11.006976744186034,9.006976744186034,1.0069767441860336,0.006976744186033557,-1.9930232558139664,-2.9930232558139664,-7.9930232558139656,-9.993023255813966,-11.993023255813966,-8.993023255813966,-6.9930232558139656,-3.9930232558139664,-2.9930232558139664,0.006976744186033557,6.0069767441860344,5.0069767441860344,5.0069767441860344,8.006976744186034,8.006976744186034,9.006976744186034,13.006976744186034,5.0069767441860344,4.006976744186034,4.006976744186034,0.006976744186033557,-4.9930232558139656,-9.993023255813966,-10.993023255813966,-10.993023255813966,-12.993023255813966,-1.9930232558139664,0.006976744186033557,-1.9930232558139664,-2.9930232558139664,2.0069767441860336,1.0069767441860336,0.006976744186033557,5.0069767441860344,8.006976744186034,5.0069767441860344,5.0069767441860344,3.0069767441860336,8.006976744186034,15.006976744186034,11.006976744186034,2.0069767441860336,-5.9930232558139656,-7.9930232558139656,-10.993023255813966,-6.9930232558139656,-8.993023255813966,-5.9930232558139656,-9.993023255813966,-6.9930232558139656,-1.9930232558139664,0.006976744186033557,-2.9930232558139664,-2.9930232558139664,-2.9930232558139664,-1.9930232558139664,2.0069767441860336,5.0069767441860344,11.006976744186034,8.006976744186034,9.006976744186034,15.006976744186034,12.006976744186034,11.006976744186034,14.006976744186034,19.006976744186034,14.006976744186034,-10.993023255813966,-21.99302325581397,-22.99302325581397,-22.99302325581397,-18.993023255813966,-8.993023255813966,-3.9930232558139664,-7.9930232558139656,-14.993023255813966,-12.993023255813966,-9.993023255813966,-2.9930232558139664,-0.9930232558139664,8.006976744186034,-1.9930232558139664,-26.99302325581397,-17.993023255813966,4.006976744186034,30.006976744186034,49.00697674418603,52.00697674418603,40.00697674418603,23.006976744186034,9.006976744186034,-7.9930232558139656,-11.993023255813966,-9.993023255813966,-4.9930232558139656,-8.993023255813966,-17.993023255813966,-38.99302325581397,-51.99302325581397,-48.99302325581397,-40.99302325581397,-39.99302325581397,-21.99302325581397,-10.993023255813966,5.0069767441860344,32.006976744186034,19.006976744186034,-9.993023255813966,3.0069767441860336,24.006976744186034,41.00697674418603,67.00697674418603,99.00697674418603,132.00697674418603,96.00697674418603,30.006976744186034,-32.99302325581397,-52.99302325581397,-91.99302325581397,-110.99302325581397,-87.99302325581397,-59.99302325581397,-43.99302325581397,-20.993023255813966,28.006976744186034,72.00697674418603,60.00697674418603,97.00697674418603,83.00697674418603,11.006976744186034,-55.99302325581397,-78.99302325581397,-55.99302325581397,-29.99302325581397,-53.99302325581397,-66.99302325581397,-37.99302325581397,16.006976744186034,60.00697674418603,63.00697674418603,36.00697674418603,21.006976744186034,12.006976744186034,15.006976744186034,5.0069767441860344,-9.993023255813966,-15.993023255813966,-7.9930232558139656,14.006976744186034,56.00697674418603,98.00697674418603,63.00697674418603,-21.99302325581397,-64.99302325581397,-87.99302325581397,-97.99302325581397,-85.99302325581397,-67.99302325581397,-24.99302325581397,40.00697674418603,53.00697674418603,51.00697674418603,78.00697674418603,91.00697674418603,65.00697674418603,62.00697674418603,40.00697674418603,-57.99302325581397,-98.99302325581397,-77.99302325581397,-71.99302325581397,-4.9930232558139656,10.006976744186034,17.006976744186034,45.00697674418603,72.00697674418603,69.00697674418603,11.006976744186034,-34.99302325581397,-57.99302325581397,-45.99302325581397,-47.99302325581397,-38.99302325581397,-19.993023255813966,-9.993023255813966,17.006976744186034,39.00697674418603,44.00697674418603,-10.993023255813966,-3.9930232558139664,-43.99302325581397,-19.993023255813966,60.00697674418603,34.006976744186034,-14.993023255813966,-7.9930232558139656,5.0069767441860344,6.0069767441860344,-14.993023255813966,-15.993023255813966,-22.99302325581397,21.006976744186034,4.006976744186034,-47.99302325581397,-56.99302325581397,-54.99302325581397,-45.99302325581397,-18.993023255813966,-20.993023255813966,-10.993023255813966,22.006976744186034,114.00697674418603,168.00697674418603,171.00697674418603,110.00697674418603,-11.993023255813966,-69.99302325581397,-92.99302325581397,-92.99302325581397,-83.99302325581397,-49.99302325581397,-28.99302325581397,-26.99302325581397,5.0069767441860344,5.0069767441860344,-3.9930232558139664,6.0069767441860344,39.00697674418603,43.00697674418603,13.006976744186034,-12.993023255813966,-41.99302325581397,-41.99302325581397,3.0069767441860336,10.006976744186034,29.006976744186034,11.006976744186034,17.006976744186034,81.00697674418603,129.00697674418603,92.00697674418603,12.006976744186034,-17.993023255813966,-44.99302325581397,-92.99302325581397,-111.99302325581397,-76.99302325581397,-45.99302325581397,-45.99302325581397,-53.99302325581397,-57.99302325581397,-70.99302325581397,27.006976744186034,134.00697674418603,153.00697674418603,123.00697674418603,140.00697674418603,76.00697674418603,-25.99302325581397,-31.99302325581397,-62.99302325581397,-63.99302325581397,-26.99302325581397,-4.9930232558139656,-25.99302325581397,-68.99302325581397,-65.99302325581397,-37.99302325581397,32.006976744186034,75.00697674418603,62.00697674418603,95.00697674418603,73.00697674418603,-10.993023255813966,-75.99302325581397,-108.99302325581397,-68.99302325581397,6.0069767441860344,43.00697674418603,59.00697674418603,-11.993023255813966,-47.99302325581397,-43.99302325581397,-48.99302325581397,-15.993023255813966,20.006976744186034,-21.99302325581397,-14.993023255813966,28.006976744186034,66.00697674418603,111.00697674418603,66.00697674418603,-25.99302325581397,-63.99302325581397,-22.99302325581397,32.006976744186034,-4.9930232558139656,-48.99302325581397,35.006976744186034,25.006976744186034,-3.9930232558139664,25.006976744186034,37.00697674418603,-5.9930232558139656,-41.99302325581397,-51.99302325581397,-52.99302325581397,-49.99302325581397,-35.99302325581397,-39.99302325581397,-50.99302325581397,17.006976744186034,113.00697674418603,113.00697674418603,48.00697674418603,12.006976744186034,32.006976744186034,13.006976744186034,-16.993023255813966,-45.99302325581397,-79.99302325581397,-81.99302325581397,-47.99302325581397,40.00697674418603,80.00697674418603,8.006976744186034,-2.9930232558139664,-28.99302325581397,-23.99302325581397,46.00697674418603,83.00697674418603,97.00697674418603,13.006976744186034,-134.99302325581397,-148.99302325581397,-100.99302325581397,-18.993023255813966,91.00697674418603,120.00697674418603,71.00697674418603,42.00697674418603,14.006976744186034,27.006976744186034,17.006976744186034,-37.99302325581397,-66.99302325581397,-63.99302325581397,-51.99302325581397,-15.993023255813966,0.006976744186033557,-34.99302325581397,-51.99302325581397,-42.99302325581397,-19.993023255813966,53.00697674418603,122.00697674418603,126.00697674418603,64.00697674418603,17.006976744186034,-12.993023255813966,-47.99302325581397,-49.99302325581397,-59.99302325581397,-61.99302325581397,-35.99302325581397,5.0069767441860344,31.006976744186034,49.00697674418603,46.00697674418603,-6.9930232558139656,-43.99302325581397,-48.99302325581397,-45.99302325581397,50.00697674418603,116.00697674418603,135.00697674418603,130.00697674418603,-12.993023255813966,-145.99302325581397,-123.99302325581397,-20.993023255813966,-0.9930232558139664,-1.9930232558139664,-2.9930232558139664,-18.993023255813966,-62.99302325581397,-83.99302325581397,-39.99302325581397,-11.993023255813966,20.006976744186034,21.006976744186034,30.006976744186034,76.00697674418603,68.00697674418603,91.00697674418603,81.00697674418603,49.00697674418603,8.006976744186034,-19.993023255813966,-33.99302325581397,-41.99302325581397,-111.99302325581397,-164.99302325581397,-175.99302325581397,-157.99302325581397,-93.99302325581397,-35.99302325581397,13.006976744186034,56.00697674418603,134.00697674418603,178.00697674418603,173.00697674418603,225.00697674418603,214.00697674418603,95.00697674418603,106.00697674418603,67.00697674418603,-10.993023255813966,-51.99302325581397,-83.99302325581397,-128.99302325581397,-126.99302325581397,-110.99302325581397,-76.99302325581397,-52.99302325581397,-52.99302325581397,-39.99302325581397,13.006976744186034,-34.99302325581397,-77.99302325581397,-107.99302325581397,-80.99302325581397,-41.99302325581397,55.00697674418603,157.00697674418603,190.00697674418603,174.00697674418603,122.00697674418603,42.00697674418603,-66.99302325581397,-117.99302325581397,-55.99302325581397,2.0069767441860336,33.006976744186034,58.00697674418603,54.00697674418603,-16.993023255813966,-84.99302325581397,-92.99302325581397,-95.99302325581397,-121.99302325581397,-189.99302325581402,-247.99302325581402,-186.99302325581402,-127.99302325581397,-84.99302325581397,70.00697674418603,330.00697674418603,414.00697674418603,349.0069767441861,280.00697674418603,255.00697674418603,113.00697674418603,18.006976744186034,11.006976744186034,-51.99302325581397,-118.99302325581397,-184.99302325581402,-122.99302325581397,-98.99302325581397,-81.99302325581397,-98.99302325581397,-26.99302325581397,33.006976744186034,13.006976744186034,6.0069767441860344,-7.9930232558139656,-10.993023255813966,-19.993023255813966,-34.99302325581397,-37.99302325581397,-46.99302325581397,-47.99302325581397,-52.99302325581397,-38.99302325581397,-16.993023255813966,-10.993023255813966,21.006976744186034,62.00697674418603,61.00697674418603,64.00697674418603,56.00697674418603,36.00697674418603,15.006976744186034,-8.993023255813966,-19.993023255813966,-19.993023255813966,3.0069767441860336,32.006976744186034,2.0069767441860336,-55.99302325581397,-72.99302325581397,-57.99302325581397,-32.99302325581397,-51.99302325581397,-63.99302325581397,-26.99302325581397,1.0069767441860336,15.006976744186034,14.006976744186034,65.00697674418603,28.006976744186034,40.00697674418603,52.00697674418603,121.00697674418603,113.00697674418603,79.00697674418603,0.006976744186033557,-13.993023255813966,-55.99302325581397,-45.99302325581397,-43.99302325581397,-26.99302325581397,18.006976744186034,11.006976744186034,-41.99302325581397,-52.99302325581397,-67.99302325581397,-31.99302325581397,29.006976744186034,111.00697674418603,93.00697674418603,53.00697674418603,6.0069767441860344,-26.99302325581397,-9.993023255813966,-10.993023255813966,28.006976744186034,35.006976744186034,20.006976744186034,-7.9930232558139656,-21.99302325581397,-26.99302325581397,-29.99302325581397,-38.99302325581397,-34.99302325581397,-33.99302325581397,-24.99302325581397,-2.9930232558139664,9.006976744186034,6.0069767441860344,-6.9930232558139656,-28.99302325581397,-33.99302325581397,-38.99302325581397,-19.993023255813966,5.0069767441860344,25.006976744186034,20.006976744186034,26.006976744186034,27.006976744186034,8.006976744186034,-1.9930232558139664,36.00697674418603,37.00697674418603,-23.99302325581397,-78.99302325581397,-129.99302325581397,-95.99302325581397,-18.993023255813966,37.00697674418603,85.00697674418603,125.00697674418603,125.00697674418603,154.00697674418603,162.00697674418603,93.00697674418603,-17.993023255813966,-55.99302325581397,-68.99302325581397,-78.99302325581397,-62.99302325581397,-99.99302325581397,-92.99302325581397,-29.99302325581397,-16.993023255813966,-1.9930232558139664,33.006976744186034,25.006976744186034,-3.9930232558139664,-30.99302325581397,-49.99302325581397,-26.99302325581397,-15.993023255813966,-9.993023255813966,4.006976744186034,32.006976744186034,17.006976744186034,-25.99302325581397,-34.99302325581397,-34.99302325581397,-22.99302325581397,39.00697674418603,68.00697674418603,92.00697674418603,61.00697674418603,-10.993023255813966,-61.99302325581397,-84.99302325581397,-102.99302325581397,-22.99302325581397,81.00697674418603,117.00697674418603,148.00697674418603,161.00697674418603,102.00697674418603,25.006976744186034,8.006976744186034,-10.993023255813966,-42.99302325581397,-57.99302325581397,-61.99302325581397,-77.99302325581397,-88.99302325581397,-106.99302325581397,-94.99302325581397,-86.99302325581397,-79.99302325581397,-23.99302325581397,15.006976744186034,35.006976744186034,75.00697674418603,43.00697674418603,37.00697674418603,80.00697674418603,117.00697674418603,112.00697674418603,85.00697674418603,23.006976744186034,-26.99302325581397,6.0069767441860344,-10.993023255813966,-27.99302325581397,-11.993023255813966,-32.99302325581397,-50.99302325581397,-55.99302325581397,-71.99302325581397,-59.99302325581397,-26.99302325581397,0.006976744186033557,6.0069767441860344,-1.9930232558139664,-15.993023255813966,-17.993023255813966,-1.9930232558139664,14.006976744186034,33.006976744186034,35.006976744186034,-24.99302325581397,-51.99302325581397,-21.99302325581397,-24.99302325581397,12.006976744186034,64.00697674418603,60.00697674418603,47.00697674418603,46.00697674418603,21.006976744186034,-2.9930232558139664,14.006976744186034,1.0069767441860336,-19.993023255813966,-35.99302325581397,-32.99302325581397,-19.993023255813966,-13.993023255813966,6.0069767441860344,3.0069767441860336,-27.99302325581397,-36.99302325581397,-12.993023255813966,10.006976744186034,46.00697674418603,76.00697674418603,53.00697674418603,-22.99302325581397,-53.99302325581397,-68.99302325581397,-58.99302325581397,-26.99302325581397,6.0069767441860344,56.00697674418603,117.00697674418603,102.00697674418603,14.006976744186034,-43.99302325581397,-69.99302325581397,-47.99302325581397,8.006976744186034,95.00697674418603,125.00697674418603,38.00697674418603,-15.993023255813966,-75.99302325581397,-122.99302325581397,-122.99302325581397,-43.99302325581397,-7.9930232558139656,37.00697674418603,71.00697674418603,40.00697674418603,56.00697674418603,53.00697674418603,17.006976744186034,19.006976744186034,8.006976744186034,-7.9930232558139656,-22.99302325581397,-34.99302325581397,-42.99302325581397,-24.99302325581397,20.006976744186034,51.00697674418603,6.0069767441860344,-33.99302325581397,-44.99302325581397,-39.99302325581397,-33.99302325581397,-25.99302325581397,-15.993023255813966,10.006976744186034,30.006976744186034,4.006976744186034,-28.99302325581397,-32.99302325581397,-20.993023255813966,13.006976744186034,53.00697674418603,68.00697674418603,72.00697674418603,35.006976744186034,-12.993023255813966,-19.993023255813966,-21.99302325581397,-4.9930232558139656,-25.99302325581397,-17.993023255813966,-9.993023255813966,-10.993023255813966,-14.993023255813966,7.0069767441860344,40.00697674418603,59.00697674418603,52.00697674418603,24.006976744186034,5.0069767441860344,-23.99302325581397,-34.99302325581397,-20.993023255813966,-16.993023255813966,-19.993023255813966,-34.99302325581397,-43.99302325581397,-24.99302325581397,3.0069767441860336,43.00697674418603,77.00697674418603,54.00697674418603,4.006976744186034,-21.99302325581397,-30.99302325581397,-12.993023255813966,14.006976744186034,13.006976744186034,8.006976744186034,-15.993023255813966,-38.99302325581397,-58.99302325581397,-47.99302325581397,-43.99302325581397,-2.9930232558139664,54.00697674418603,58.00697674418603,60.00697674418603,24.006976744186034,5.0069767441860344,-7.9930232558139656,-4.9930232558139656,4.006976744186034,25.006976744186034,18.006976744186034,12.006976744186034,14.006976744186034,-2.9930232558139664,-10.993023255813966,-19.993023255813966,-27.99302325581397,-16.993023255813966,-16.993023255813966,-11.993023255813966,6.0069767441860344,10.006976744186034,14.006976744186034,-3.9930232558139664,-45.99302325581397,-51.99302325581397,-23.99302325581397,12.006976744186034,44.00697674418603,81.00697674418603,46.00697674418603,19.006976744186034,-4.9930232558139656,-28.99302325581397,-53.99302325581397,-19.993023255813966,6.0069767441860344,23.006976744186034,32.006976744186034,37.00697674418603,24.006976744186034,-7.9930232558139656,-25.99302325581397,-26.99302325581397,-21.99302325581397,-17.993023255813966,-14.993023255813966,-9.993023255813966,-7.9930232558139656,-3.9930232558139664,1.0069767441860336,2.0069767441860336,8.006976744186034,5.0069767441860344,6.0069767441860344,6.0069767441860344,1.0069767441860336,-2.9930232558139664,-11.993023255813966,-10.993023255813966,-11.993023255813966,10.006976744186034,16.006976744186034,5.0069767441860344,1.0069767441860336,-7.9930232558139656,-2.9930232558139664,-2.9930232558139664,1.0069767441860336,12.006976744186034,4.006976744186034,1.0069767441860336,-23.99302325581397,-12.993023255813966,0.006976744186033557,32.006976744186034,48.00697674418603,41.00697674418603,18.006976744186034,-1.9930232558139664,4.006976744186034,-17.993023255813966,-30.99302325581397,-37.99302325581397,-27.99302325581397,-19.993023255813966,-11.993023255813966,-2.9930232558139664,-7.9930232558139656,-15.993023255813966,-11.993023255813966,4.006976744186034,7.0069767441860344,18.006976744186034,45.00697674418603,38.00697674418603,12.006976744186034,3.0069767441860336,2.0069767441860336,3.0069767441860336,-10.993023255813966,-15.993023255813966,-16.993023255813966,-16.993023255813966,-13.993023255813966,-13.993023255813966,-8.993023255813966,-6.9930232558139656,-2.9930232558139664,0.006976744186033557,5.0069767441860344,4.006976744186034,5.0069767441860344,4.006976744186034,7.0069767441860344,9.006976744186034,11.006976744186034,8.006976744186034,7.0069767441860344,5.0069767441860344,5.0069767441860344,-6.9930232558139656,-6.9930232558139656,-1.9930232558139664
0.0,0.0,0.0,0.0,0.0,0.0,0.0,0.0,0.0,0.0,0.0,0.0,0.0,0.0,0.0,0.0,0.0,0.0,0.0,0.0,0.0,0.0,0.0,0.0,0.0,0.0,0.0,0.0,0.0,0.0,0.0,0.0,0.0,0.0,0.0,0.0,0.0,0.0,0.0,0.0,0.0,0.0,0.0,0.0,0.0,0.0,0.0,0.0,0.0,0.0,0.0,0.0,0.0,0.0,0.0,0.0,0.0,0.0,0.0,0.0,0.0,0.0,0.0,0.0,0.0,0.0,0.0,0.0,0.0,0.0,0.0,0.0,0.0,0.0,0.0,0.0,0.0,0.0,0.0,0.0,0.0,0.0,0.0,0.0,0.0,0.0,0.0,0.0,0.0,0.0,0.0,0.0,0.0,0.0,0.0,0.0,0.0,0.0,0.0,0.0,0.0,0.0,0.0,0.0,0.0,0.0,0.0,0.0,0.0,0.0,0.0,0.0,0.0,0.0,0.0,0.0,0.0,0.0,0.0,0.0,0.0,0.0,0.0,0.0,0.0,0.0,0.0,0.0,0.0,0.0,0.0,0.0,0.0,0.0,0.0,0.0,0.0,0.0,0.0,0.0,0.0,0.0,0.0,0.0,0.0,0.0,0.0,0.0,0.0,0.0,0.0,0.0,0.0,0.0,0.0,0.0,0.0,0.0,0.0,0.0,0.0,0.0,0.0,0.0,0.0,0.0,0.0,0.0,0.0,0.0,0.0,0.0,0.0,0.0,0.0,0.0,0.0,0.0,1.0,1.0,1.0,1.0,1.0,1.0,1.0,1.0,1.0,1.0,1.0,1.0,1.0,1.0,1.0,1.0,1.0,1.0,1.0,1.0,1.0,1.0,1.0,1.0,1.0,1.0,1.0,1.0,1.0,1.0,1.0,1.0,1.0,1.0,1.0,1.0,1.0,1.0,1.0,1.0,1.0,1.0,1.0,1.0,1.0,1.0,1.0,1.0,1.0,1.0,1.0,1.0,1.0,1.0,1.0,1.0,1.0,1.0,1.0,1.0,1.0,1.0,1.0,1.0,1.0,1.0,1.0,1.0,1.0,1.0,1.0,1.0,1.0,1.0,1.0,1.0,1.0,1.0,1.0,1.0,1.0,1.0,1.0,1.0,1.0,1.0,1.0,1.0,1.0,1.0,1.0,1.0,1.0,1.0,1.0,1.0,1.0,1.0,1.0,1.0,1.0,1.0,1.0,1.0,1.0,1.0,1.0,1.0,1.0,1.0,1.0,1.0,1.0,1.0,1.0,1.0,1.0,1.0,1.0,1.0,1.0,1.0,1.0,1.0,1.0,1.0,1.0,1.0,1.0,1.0,1.0,1.0,1.0,1.0,1.0,1.0,1.0,1.0,1.0,1.0,1.0,1.0,1.0,1.0,1.0,1.0,1.0,1.0,1.0,1.0,1.0,1.0,1.0,1.0,1.0,1.0,1.0,1.0,1.0,1.0,1.0,1.0,1.0,1.0,1.0,1.0,1.0,1.0,1.0,1.0,1.0,1.0,1.0,1.0,1.0,1.0,1.0,1.0,1.0,1.0,1.0,1.0,1.0,1.0,1.0,1.0,1.0,1.0,1.0,1.0,1.0,1.0,1.0,1.0,1.0,1.0,1.0,1.0,1.0,1.0,1.0,1.0,1.0,1.0,1.0,1.0,1.0,1.0,1.0,1.0,1.0,1.0,1.0,1.0,1.0,1.0,1.0,1.0,1.0,1.0,1.0,1.0,1.0,1.0,1.0,1.0,1.0,1.0,1.0,1.0,1.0,1.0,1.0,1.0,1.0,1.0,1.0,1.0,1.0,1.0,1.0,1.0,1.0,1.0,1.0,1.0,1.0,1.0,1.0,1.0,1.0,1.0,1.0,1.0,1.0,1.0,1.0,1.0,1.0,1.0,1.0,1.0,1.0,1.0,1.0,1.0,1.0,1.0,1.0,1.0,1.0,1.0,1.0,1.0,1.0,1.0,1.0,1.0,1.0,1.0,1.0,1.0,1.0,1.0,1.0,1.0,1.0,1.0,1.0,1.0,1.0,1.0,1.0,1.0,1.0,1.0,1.0,1.0,1.0,1.0,1.0,1.0,1.0,1.0,1.0,1.0,1.0,1.0,1.0,1.0,1.0,1.0,1.0,1.0,1.0,1.0,1.0,1.0,1.0,1.0,1.0,1.0,1.0,1.0,1.0,1.0,1.0,1.0,1.0,1.0,1.0,1.0,1.0,1.0,1.0,1.0,1.0,1.0,1.0,1.0,1.0,1.0,1.0,1.0,1.0,1.0,1.0,1.0,1.0,1.0,1.0,1.0,1.0,1.0,1.0,1.0,1.0,1.0,1.0,1.0,1.0,1.0,1.0,1.0,1.0,1.0,1.0,1.0,1.0,1.0,1.0,1.0,1.0,1.0,1.0,1.0,1.0,1.0,1.0,1.0,1.0,1.0,1.0,1.0,1.0,1.0,1.0,1.0,1.0,1.0,1.0,1.0,1.0,1.0,1.0,1.0,1.0,1.0,1.0,1.0,1.0,1.0,1.0,1.0,1.0,1.0,1.0,1.0,1.0,1.0,1.0,1.0,1.0,1.0,1.0,1.0,1.0,1.0,1.0,1.0,1.0,1.0,1.0,1.0,1.0,1.0,1.0,1.0,1.0,1.0,1.0,1.0,1.0,1.0,1.0,1.0,1.0,1.0,1.0,1.0,1.0,1.0,1.0,1.0,1.0,1.0,1.0,1.0,1.0,1.0,1.0,1.0,1.0,1.0,1.0,1.0,1.0,1.0,1.0,1.0,1.0,1.0,1.0,1.0,1.0,1.0,1.0,1.0,1.0,1.0,1.0,1.0,1.0,1.0,1.0,1.0,1.0,1.0,1.0,1.0,1.0,1.0,1.0,1.0,1.0,1.0,1.0,1.0,1.0,1.0,1.0,1.0,1.0,1.0,1.0,1.0,1.0,1.0,1.0,1.0,1.0,1.0,1.0,1.0,1.0,1.0,1.0,1.0,1.0,1.0,1.0,1.0,1.0,1.0,1.0,1.0,1.0,1.0,1.0,1.0,1.0,1.0,1.0,1.0,1.0,1.0,1.0,1.0,1.0,1.0,1.0,1.0,1.0,1.0,1.0,1.0,1.0,1.0,1.0,1.0,1.0,1.0,1.0,1.0,1.0,1.0,1.0,1.0,1.0,1.0,1.0,1.0,1.0,1.0,1.0,1.0,1.0,1.0,1.0,1.0,1.0,1.0,1.0,1.0,1.0,1.0,1.0,1.0,1.0,1.0,1.0,1.0,1.0,1.0,1.0,1.0,1.0,1.0,1.0,1.0,1.0,1.0,1.0,1.0,1.0,1.0,1.0,1.0,1.0,1.0,1.0,1.0,1.0,1.0,1.0,1.0,1.0,1.0,1.0,1.0,1.0,1.0,1.0,1.0,1.0,1.0,1.0,1.0,1.0,1.0,1.0,1.0,1.0,1.0,1.0,1.0,1.0,1.0,1.0,1.0,1.0,1.0,1.0,1.0,1.0,1.0,1.0,1.0,1.0,1.0,1.0,1.0,1.0,1.0,1.0,1.0,1.0,1.0,1.0,1.0,1.0,1.0,1.0,1.0,1.0,1.0,1.0,1.0,1.0,1.0,1.0,1.0,1.0,1.0,1.0,1.0,1.0,1.0,1.0,1.0,1.0,1.0,1.0,1.0,1.0,1.0,1.0,1.0,1.0,1.0,1.0,1.0,1.0,1.0,1.0,1.0,1.0,1.0,1.0,1.0,1.0,1.0,1.0,1.0,1.0,1.0,1.0,1.0,1.0,1.0,1.0,1.0,1.0,1.0,1.0,1.0,1.0,1.0,1.0,1.0,1.0,1.0,1.0,1.0,1.0,1.0,1.0,1.0,1.0,1.0,1.0,1.0,1.0,1.0,1.0,1.0,1.0,1.0,1.0,1.0,1.0,1.0,1.0,1.0,1.0,1.0,1.0,1.0,1.0,1.0,1.0,1.0,1.0,1.0,1.0,1.0,1.0,1.0,1.0,1.0,1.0,1.0,1.0,1.0,1.0,1.0,1.0,1.0,1.0,1.0,1.0,1.0,1.0,1.0,1.0,1.0,1.0,1.0,1.0,1.0,1.0,1.0,1.0,1.0,1.0,1.0,1.0,1.0,1.0,1.0,1.0,1.0,1.0,1.0,1.0,1.0,1.0,1.0,1.0,1.0,1.0,1.0,1.0,1.0,1.0,1.0,1.0,1.0,1.0,1.0,1.0,1.0,1.0,1.0,1.0,1.0,1.0,1.0,1.0,1.0,1.0,1.0,1.0,1.0,1.0,1.0,1.0,1.0,1.0,1.0,1.0,1.0,1.0,1.0,1.0,1.0,1.0,1.0,1.0,1.0,1.0,1.0,1.0,1.0,0.0,0.0,0.0,0.0,0.0,0.0,0.0,0.0,0.0,0.0,0.0,0.0,0.0,0.0,0.0,0.0,0.0,0.0,0.0,0.0,0.0,0.0
