0,1,2,3,4,5,6,7,8,9,10,11,12,13,14,15,16,17,18,19,20,21,22,23,24,25,26,27,28,29,30,31,32,33,34,35,36,37,38,39,40,41,42,43,44,45,46,47,48,49,50,51,52,53,54,55,56,57,58,59,60,61,62,63,64,65,66,67,68,69,70,71,72,73,74,75,76,77,78,79,80,81,82,83,84,85,86,87,88,89,90,91,92,93,94,95,96,97,98,99,100,101,102,103,104,105,106,107,108,109,110,111,112,113,114,115,116,117,118,119,120,121,122,123,124,125,126,127,128,129,130,131,132,133,134,135,136,137,138,139,140,141,142,143,144,145,146,147,148,149,150,151,152,153,154,155,156,157,158,159,160,161,162,163,164,165,166,167,168,169,170,171,172,173,174,175,176,177,178,179,180,181,182,183,184,185,186,187,188,189,190,191,192,193,194,195,196,197,198,199,200,201,202,203,204,205,206,207,208,209,210,211,212,213,214,215,216,217,218,219,220,221,222,223,224,225,226,227,228,229,230,231,232,233,234,235,236,237,238,239,240,241,242,243,244,245,246,247,248,249,250,251,252,253,254,255,256,257,258,259,260,261,262,263,264,265,266,267,268,269,270,271,272,273,274,275,276,277,278,279,280,281,282,283,284,285,286,287,288,289,290,291,292,293,294,295,296,297,298,299,300,301,302,303,304,305,306,307,308,309,310,311,312,313,314,315,316,317,318,319,320,321,322,323,324,325,326,327,328,329,330,331,332,333,334,335,336,337,338,339,340,341,342,343,344,345,346,347,348,349,350,351,352,353,354,355,356,357,358,359,360,361,362,363,364,365,366,367,368,369,370,371,372,373,374,375,376,377,378,379,380,381,382,383,384,385,386,387,388,389,390,391,392,393,394,395,396,397,398,399,400,401,402,403,404,405,406,407,408,409,410,411,412,413,414,415,416,417,418,419,420,421,422,423,424,425,426,427,428,429,430,431,432,433,434,435,436,437,438,439,440,441,442,443,444,445,446,447,448,449,450,451,452,453,454,455,456,457,458,459,460,461,462,463,464,465,466,467,468,469,470,471,472,473,474,475,476,477,478,479,480,481,482,483,484,485,486,487,488,489,490,491,492,493,494,495,496,497,498,499,500,501,502,503,504,505,506,507,508,509,510,511
4.034950166112935,8.034950166112935,12.034950166112935,14.034950166112935,17.034950166112935,17.034950166112935,13.034950166112935,11.034950166112935,5.034950166112934,2.0349501661129348,-2.9650498338870652,-7.965049833887066,-14.965049833887065,-14.965049833887065,-15.965049833887065,-14.965049833887065,-9.965049833887065,-7.965049833887066,-4.965049833887066,3.0349501661129348,6.034950166112934,8.034950166112935,12.034950166112935,13.034950166112935,13.034950166112935,16.034950166112935,15.034950166112935,12.034950166112935,6.034950166112934,0.03495016611293522,-3.9650498338870652,-9.965049833887065,-12.965049833887065,-16.965049833887065,-17.96504983388707,-18.96504983388707,-11.965049833887065,-10.965049833887065,-3.9650498338870652,3.0349501661129348,4.034950166112935,10.034950166112935,13.034950166112935,15.034950166112935,17.034950166112935,18.03495016611293,12.034950166112935,12.034950166112935,7.034950166112934,1.0349501661129352,-4.965049833887066,-9.965049833887065,-16.965049833887065,-19.96504983388707,-16.965049833887065,-19.96504983388707,-12.965049833887065,-8.965049833887065,-3.9650498338870652,3.0349501661129348,6.034950166112934,7.034950166112934,13.034950166112935,15.034950166112935,15.034950166112935,17.034950166112935,14.034950166112935,8.034950166112935,7.034950166112934,2.0349501661129348,-2.9650498338870652,-6.965049833887066,-11.965049833887065,-15.965049833887065,-17.96504983388707,-17.96504983388707,-13.965049833887065,-8.965049833887065,-4.965049833887066,1.0349501661129352,3.0349501661129348,8.034950166112935,10.034950166112935,16.034950166112935,17.034950166112935,18.03495016611293,14.034950166112935,9.034950166112935,6.034950166112934,0.03495016611293522,-3.9650498338870652,-9.965049833887065,-14.965049833887065,-14.965049833887065,-16.965049833887065,-16.965049833887065,-13.965049833887065,-7.965049833887066,-4.965049833887066,-0.9650498338870648,4.034950166112935,8.034950166112935,16.034950166112935,17.034950166112935,18.03495016611293,17.034950166112935,14.034950166112935,12.034950166112935,7.034950166112934,1.0349501661129352,-3.9650498338870652,-8.965049833887065,-13.965049833887065,-17.96504983388707,-19.96504983388707,-17.96504983388707,-13.965049833887065,-9.965049833887065,-4.965049833887066,0.03495016611293522,3.0349501661129348,9.034950166112935,13.034950166112935,17.034950166112935,17.034950166112935,15.034950166112935,14.034950166112935,12.034950166112935,8.034950166112935,1.0349501661129352,-3.9650498338870652,-8.965049833887065,-14.965049833887065,-17.96504983388707,-16.965049833887065,-13.965049833887065,-12.965049833887065,-8.965049833887065,-1.9650498338870648,3.0349501661129348,5.034950166112934,8.034950166112935,12.034950166112935,12.034950166112935,16.034950166112935,16.034950166112935,14.034950166112935,9.034950166112935,7.034950166112934,-0.9650498338870648,-6.965049833887066,-7.965049833887066,-14.965049833887065,-16.965049833887065,-17.96504983388707,-16.965049833887065,-13.965049833887065,-10.965049833887065,-1.9650498338870648,2.0349501661129348,4.034950166112935,9.034950166112935,14.034950166112935,16.034950166112935,13.034950166112935,16.034950166112935,13.034950166112935,10.034950166112935,7.034950166112934,0.03495016611293522,-3.9650498338870652,-6.965049833887066,-14.965049833887065,-17.96504983388707,-17.96504983388707,-18.96504983388707,-14.965049833887065,-10.965049833887065,-3.9650498338870652,1.0349501661129352,2.0349501661129348,6.034950166112934,11.034950166112935,14.034950166112935,15.034950166112935,17.034950166112935,15.034950166112935,14.034950166112935,8.034950166112935,1.0349501661129352,-1.9650498338870648,-8.965049833887065,-14.965049833887065,-18.96504983388707,-16.965049833887065,-15.965049833887065,-14.965049833887065,-10.965049833887065,-2.9650498338870652,2.0349501661129348,5.034950166112934,6.034950166112934,11.034950166112935,15.034950166112935,15.034950166112935,15.034950166112935,13.034950166112935,11.034950166112935,8.034950166112935,1.0349501661129352,-2.9650498338870652,-6.965049833887066,-13.965049833887065,-16.965049833887065,-18.96504983388707,-16.965049833887065,-12.965049833887065,-8.965049833887065,-6.965049833887066,0.03495016611293522,5.034950166112934,5.034950166112934,13.034950166112935,13.034950166112935,18.03495016611293,16.034950166112935,13.034950166112935,10.034950166112935,6.034950166112934,3.0349501661129348,-2.9650498338870652,-6.965049833887066,-10.965049833887065,-14.965049833887065,-17.96504983388707,-16.965049833887065,-14.965049833887065,-7.965049833887066,-7.965049833887066,-0.9650498338870648,4.034950166112935,6.034950166112934,12.034950166112935,15.034950166112935,16.034950166112935,16.034950166112935,14.034950166112935,12.034950166112935,8.034950166112935,3.0349501661129348,-1.9650498338870648,-5.965049833887066,-12.965049833887065,-14.965049833887065,-19.96504983388707,-18.96504983388707,-12.965049833887065,-10.965049833887065,-5.965049833887066,0.03495016611293522,2.0349501661129348,6.034950166112934,12.034950166112935,15.034950166112935,16.034950166112935,17.034950166112935,15.034950166112935,12.034950166112935,8.034950166112935,3.0349501661129348,-0.9650498338870648,-4.965049833887066,-12.965049833887065,-15.965049833887065,-17.96504983388707,-19.96504983388707,-15.965049833887065,-9.965049833887065,-3.9650498338870652,0.03495016611293522,2.0349501661129348,8.034950166112935,12.034950166112935,16.034950166112935,17.034950166112935,16.034950166112935,19.03495016611293,13.034950166112935,8.034950166112935,2.0349501661129348,-4.965049833887066,-7.965049833887066,-15.965049833887065,-15.965049833887065,-17.96504983388707,-18.96504983388707,-11.965049833887065,-9.965049833887065,-4.965049833887066,1.0349501661129352,5.034950166112934,5.034950166112934,10.034950166112935,13.034950166112935,15.034950166112935,16.034950166112935,15.034950166112935,11.034950166112935,7.034950166112934,2.0349501661129348,-2.9650498338870652,-8.965049833887065,-12.965049833887065,-15.965049833887065,-17.96504983388707,-17.96504983388707,-11.965049833887065,-7.965049833887066,-6.965049833887066,0.03495016611293522,4.034950166112935,5.034950166112934,11.034950166112935,16.034950166112935,14.034950166112935,14.034950166112935,12.034950166112935,12.034950166112935,7.034950166112934,4.034950166112935,-0.9650498338870648,-5.965049833887066,-11.965049833887065,-15.965049833887065,-18.96504983388707,-17.96504983388707,-12.965049833887065,-5.965049833887066,-4.965049833887066,-0.9650498338870648,3.0349501661129348,6.034950166112934,11.034950166112935,11.034950166112935,14.034950166112935,14.034950166112935,15.034950166112935,11.034950166112935,8.034950166112935,3.0349501661129348,-3.9650498338870652,-4.965049833887066,-11.965049833887065,-13.965049833887065,-18.96504983388707,-15.965049833887065,-13.965049833887065,-7.965049833887066,-5.965049833887066,0.03495016611293522,4.034950166112935,7.034950166112934,12.034950166112935,15.034950166112935,16.034950166112935,16.034950166112935,15.034950166112935,11.034950166112935,6.034950166112934,4.034950166112935,-2.9650498338870652,-6.965049833887066,-13.965049833887065,-16.965049833887065,-20.96504983388707,-19.96504983388707,-13.965049833887065,-9.965049833887065,-4.965049833887066,-0.9650498338870648,2.0349501661129348,6.034950166112934,11.034950166112935,15.034950166112935,18.03495016611293,16.034950166112935,15.034950166112935,13.034950166112935,8.034950166112935,3.0349501661129348,-2.9650498338870652,-6.965049833887066,-12.965049833887065,-16.965049833887065,-18.96504983388707,-19.96504983388707,-15.965049833887065,-9.965049833887065,-5.965049833887066,1.0349501661129352,3.0349501661129348,5.034950166112934,12.034950166112935,13.034950166112935,16.034950166112935,17.034950166112935,17.034950166112935,12.034950166112935,9.034950166112935,4.034950166112935,-1.9650498338870648,-4.965049833887066,-11.965049833887065,-16.965049833887065,-15.965049833887065,-17.96504983388707,-14.965049833887065,-8.965049833887065,-6.965049833887066,-1.9650498338870648,2.0349501661129348,4.034950166112935,12.034950166112935,15.034950166112935,18.03495016611293,17.034950166112935,17.034950166112935,13.034950166112935,10.034950166112935,3.0349501661129348,-1.9650498338870648,-4.965049833887066,-12.965049833887065,-15.965049833887065,-19.96504983388707,-17.96504983388707,-12.965049833887065,-10.965049833887065,-7.965049833887066,-2.9650498338870652,4.034950166112935,6.034950166112934,11.034950166112935,12.034950166112935,16.034950166112935,15.034950166112935,16.034950166112935,14.034950166112935,7.034950166112934,3.0349501661129348,-1.9650498338870648,-8.965049833887065,-12.965049833887065,-14.965049833887065,-18.96504983388707,-18.96504983388707,-13.965049833887065,-10.965049833887065,-6.965049833887066,-2.9650498338870652,2.0349501661129348,5.034950166112934,9.034950166112935,12.034950166112935,15.034950166112935,14.034950166112935,16.034950166112935,12.034950166112935,11.034950166112935,4.034950166112935,0.03495016611293522,-2.9650498338870652,-10.965049833887065,-14.965049833887065,-18.96504983388707,-15.965049833887065,-10.965049833887065,-10.965049833887065,-6.965049833887066,-1.9650498338870648,4.034950166112935,5.034950166112934,11.034950166112935,16.034950166112935,17.034950166112935,17.034950166112935,14.034950166112935,11.034950166112935,8.034950166112935,2.0349501661129348,-1.9650498338870648,-6.965049833887066,-12.965049833887065,-16.965049833887065,-16.965049833887065,-16.965049833887065,-12.965049833887065,-10.965049833887065,-6.965049833887066,-1.9650498338870648,3.0349501661129348,5.034950166112934,12.034950166112935,14.034950166112935,17.034950166112935,16.034950166112935,18.03495016611293,13.034950166112935,7.034950166112934,4.034950166112935,-2.9650498338870652,-4.965049833887066
0.0,0.0,0.0,0.0,0.0,0.0,0.0,0.0,0.0,0.0,0.0,0.0,0.0,0.0,0.0,0.0,0.0,0.0,0.0,0.0,0.0,0.0,0.0,0.0,0.0,0.0,0.0,0.0,0.0,0.0,0.0,0.0,0.0,0.0,0.0,0.0,0.0,0.0,0.0,0.0,0.0,0.0,0.0,0.0,0.0,0.0,0.0,0.0,0.0,0.0,0.0,0.0,0.0,0.0,0.0,0.0,0.0,0.0,0.0,0.0,0.0,0.0,0.0,0.0,0.0,0.0,0.0,0.0,0.0,0.0,0.0,0.0,0.0,0.0,0.0,0.0,0.0,0.0,0.0,0.0,0.0,0.0,0.0,0.0,0.0,0.0,0.0,0.0,0.0,0.0,0.0,0.0,0.0,0.0,0.0,0.0,0.0,0.0,0.0,0.0,0.0,0.0,0.0,0.0,0.0,0.0,0.0,0.0,0.0,0.0,0.0,0.0,0.0,0.0,0.0,0.0,0.0,0.0,0.0,0.0,0.0,0.0,0.0,0.0,0.0,0.0,0.0,0.0,0.0,0.0,0.0,0.0,0.0,0.0,0.0,0.0,0.0,0.0,0.0,0.0,0.0,0.0,0.0,0.0,0.0,0.0,0.0,0.0,0.0,0.0,0.0,0.0,0.0,0.0,0.0,0.0,0.0,0.0,0.0,0.0,0.0,0.0,0.0,0.0,0.0,0.0,0.0,0.0,0.0,0.0,0.0,0.0,0.0,0.0,0.0,0.0,0.0,0.0,0.0,0.0,0.0,0.0,0.0,0.0,0.0,0.0,0.0,0.0,0.0,0.0,0.0,0.0,0.0,0.0,0.0,0.0,0.0,0.0,0.0,0.0,0.0,0.0,0.0,0.0,0.0,0.0,0.0,0.0,0.0,0.0,0.0,0.0,0.0,0.0,0.0,0.0,0.0,0.0,0.0,0.0,0.0,0.0,0.0,0.0,0.0,0.0,0.0,0.0,0.0,0.0,0.0,0.0,0.0,0.0,0.0,0.0,0.0,0.0,0.0,0.0,0.0,0.0,0.0,0.0,0.0,0.0,0.0,0.0,0.0,0.0,0.0,0.0,0.0,0.0,0.0,0.0,0.0,0.0,0.0,0.0,0.0,0.0,0.0,0.0,0.0,0.0,0.0,0.0,0.0,0.0,0.0,0.0,0.0,0.0,0.0,0.0,0.0,0.0,0.0,0.0,0.0,0.0,0.0,0.0,0.0,0.0,0.0,0.0,0.0,0.0,0.0,0.0,0.0,0.0,0.0,0.0,0.0,0.0,0.0,0.0,0.0,0.0,0.0,0.0,0.0,0.0,0.0,0.0,0.0,0.0,0.0,0.0,0.0,0.0,0.0,0.0,0.0,0.0,0.0,0.0,0.0,0.0,0.0,0.0,0.0,0.0,0.0,0.0,0.0,0.0,0.0,0.0,0.0,0.0,0.0,0.0,0.0,0.0,0.0,0.0,0.0,0.0,0.0,0.0,0.0,0.0,0.0,0.0,0.0,0.0,0.0,0.0,0.0,0.0,0.0,0.0,0.0,0.0,0.0,0.0,0.0,0.0,0.0,0.0,0.0,0.0,0.0,0.0,0.0,0.0,0.0,0.0,0.0,0.0,0.0,0.0,0.0,0.0,0.0,0.0,0.0,0.0,0.0,0.0,0.0,0.0,0.0,0.0,0.0,0.0,0.0,0.0,0.0,0.0,0.0,0.0,0.0,0.0,0.0,0.0,0.0,0.0,0.0,0.0,0.0,0.0,0.0,0.0,0.0,0.0,0.0,0.0,0.0,0.0,0.0,0.0,0.0,0.0,0.0,0.0,0.0,0.0,0.0,0.0,0.0,0.0,0.0,0.0,0.0,0.0,0.0,0.0,0.0,0.0,0.0,0.0,0.0,0.0,0.0,0.0,0.0,0.0,0.0,0.0,0.0,0.0,0.0,0.0,0.0,0.0,0.0,0.0,0.0,0.0,0.0,0.0,0.0,0.0,0.0,0.0,0.0,0.0,0.0,0.0,0.0,0.0,0.0,0.0,0.0,0.0,0.0,0.0,0.0,0.0,0.0,0.0,0.0,0.0,0.0,0.0,0.0,0.0,0.0,0.0,0.0,0.0,0.0,0.0,0.0,0.0,0.0,0.0,0.0,0.0,0.0,0.0,0.0,0.0,0.0,0.0,0.0,0.0,0.0,0.0,0.0,0.0,0.0,0.0,0.0,0.0,0.0,0.0
