0,1,2,3,4,5,6,7,8,9,10,11,12,13,14,15,16,17,18,19,20,21,22,23,24,25,26,27,28,29,30,31,32,33,34,35,36,37,38,39,40,41,42,43,44,45,46,47,48,49,50,51,52,53,54,55,56,57,58,59,60,61,62,63,64,65,66,67,68,69,70,71,72,73,74,75,76,77,78,79,80,81,82,83,84,85,86,87,88,89,90,91,92,93,94,95,96,97,98,99,100,101,102,103,104,105,106,107,108,109,110,111,112,113,114,115,116,117,118,119,120,121,122,123,124,125,126,127,128,129,130,131,132,133,134,135,136,137,138,139,140,141,142,143,144,145,146,147,148,149,150,151,152,153,154,155,156,157,158,159,160,161,162,163,164,165,166,167,168,169,170,171,172,173,174,175,176,177,178,179,180,181,182,183,184,185,186,187,188,189,190,191,192,193,194,195,196,197,198,199,200,201,202,203,204,205,206,207,208,209,210,211,212,213,214,215,216,217,218,219,220,221,222,223,224,225,226,227,228,229,230,231,232,233,234,235,236,237,238,239,240,241,242,243,244,245,246,247,248,249,250,251,252,253,254,255,256,257,258,259,260,261,262,263,264,265,266,267,268,269,270,271,272,273,274,275,276,277,278,279,280,281,282,283,284,285,286,287,288,289,290,291,292,293,294,295,296,297,298,299,300,301,302,303,304,305,306,307,308,309,310,311,312,313,314,315,316,317,318,319,320,321,322,323,324,325,326,327,328,329,330,331,332,333,334,335,336,337,338,339,340,341,342,343,344,345,346,347,348,349,350,351,352,353,354,355,356,357,358,359,360,361,362,363,364,365,366,367,368,369,370,371,372,373,374,375,376,377,378,379,380,381,382,383,384,385,386,387,388,389,390,391,392,393,394,395,396,397,398,399,400,401,402,403,404,405,406,407,408,409,410,411,412,413,414,415,416,417,418,419,420,421,422,423,424,425,426,427,428,429,430,431,432,433,434,435,436,437,438,439,440,441,442,443,444,445,446,447,448,449,450,451,452,453,454,455,456,457,458,459,460,461,462,463,464,465,466,467,468,469,470,471,472,473,474,475,476,477,478,479,480,481,482,483,484,485,486,487,488,489,490,491,492,493,494,495,496,497,498,499,500,501,502,503,504,505,506,507,508,509,510,511
-46.99382059800666,-13.993820598006664,19.006179401993336,59.00617940199334,59.00617940199334,54.00617940199334,64.00617940199334,103.00617940199335,119.00617940199335,93.00617940199335,62.00617940199334,-12.993820598006664,-95.99382059800665,-119.99382059800665,-135.99382059800664,-125.99382059800665,-93.99382059800665,-62.99382059800666,-31.993820598006664,-4.993820598006664,10.006179401993336,-7.993820598006664,-9.993820598006664,20.006179401993336,53.00617940199334,61.00617940199334,81.00617940199334,96.00617940199335,61.00617940199334,5.006179401993336,22.006179401993336,9.006179401993336,-1.993820598006664,-34.993820598006664,-54.99382059800666,-68.99382059800666,-58.99382059800666,-38.99382059800666,-34.993820598006664,-17.993820598006664,-9.993820598006664,47.00617940199334,19.006179401993336,10.006179401993336,22.006179401993336,-7.993820598006664,9.006179401993336,32.006179401993336,35.006179401993336,37.006179401993336,23.006179401993336,19.006179401993336,-2.9938205980066632,-35.993820598006664,-43.99382059800666,-27.993820598006664,-43.99382059800666,-14.993820598006664,14.006179401993336,32.006179401993336,70.00617940199334,52.00617940199334,61.00617940199334,56.00617940199334,13.006179401993336,-43.99382059800666,-46.99382059800666,-27.993820598006664,-44.99382059800666,-36.99382059800666,-36.99382059800666,-65.99382059800666,-43.99382059800666,-2.9938205980066632,-22.993820598006664,-27.993820598006664,-5.993820598006664,4.006179401993337,36.006179401993336,41.006179401993336,71.00617940199334,91.00617940199335,77.00617940199334,14.006179401993336,-46.99382059800666,-83.99382059800666,-67.99382059800666,-22.993820598006664,49.00617940199334,32.006179401993336,-5.993820598006664,-10.993820598006664,-28.993820598006664,-43.99382059800666,40.006179401993336,29.006179401993336,1.006179401993336,-39.99382059800666,-26.993820598006664,1.006179401993336,2.006179401993336,-11.993820598006664,27.006179401993336,53.00617940199334,86.00617940199335,53.00617940199334,33.006179401993336,22.006179401993336,-1.993820598006664,-9.993820598006664,-78.99382059800666,-94.99382059800665,-82.99382059800666,-74.99382059800666,-3.9938205980066632,62.00617940199334,84.00617940199334,129.00617940199336,82.00617940199334,12.006179401993336,-89.99382059800665,-102.99382059800665,-57.99382059800666,-36.99382059800666,-55.99382059800666,-42.99382059800666,35.006179401993336,43.00617940199333,15.006179401993336,20.006179401993336,84.00617940199334,86.00617940199335,99.00617940199335,38.006179401993336,-51.99382059800666,-68.99382059800666,-53.99382059800666,-57.99382059800666,-18.993820598006664,-25.993820598006664,-58.99382059800666,-77.99382059800666,-47.99382059800666,6.006179401993336,110.00617940199335,179.00617940199334,169.00617940199336,94.00617940199335,-7.993820598006664,-34.993820598006664,-94.99382059800665,-148.99382059800664,-120.99382059800665,-122.99382059800665,-38.99382059800666,13.006179401993336,-4.993820598006664,31.006179401993336,156.00617940199336,202.0061794019933,59.00617940199334,-27.993820598006664,-46.99382059800666,-67.99382059800666,-58.99382059800666,-54.99382059800666,-47.99382059800666,-28.993820598006664,13.006179401993336,69.00617940199334,109.00617940199335,152.00617940199336,56.00617940199334,-88.99382059800665,-97.99382059800665,-78.99382059800666,-80.99382059800666,-91.99382059800665,-50.99382059800666,41.006179401993336,100.00617940199335,123.00617940199335,64.00617940199334,43.00617940199333,33.006179401993336,-26.993820598006664,-24.993820598006664,-59.99382059800666,-14.993820598006664,11.006179401993336,-25.993820598006664,-54.99382059800666,-82.99382059800666,-94.99382059800665,-79.99382059800666,11.006179401993336,126.00617940199335,114.00617940199335,147.00617940199336,158.00617940199336,22.006179401993336,-84.99382059800666,-129.99382059800664,-111.99382059800665,-14.993820598006664,1.006179401993336,2.006179401993336,-4.993820598006664,39.006179401993336,29.006179401993336,-14.993820598006664,-72.99382059800666,-105.99382059800665,-27.993820598006664,64.00617940199334,33.006179401993336,94.00617940199335,164.00617940199336,73.00617940199334,17.006179401993336,-85.99382059800665,-122.99382059800665,-65.99382059800666,-20.993820598006664,12.006179401993336,-8.993820598006664,-42.99382059800666,-79.99382059800666,-76.99382059800666,70.00617940199334,117.00617940199335,106.00617940199335,168.00617940199336,124.00617940199335,-33.993820598006664,-176.99382059800666,-149.99382059800664,-100.99382059800665,-15.993820598006664,36.006179401993336,61.00617940199334,31.006179401993336,61.00617940199334,12.006179401993336,-54.99382059800666,-39.99382059800666,11.006179401993336,12.006179401993336,49.00617940199334,9.006179401993336,-36.99382059800666,-58.99382059800666,-7.993820598006664,20.006179401993336,17.006179401993336,16.006179401993336,-1.993820598006664,-6.993820598006664,-13.993820598006664,-7.993820598006664,-10.993820598006664,-34.993820598006664,31.006179401993336,105.00617940199335,67.00617940199334,46.00617940199334,54.00617940199334,18.006179401993336,-60.99382059800666,-114.99382059800665,-131.99382059800664,-108.99382059800665,-68.99382059800666,-43.99382059800666,-15.993820598006664,75.00617940199334,108.00617940199335,136.00617940199336,57.00617940199334,6.006179401993336,63.00617940199334,67.00617940199334,-26.993820598006664,-116.99382059800665,-78.99382059800666,6.006179401993336,12.006179401993336,17.006179401993336,36.006179401993336,3.0061794019933368,-67.99382059800666,-81.99382059800666,-49.99382059800666,19.006179401993336,27.006179401993336,94.00617940199335,113.00617940199335,49.00617940199334,-1.993820598006664,-79.99382059800666,-73.99382059800666,-81.99382059800666,-45.99382059800666,-24.993820598006664,-9.993820598006664,-17.993820598006664,54.00617940199334,130.00617940199336,107.00617940199335,2.006179401993336,11.006179401993336,33.006179401993336,-5.993820598006664,-55.99382059800666,-36.99382059800666,-5.993820598006664,-45.99382059800666,-58.99382059800666,-27.993820598006664,-6.993820598006664,-58.99382059800666,-71.99382059800666,-9.993820598006664,103.00617940199335,94.00617940199335,55.00617940199334,61.00617940199334,38.006179401993336,-19.993820598006664,-82.99382059800666,-67.99382059800666,-37.99382059800666,-13.993820598006664,36.006179401993336,46.00617940199334,76.00617940199334,49.00617940199334,-13.993820598006664,-76.99382059800666,-88.99382059800665,-58.99382059800666,-50.99382059800666,-7.993820598006664,20.006179401993336,18.006179401993336,30.006179401993336,113.00617940199335,121.00617940199335,14.006179401993336,-34.993820598006664,-47.99382059800666,-50.99382059800666,-26.993820598006664,5.006179401993336,51.00617940199334,40.006179401993336,28.006179401993336,-28.993820598006664,-39.99382059800666,-75.99382059800666,-137.99382059800664,-115.99382059800665,-35.993820598006664,-10.993820598006664,14.006179401993336,140.00617940199336,185.0061794019933,102.00617940199335,70.00617940199334,92.00617940199335,40.006179401993336,-23.993820598006664,-47.99382059800666,-139.99382059800664,-115.99382059800665,-74.99382059800666,30.006179401993336,81.00617940199334,-30.993820598006664,-113.99382059800665,-124.99382059800665,-135.99382059800664,-59.99382059800666,53.00617940199334,94.00617940199335,128.00617940199336,111.00617940199335,20.006179401993336,-17.993820598006664,-2.9938205980066632,81.00617940199334,179.00617940199334,224.0061794019933,83.00617940199334,-69.99382059800666,-92.99382059800665,-74.99382059800666,-71.99382059800666,-66.99382059800666,-104.99382059800665,-134.99382059800664,-158.99382059800664,-147.99382059800664,-130.99382059800664,-119.99382059800665,-43.99382059800666,55.00617940199334,171.00617940199336,232.0061794019933,148.00617940199336,94.00617940199335,87.00617940199335,74.00617940199334,135.00617940199336,124.00617940199335,49.00617940199334,13.006179401993336,53.00617940199334,-26.993820598006664,-100.99382059800665,-61.99382059800666,-82.99382059800666,-98.99382059800665,-51.99382059800666,-39.99382059800666,5.006179401993336,-3.9938205980066632,-23.993820598006664,-125.99382059800665,-141.99382059800664,-90.99382059800665,-26.993820598006664,75.00617940199334,138.00617940199336,69.00617940199334,53.00617940199334,93.00617940199335,18.006179401993336,-15.993820598006664,-45.99382059800666,-26.993820598006664,-88.99382059800665,-125.99382059800665,-59.99382059800666,17.006179401993336,68.00617940199334,132.00617940199336,132.00617940199336,110.00617940199335,30.006179401993336,-77.99382059800666,-170.99382059800664,-134.99382059800664,-52.99382059800666,15.006179401993336,-30.993820598006664,27.006179401993336,115.00617940199335,92.00617940199335,54.00617940199334,69.00617940199334,21.006179401993336,-26.993820598006664,1.006179401993336,-4.993820598006664,-19.993820598006664,-76.99382059800666,-126.99382059800665,-81.99382059800666,18.006179401993336,91.00617940199335,113.00617940199335,94.00617940199335,21.006179401993336,-2.9938205980066632,25.006179401993336,60.00617940199334,46.00617940199334,-10.993820598006664,-76.99382059800666,-108.99382059800665,-111.99382059800665,-108.99382059800665,-58.99382059800666,10.006179401993336,57.00617940199334,38.006179401993336,8.006179401993336,-41.99382059800666,-81.99382059800666,-44.99382059800666,9.006179401993336,73.00617940199334,88.00617940199335,93.00617940199335,77.00617940199334,41.006179401993336,64.00617940199334,53.00617940199334,2.006179401993336,-22.993820598006664,-33.993820598006664,-25.993820598006664,-77.99382059800666,-99.99382059800665,-51.99382059800666,-26.993820598006664,-46.99382059800666,-22.993820598006664,47.00617940199334,67.00617940199334,48.00617940199334
1.0,1.0,1.0,1.0,1.0,1.0,1.0,1.0,1.0,1.0,1.0,1.0,1.0,1.0,1.0,1.0,1.0,1.0,1.0,1.0,1.0,1.0,1.0,1.0,1.0,1.0,1.0,1.0,1.0,1.0,1.0,1.0,1.0,1.0,1.0,1.0,1.0,1.0,1.0,1.0,1.0,1.0,1.0,1.0,1.0,1.0,1.0,1.0,1.0,1.0,1.0,1.0,1.0,1.0,1.0,1.0,1.0,1.0,1.0,1.0,1.0,1.0,1.0,1.0,1.0,1.0,1.0,1.0,1.0,1.0,1.0,1.0,1.0,1.0,1.0,1.0,1.0,1.0,1.0,1.0,1.0,1.0,1.0,1.0,1.0,1.0,1.0,1.0,1.0,1.0,1.0,1.0,1.0,1.0,1.0,1.0,1.0,1.0,1.0,1.0,1.0,1.0,1.0,1.0,1.0,1.0,1.0,1.0,1.0,1.0,1.0,1.0,1.0,1.0,1.0,1.0,1.0,1.0,1.0,1.0,1.0,1.0,1.0,1.0,1.0,1.0,1.0,1.0,1.0,1.0,1.0,1.0,1.0,1.0,1.0,1.0,1.0,1.0,1.0,1.0,1.0,1.0,1.0,1.0,1.0,1.0,1.0,1.0,1.0,1.0,1.0,1.0,1.0,1.0,1.0,1.0,1.0,1.0,1.0,1.0,1.0,1.0,1.0,1.0,1.0,1.0,1.0,1.0,1.0,1.0,1.0,1.0,1.0,1.0,1.0,1.0,1.0,1.0,1.0,1.0,1.0,1.0,1.0,1.0,1.0,1.0,1.0,1.0,1.0,1.0,1.0,1.0,1.0,1.0,1.0,1.0,1.0,1.0,1.0,1.0,1.0,1.0,1.0,1.0,1.0,1.0,1.0,1.0,1.0,1.0,1.0,1.0,1.0,1.0,1.0,1.0,1.0,1.0,1.0,1.0,1.0,1.0,1.0,1.0,1.0,1.0,1.0,1.0,1.0,1.0,1.0,1.0,1.0,1.0,1.0,1.0,1.0,1.0,1.0,1.0,1.0,1.0,1.0,1.0,1.0,1.0,1.0,1.0,1.0,1.0,1.0,1.0,1.0,1.0,1.0,1.0,1.0,1.0,1.0,1.0,1.0,1.0,1.0,1.0,1.0,1.0,1.0,1.0,1.0,1.0,1.0,1.0,1.0,1.0,1.0,1.0,1.0,1.0,1.0,1.0,1.0,1.0,1.0,1.0,1.0,1.0,1.0,1.0,1.0,1.0,1.0,1.0,1.0,1.0,1.0,1.0,1.0,1.0,1.0,1.0,1.0,1.0,1.0,1.0,1.0,1.0,1.0,1.0,1.0,1.0,1.0,1.0,1.0,1.0,1.0,1.0,1.0,1.0,1.0,1.0,1.0,1.0,1.0,1.0,1.0,1.0,1.0,1.0,1.0,1.0,1.0,1.0,1.0,1.0,1.0,1.0,1.0,1.0,1.0,1.0,1.0,1.0,1.0,1.0,1.0,1.0,1.0,1.0,1.0,1.0,1.0,1.0,1.0,1.0,1.0,1.0,1.0,1.0,1.0,1.0,1.0,1.0,1.0,1.0,1.0,1.0,1.0,1.0,1.0,1.0,1.0,1.0,1.0,1.0,1.0,1.0,1.0,1.0,1.0,1.0,1.0,1.0,1.0,1.0,1.0,1.0,1.0,1.0,1.0,1.0,1.0,1.0,1.0,1.0,1.0,1.0,1.0,1.0,1.0,1.0,1.0,1.0,1.0,1.0,1.0,1.0,1.0,1.0,1.0,1.0,1.0,1.0,1.0,1.0,1.0,1.0,1.0,1.0,1.0,1.0,1.0,1.0,1.0,1.0,1.0,1.0,1.0,1.0,1.0,1.0,1.0,1.0,1.0,1.0,1.0,1.0,1.0,1.0,1.0,1.0,1.0,1.0,1.0,1.0,1.0,1.0,1.0,1.0,1.0,1.0,1.0,1.0,1.0,1.0,1.0,1.0,1.0,1.0,1.0,1.0,1.0,1.0,1.0,1.0,1.0,1.0,1.0,1.0,1.0,1.0,1.0,1.0,1.0,1.0,1.0,1.0,1.0,1.0,1.0,1.0,1.0,1.0,1.0,1.0,1.0,1.0,1.0,1.0,1.0,1.0,1.0,1.0,1.0,1.0,1.0,1.0,1.0,1.0,1.0,1.0,1.0,1.0,1.0,1.0,1.0,1.0,1.0,1.0,1.0,1.0,1.0,1.0
