0,1,2,3,4,5,6,7,8,9,10,11,12,13,14,15,16,17,18,19,20,21,22,23,24,25,26,27,28,29,30,31,32,33,34,35,36,37,38,39,40,41,42,43,44,45,46,47,48,49,50,51,52,53,54,55,56,57,58,59,60,61,62,63,64,65,66,67,68,69,70,71,72,73,74,75,76,77,78,79,80,81,82,83,84,85,86,87,88,89,90,91,92,93,94,95,96,97,98,99,100,101,102,103,104,105,106,107,108,109,110,111,112,113,114,115,116,117,118,119,120,121,122,123,124,125,126,127,128,129,130,131,132,133,134,135,136,137,138,139,140,141,142,143,144,145,146,147,148,149,150,151,152,153,154,155,156,157,158,159,160,161,162,163,164,165,166,167,168,169,170,171,172,173,174,175,176,177,178,179,180,181,182,183,184,185,186,187,188,189,190,191,192,193,194,195,196,197,198,199,200,201,202,203,204,205,206,207,208,209,210,211,212,213,214,215,216,217,218,219,220,221,222,223,224,225,226,227,228,229,230,231,232,233,234,235,236,237,238,239,240,241,242,243,244,245,246,247,248,249,250,251,252,253,254,255,256,257,258,259,260,261,262,263,264,265,266,267,268,269,270,271,272,273,274,275,276,277,278,279,280,281,282,283,284,285,286,287,288,289,290,291,292,293,294,295,296,297,298,299,300,301,302,303,304,305,306,307,308,309,310,311,312,313,314,315,316,317,318,319,320,321,322,323,324,325,326,327,328,329,330,331,332,333,334,335,336,337,338,339,340,341,342,343,344,345,346,347,348,349,350,351,352,353,354,355,356,357,358,359,360,361,362,363,364,365,366,367,368,369,370,371,372,373,374,375,376,377,378,379,380,381,382,383,384,385,386,387,388,389,390,391,392,393,394,395,396,397,398,399,400,401,402,403,404,405,406,407,408,409,410,411,412,413,414,415,416,417,418,419,420,421,422,423,424,425,426,427,428,429,430,431,432,433,434,435,436,437,438,439,440,441,442,443,444,445,446,447,448,449,450,451,452,453,454,455,456,457,458,459,460,461,462,463,464,465,466,467,468,469,470,471,472,473,474,475,476,477,478,479,480,481,482,483,484,485,486,487,488,489,490,491,492,493,494,495,496,497,498,499,500,501,502,503,504,505,506,507,508,509,510,511
-12.98398671096345,-9.98398671096345,-7.983986710963451,-0.9839867109634496,3.0160132890365503,-3.9839867109634497,-4.98398671096345,8.016013289036549,13.01601328903655,6.016013289036549,2.0160132890365503,1.0160132890365503,-0.9839867109634496,7.016013289036549,17.01601328903655,13.01601328903655,8.016013289036549,-2.9839867109634497,-15.98398671096345,-18.98398671096345,-18.98398671096345,-15.98398671096345,-11.98398671096345,-1.9839867109634497,7.016013289036549,11.01601328903655,16.01601328903655,12.01601328903655,23.01601328903655,11.01601328903655,-2.9839867109634497,3.0160132890365503,6.016013289036549,-1.9839867109634497,-2.9839867109634497,-6.983986710963451,-3.9839867109634497,-7.983986710963451,-13.98398671096345,-20.98398671096345,-18.98398671096345,-26.98398671096345,-18.98398671096345,-5.983986710963451,-7.983986710963451,-4.98398671096345,-5.983986710963451,-7.983986710963451,-1.9839867109634497,31.01601328903655,73.01601328903655,68.01601328903655,32.01601328903655,-3.9839867109634497,-31.98398671096345,-43.98398671096345,-37.98398671096346,-34.98398671096345,-38.98398671096346,-10.98398671096345,14.01601328903655,22.01601328903655,43.01601328903655,64.01601328903655,51.01601328903655,43.01601328903655,13.01601328903655,-13.98398671096345,-18.98398671096345,-18.98398671096345,-22.98398671096345,-39.98398671096346,-32.98398671096345,-9.98398671096345,36.01601328903654,76.01601328903655,56.01601328903655,27.01601328903655,25.01601328903655,5.01601328903655,-30.98398671096345,-25.98398671096345,-44.98398671096345,-76.98398671096345,-69.98398671096345,-44.98398671096345,-9.98398671096345,20.01601328903655,17.01601328903655,17.01601328903655,16.01601328903655,0.016013289036550304,-11.98398671096345,-23.98398671096345,-26.98398671096345,-22.98398671096345,-13.98398671096345,6.016013289036549,32.01601328903655,45.01601328903655,52.01601328903655,60.01601328903655,41.01601328903654,1.0160132890365503,-6.983986710963451,-33.98398671096345,-64.98398671096345,-64.98398671096345,-28.98398671096345,20.01601328903655,49.01601328903655,48.01601328903655,26.01601328903655,1.0160132890365503,-36.98398671096346,-41.98398671096346,-17.98398671096345,47.01601328903655,56.01601328903655,16.01601328903655,-0.9839867109634496,-5.983986710963451,17.01601328903655,6.016013289036549,-32.98398671096345,-67.98398671096345,-25.98398671096345,12.01601328903655,29.01601328903655,49.01601328903655,52.01601328903655,20.01601328903655,-1.9839867109634497,-7.983986710963451,-11.98398671096345,-29.98398671096345,-41.98398671096346,-57.98398671096345,-48.98398671096345,-11.98398671096345,11.01601328903655,6.016013289036549,-13.98398671096345,-32.98398671096345,-1.9839867109634497,26.01601328903655,24.01601328903655,6.016013289036549,-22.98398671096345,-41.98398671096346,17.01601328903655,60.01601328903655,50.01601328903655,69.01601328903655,55.01601328903655,21.01601328903655,-8.98398671096345,-14.98398671096345,-37.98398671096346,-66.98398671096345,-50.98398671096345,-31.98398671096345,-29.98398671096345,-1.9839867109634497,36.01601328903654,65.01601328903655,29.01601328903655,-1.9839867109634497,12.01601328903655,42.01601328903654,18.01601328903655,-34.98398671096345,-30.98398671096345,-27.98398671096345,-40.98398671096346,-39.98398671096346,-53.98398671096345,-40.98398671096346,18.01601328903655,67.01601328903655,30.01601328903655,6.016013289036549,2.0160132890365503,1.0160132890365503,-32.98398671096345,7.016013289036549,33.01601328903655,46.01601328903655,62.01601328903655,52.01601328903655,50.01601328903655,2.0160132890365503,-51.98398671096345,-77.98398671096345,-46.98398671096345,-36.98398671096346,-33.98398671096345,-41.98398671096346,18.01601328903655,62.01601328903655,10.01601328903655,-31.98398671096345,-51.98398671096345,-21.98398671096345,7.016013289036549,30.01601328903655,23.01601328903655,20.01601328903655,44.01601328903655,68.01601328903655,11.01601328903655,-53.98398671096345,-20.98398671096345,-10.98398671096345,-16.98398671096345,-0.9839867109634496,21.01601328903655,72.01601328903655,90.01601328903654,2.0160132890365503,-66.98398671096345,-60.98398671096345,-21.98398671096345,5.01601328903655,5.01601328903655,-14.98398671096345,-1.9839867109634497,11.01601328903655,5.01601328903655,-12.98398671096345,-46.98398671096345,-19.98398671096345,5.01601328903655,16.01601328903655,1.0160132890365503,-11.98398671096345,-34.98398671096345,-35.98398671096346,11.01601328903655,21.01601328903655,32.01601328903655,61.01601328903655,15.01601328903655,9.01601328903655,2.0160132890365503,-6.983986710963451,-1.9839867109634497,1.0160132890365503,47.01601328903655,57.01601328903655,23.01601328903655,-25.98398671096345,-52.98398671096345,-34.98398671096345,-20.98398671096345,-13.98398671096345,-38.98398671096346,-35.98398671096346,1.0160132890365503,10.01601328903655,19.01601328903655,11.01601328903655,-6.983986710963451,35.01601328903655,-19.98398671096345,-65.98398671096345,-52.98398671096345,13.01601328903655,107.01601328903656,116.01601328903656,67.01601328903655,-1.9839867109634497,-54.98398671096345,-63.98398671096345,-45.98398671096345,-24.98398671096345,-29.98398671096345,-32.98398671096345,-33.98398671096345,8.016013289036549,37.01601328903654,24.01601328903655,25.01601328903655,52.01601328903655,46.01601328903655,24.01601328903655,-9.98398671096345,-11.98398671096345,4.01601328903655,-11.98398671096345,-34.98398671096345,-15.98398671096345,-54.98398671096345,-44.98398671096345,1.0160132890365503,30.01601328903655,24.01601328903655,70.01601328903655,73.01601328903655,6.016013289036549,-28.98398671096345,-46.98398671096345,-68.98398671096345,-61.98398671096345,-46.98398671096345,-34.98398671096345,-9.98398671096345,12.01601328903655,92.01601328903656,140.01601328903655,76.01601328903655,11.01601328903655,-20.98398671096345,-31.98398671096345,-28.98398671096345,-3.9839867109634497,-5.983986710963451,14.01601328903655,1.0160132890365503,-4.98398671096345,-30.98398671096345,-57.98398671096345,-34.98398671096345,-6.983986710963451,-28.98398671096345,-29.98398671096345,-12.98398671096345,6.016013289036549,32.01601328903655,76.01601328903655,39.01601328903654,33.01601328903655,45.01601328903655,19.01601328903655,-34.98398671096345,-94.98398671096344,-79.98398671096345,-13.98398671096345,39.01601328903654,68.01601328903655,76.01601328903655,15.01601328903655,-17.98398671096345,-56.98398671096345,-28.98398671096345,-2.9839867109634497,22.01601328903655,-6.983986710963451,2.0160132890365503,20.01601328903655,23.01601328903655,-8.98398671096345,-17.98398671096345,-11.98398671096345,4.01601328903655,-14.98398671096345,-29.98398671096345,-10.98398671096345,-20.98398671096345,10.01601328903655,9.01601328903655,21.01601328903655,39.01601328903654,43.01601328903655,20.01601328903655,-34.98398671096345,-38.98398671096346,-25.98398671096345,-6.983986710963451,19.01601328903655,10.01601328903655,14.01601328903655,4.01601328903655,-3.9839867109634497,6.016013289036549,-1.9839867109634497,-28.98398671096345,-28.98398671096345,4.01601328903655,1.0160132890365503,-49.98398671096345,-67.98398671096345,1.0160132890365503,53.01601328903655,33.01601328903655,16.01601328903655,9.01601328903655,19.01601328903655,22.01601328903655,-5.983986710963451,-21.98398671096345,5.01601328903655,4.01601328903655,-9.98398671096345,-33.98398671096345,-28.98398671096345,7.016013289036549,59.01601328903655,78.01601328903655,32.01601328903655,8.016013289036549,-2.9839867109634497,-16.98398671096345,-17.98398671096345,-30.98398671096345,-28.98398671096345,-19.98398671096345,-49.98398671096345,-27.98398671096345,24.01601328903655,-1.9839867109634497,-23.98398671096345,-19.98398671096345,35.01601328903655,51.01601328903655,45.01601328903655,34.01601328903655,1.0160132890365503,-14.98398671096345,-23.98398671096345,8.016013289036549,8.016013289036549,-23.98398671096345,-11.98398671096345,-8.98398671096345,-17.98398671096345,0.016013289036550304,12.01601328903655,11.01601328903655,-1.9839867109634497,-36.98398671096346,-44.98398671096345,-2.9839867109634497,21.01601328903655,57.01601328903655,80.01601328903655,41.01601328903654,-36.98398671096346,-59.98398671096345,-56.98398671096345,-18.98398671096345,19.01601328903655,8.016013289036549,5.01601328903655,-7.983986710963451,-42.98398671096345,-22.98398671096345,-15.98398671096345,-11.98398671096345,19.01601328903655,54.01601328903655,54.01601328903655,61.01601328903655,68.01601328903655,51.01601328903655,7.016013289036549,-13.98398671096345,-25.98398671096345,-28.98398671096345,-37.98398671096346,-49.98398671096345,-47.98398671096345,-54.98398671096345,-41.98398671096346,-33.98398671096345,-54.98398671096345,-14.98398671096345,40.01601328903654,48.01601328903655,38.01601328903654,53.01601328903655,70.01601328903655,33.01601328903655,25.01601328903655,9.01601328903655,17.01601328903655,14.01601328903655,4.01601328903655,-1.9839867109634497,-11.98398671096345,-21.98398671096345,-23.98398671096345,-41.98398671096346,-42.98398671096345,-18.98398671096345,-3.9839867109634497,-19.98398671096345,-11.98398671096345,44.01601328903655,44.01601328903655,2.0160132890365503,-25.98398671096345,20.01601328903655,74.01601328903655,73.01601328903655,28.01601328903655,-51.98398671096345,-127.98398671096344,-160.98398671096345,-140.98398671096345,-104.98398671096344,-38.98398671096346,94.01601328903656,120.01601328903656,101.01601328903656,102.01601328903656,59.01601328903655,-2.9839867109634497,2.0160132890365503,30.01601328903655,40.01601328903654,59.01601328903655
0.0,0.0,0.0,0.0,0.0,0.0,0.0,0.0,0.0,0.0,0.0,0.0,0.0,0.0,0.0,0.0,0.0,0.0,0.0,0.0,0.0,0.0,0.0,0.0,0.0,0.0,0.0,0.0,0.0,1.0,1.0,1.0,1.0,1.0,1.0,1.0,1.0,1.0,1.0,1.0,1.0,1.0,1.0,1.0,1.0,1.0,1.0,1.0,1.0,1.0,1.0,1.0,1.0,1.0,1.0,1.0,1.0,1.0,1.0,1.0,1.0,1.0,1.0,1.0,1.0,1.0,1.0,1.0,1.0,1.0,1.0,1.0,1.0,1.0,1.0,1.0,1.0,1.0,1.0,1.0,1.0,1.0,1.0,1.0,1.0,1.0,1.0,1.0,1.0,1.0,1.0,1.0,1.0,1.0,1.0,1.0,1.0,1.0,1.0,1.0,1.0,1.0,1.0,1.0,1.0,1.0,1.0,1.0,1.0,1.0,1.0,1.0,1.0,1.0,1.0,1.0,1.0,1.0,1.0,1.0,1.0,1.0,1.0,1.0,1.0,1.0,1.0,1.0,1.0,1.0,1.0,1.0,1.0,1.0,1.0,1.0,1.0,1.0,1.0,1.0,1.0,1.0,1.0,1.0,1.0,1.0,1.0,1.0,1.0,1.0,1.0,1.0,1.0,1.0,1.0,1.0,1.0,1.0,1.0,1.0,1.0,1.0,1.0,1.0,1.0,1.0,1.0,1.0,1.0,1.0,1.0,1.0,1.0,1.0,1.0,1.0,1.0,1.0,1.0,1.0,1.0,1.0,1.0,1.0,1.0,1.0,1.0,1.0,1.0,1.0,1.0,1.0,1.0,1.0,1.0,1.0,1.0,1.0,1.0,1.0,1.0,1.0,1.0,1.0,1.0,1.0,1.0,1.0,1.0,1.0,1.0,1.0,1.0,1.0,1.0,1.0,1.0,1.0,1.0,1.0,1.0,1.0,1.0,1.0,1.0,1.0,1.0,1.0,1.0,1.0,1.0,1.0,1.0,1.0,1.0,1.0,1.0,1.0,1.0,1.0,1.0,1.0,1.0,1.0,1.0,1.0,1.0,1.0,1.0,1.0,1.0,1.0,1.0,1.0,1.0,1.0,1.0,1.0,1.0,1.0,1.0,1.0,1.0,1.0,1.0,1.0,1.0,1.0,1.0,1.0,1.0,1.0,1.0,1.0,1.0,1.0,1.0,1.0,1.0,1.0,1.0,1.0,1.0,1.0,1.0,1.0,1.0,1.0,1.0,1.0,1.0,1.0,1.0,1.0,1.0,1.0,1.0,1.0,1.0,1.0,1.0,1.0,1.0,1.0,1.0,1.0,1.0,1.0,1.0,1.0,1.0,1.0,1.0,1.0,1.0,1.0,1.0,1.0,1.0,1.0,1.0,1.0,1.0,1.0,1.0,1.0,1.0,1.0,1.0,1.0,1.0,1.0,1.0,1.0,1.0,1.0,1.0,1.0,1.0,1.0,1.0,1.0,1.0,1.0,1.0,1.0,1.0,1.0,1.0,1.0,1.0,1.0,1.0,1.0,1.0,1.0,1.0,1.0,1.0,1.0,1.0,1.0,1.0,1.0,1.0,1.0,1.0,1.0,1.0,1.0,1.0,1.0,1.0,1.0,1.0,1.0,1.0,1.0,1.0,1.0,1.0,1.0,1.0,1.0,1.0,1.0,1.0,1.0,1.0,1.0,1.0,1.0,1.0,1.0,1.0,1.0,1.0,1.0,1.0,1.0,1.0,1.0,1.0,1.0,1.0,1.0,1.0,1.0,1.0,1.0,1.0,1.0,1.0,1.0,1.0,1.0,1.0,1.0,1.0,1.0,1.0,1.0,1.0,1.0,1.0,1.0,1.0,1.0,1.0,1.0,1.0,1.0,1.0,1.0,1.0,1.0,1.0,1.0,1.0,1.0,1.0,1.0,1.0,1.0,1.0,1.0,1.0,1.0,1.0,1.0,1.0,1.0,1.0,1.0,1.0,1.0,1.0,1.0,1.0,1.0,1.0,1.0,1.0,1.0,1.0,1.0,1.0,1.0,1.0,1.0,1.0,1.0,1.0,1.0,1.0,1.0,1.0,1.0,1.0,1.0,1.0,1.0,1.0,1.0,1.0,1.0,1.0,1.0,1.0,1.0,1.0,1.0,1.0,1.0,1.0,1.0,1.0,1.0,1.0,1.0,1.0,1.0,1.0,1.0,1.0,1.0,1.0,1.0,1.0,1.0,1.0,1.0
