0,1,2,3,4,5,6,7,8,9,10,11,12,13,14,15,16,17,18,19,20,21,22,23,24,25,26,27,28,29,30,31,32,33,34,35,36,37,38,39,40,41,42,43,44,45,46,47,48,49,50,51,52,53,54,55,56,57,58,59,60,61,62,63,64,65,66,67,68,69,70,71,72,73,74,75,76,77,78,79,80,81,82,83,84,85,86,87,88,89,90,91,92,93,94,95,96,97,98,99,100,101,102,103,104,105,106,107,108,109,110,111,112,113,114,115,116,117,118,119,120,121,122,123,124,125,126,127,128,129,130,131,132,133,134,135,136,137,138,139,140,141,142,143,144,145,146,147,148,149,150,151,152,153,154,155,156,157,158,159,160,161,162,163,164,165,166,167,168,169,170,171,172,173,174,175,176,177,178,179,180,181,182,183,184,185,186,187,188,189,190,191,192,193,194,195,196,197,198,199,200,201,202,203,204,205,206,207,208,209,210,211,212,213,214,215,216,217,218,219,220,221,222,223,224,225,226,227,228,229,230,231,232,233,234,235,236,237,238,239,240,241,242,243,244,245,246,247,248,249,250,251,252,253,254,255,256,257,258,259,260,261,262,263,264,265,266,267,268,269,270,271,272,273,274,275,276,277,278,279,280,281,282,283,284,285,286,287,288,289,290,291,292,293,294,295,296,297,298,299,300,301,302,303,304,305,306,307,308,309,310,311,312,313,314,315,316,317,318,319,320,321,322,323,324,325,326,327,328,329,330,331,332,333,334,335,336,337,338,339,340,341,342,343,344,345,346,347,348,349,350,351,352,353,354,355,356,357,358,359,360,361,362,363,364,365,366,367,368,369,370,371,372,373,374,375,376,377,378,379,380,381,382,383,384,385,386,387,388,389,390,391,392,393,394,395,396,397,398,399,400,401,402,403,404,405,406,407,408,409,410,411,412,413,414,415,416,417,418,419,420,421,422,423,424,425,426,427,428,429,430,431,432,433,434,435,436,437,438,439,440,441,442,443,444,445,446,447,448,449,450,451,452,453,454,455,456,457,458,459,460,461,462,463,464,465,466,467,468,469,470,471,472,473,474,475,476,477,478,479,480,481,482,483,484,485,486,487,488,489,490,491,492,493,494,495,496,497,498,499,500,501,502,503,504,505,506,507,508,509,510,511
-27.991860465116304,-23.991860465116304,-14.991860465116305,-12.991860465116305,-1.991860465116304,12.008139534883695,22.008139534883696,22.008139534883696,23.008139534883696,25.008139534883696,23.008139534883696,20.008139534883696,14.008139534883695,7.0081395348836955,-4.991860465116304,-7.9918604651163045,-19.991860465116304,-23.991860465116304,-24.991860465116304,-27.991860465116304,-22.991860465116304,-14.991860465116305,-14.991860465116305,-7.9918604651163045,2.0081395348836963,8.008139534883696,29.008139534883696,33.008139534883696,37.008139534883696,42.008139534883696,24.008139534883696,17.008139534883696,5.008139534883696,-1.991860465116304,-7.9918604651163045,-10.991860465116305,-23.991860465116304,-22.991860465116304,-24.991860465116304,-28.991860465116304,-25.991860465116304,-20.991860465116304,-14.991860465116305,-2.991860465116304,2.0081395348836963,12.008139534883695,22.008139534883696,22.008139534883696,20.008139534883696,16.008139534883696,16.008139534883696,12.008139534883695,13.008139534883695,17.008139534883696,19.008139534883696,1.0081395348836963,-20.991860465116304,-24.991860465116304,-25.991860465116304,-24.991860465116304,-22.991860465116304,-19.991860465116304,-16.991860465116304,-6.9918604651163045,2.0081395348836963,6.0081395348836955,17.008139534883696,21.008139534883696,22.008139534883696,25.008139534883696,24.008139534883696,20.008139534883696,13.008139534883695,4.008139534883696,-5.9918604651163045,-8.991860465116304,-19.991860465116304,-26.991860465116304,-29.991860465116304,-26.991860465116304,-26.991860465116304,-19.991860465116304,-10.991860465116305,6.0081395348836955,19.008139534883696,29.008139534883696,21.008139534883696,15.008139534883695,16.008139534883696,18.008139534883696,16.008139534883696,16.008139534883696,9.008139534883696,6.0081395348836955,3.0081395348836963,-0.9918604651163035,-10.991860465116305,-18.991860465116304,-26.991860465116304,-28.991860465116304,-23.991860465116304,-15.991860465116305,-15.991860465116305,-7.9918604651163045,6.0081395348836955,12.008139534883695,18.008139534883696,20.008139534883696,21.008139534883696,27.008139534883696,25.008139534883696,20.008139534883696,18.008139534883696,16.008139534883696,18.008139534883696,2.0081395348836963,-22.991860465116304,-36.991860465116304,-42.991860465116304,-40.991860465116304,-14.991860465116305,-2.991860465116304,1.0081395348836963,3.0081395348836963,8.008139534883696,6.0081395348836955,27.008139534883696,37.008139534883696,24.008139534883696,24.008139534883696,29.008139534883696,18.008139534883696,8.008139534883696,9.008139534883696,4.008139534883696,-1.991860465116304,-16.991860465116304,-21.991860465116304,-25.991860465116304,-26.991860465116304,-27.991860465116304,-23.991860465116304,-10.991860465116305,5.008139534883696,0.008139534883696342,2.0081395348836963,5.008139534883696,17.008139534883696,48.008139534883696,76.0081395348837,94.00813953488371,67.0081395348837,6.0081395348836955,-25.991860465116304,-30.991860465116304,-26.991860465116304,-25.991860465116304,-12.991860465116305,-1.991860465116304,-1.991860465116304,-10.991860465116305,-26.991860465116304,-31.991860465116304,-12.991860465116305,11.008139534883695,12.008139534883695,13.008139534883695,20.008139534883696,13.008139534883695,14.008139534883695,20.008139534883696,30.008139534883696,27.008139534883696,-3.991860465116304,-13.991860465116305,-14.991860465116305,-12.991860465116305,-10.991860465116305,-1.991860465116304,-1.991860465116304,-17.991860465116304,-26.991860465116304,-27.991860465116304,-16.991860465116304,-1.991860465116304,3.0081395348836963,15.008139534883695,20.008139534883696,26.008139534883696,28.008139534883696,28.008139534883696,20.008139534883696,5.008139534883696,3.0081395348836963,-6.9918604651163045,-7.9918604651163045,-10.991860465116305,-14.991860465116305,-19.991860465116304,-18.991860465116304,-19.991860465116304,-30.991860465116304,-25.991860465116304,-8.991860465116304,4.008139534883696,8.008139534883696,17.008139534883696,28.008139534883696,38.008139534883696,28.008139534883696,17.008139534883696,14.008139534883695,12.008139534883695,6.0081395348836955,-1.991860465116304,-8.991860465116304,-19.991860465116304,-20.991860465116304,-26.991860465116304,-30.991860465116304,-27.991860465116304,-20.991860465116304,-12.991860465116305,-5.9918604651163045,1.0081395348836963,9.008139534883696,17.008139534883696,20.008139534883696,21.008139534883696,22.008139534883696,24.008139534883696,20.008139534883696,13.008139534883695,3.0081395348836963,-3.991860465116304,-8.991860465116304,-23.991860465116304,-28.991860465116304,-28.991860465116304,-21.991860465116304,-14.991860465116305,-9.991860465116304,-2.991860465116304,-1.991860465116304,-10.991860465116305,-3.991860465116304,12.008139534883695,15.008139534883695,20.008139534883696,20.008139534883696,20.008139534883696,15.008139534883695,8.008139534883696,0.008139534883696342,-7.9918604651163045,-7.9918604651163045,-8.991860465116304,-13.991860465116305,-18.991860465116304,-23.991860465116304,-27.991860465116304,-21.991860465116304,-11.991860465116305,2.0081395348836963,12.008139534883695,4.008139534883696,6.0081395348836955,8.008139534883696,14.008139534883695,14.008139534883695,13.008139534883695,5.008139534883696,1.0081395348836963,-0.9918604651163035,-8.991860465116304,11.008139534883695,24.008139534883696,9.008139534883696,-16.991860465116304,-30.991860465116304,-31.991860465116304,-23.991860465116304,-13.991860465116305,-7.9918604651163045,-1.991860465116304,5.008139534883696,13.008139534883695,16.008139534883696,21.008139534883696,21.008139534883696,23.008139534883696,20.008139534883696,12.008139534883695,4.008139534883696,-4.991860465116304,-8.991860465116304,-19.991860465116304,-25.991860465116304,-23.991860465116304,-18.991860465116304,-19.991860465116304,-14.991860465116305,-11.991860465116305,-2.991860465116304,5.008139534883696,16.008139534883696,25.008139534883696,21.008139534883696,24.008139534883696,22.008139534883696,24.008139534883696,19.008139534883696,16.008139534883696,6.0081395348836955,-3.991860465116304,-5.9918604651163045,-19.991860465116304,-22.991860465116304,-26.991860465116304,-27.991860465116304,-22.991860465116304,-13.991860465116305,-7.9918604651163045,-2.991860465116304,5.008139534883696,11.008139534883695,20.008139534883696,24.008139534883696,25.008139534883696,24.008139534883696,25.008139534883696,18.008139534883696,11.008139534883695,6.0081395348836955,-3.991860465116304,-10.991860465116305,-19.991860465116304,-25.991860465116304,-28.991860465116304,-26.991860465116304,-23.991860465116304,-20.991860465116304,-11.991860465116305,-1.991860465116304,4.008139534883696,7.0081395348836955,14.008139534883695,20.008139534883696,22.008139534883696,23.008139534883696,25.008139534883696,23.008139534883696,13.008139534883695,7.0081395348836955,0.008139534883696342,-2.991860465116304,-14.991860465116305,-27.991860465116304,-36.991860465116304,-30.991860465116304,-23.991860465116304,-14.991860465116305,-13.991860465116305,-5.9918604651163045,3.0081395348836963,6.0081395348836955,16.008139534883696,19.008139534883696,20.008139534883696,22.008139534883696,24.008139534883696,22.008139534883696,15.008139534883695,10.008139534883696,-0.9918604651163035,-9.991860465116304,-23.991860465116304,-30.991860465116304,-31.991860465116304,-32.991860465116304,-29.991860465116304,-19.991860465116304,-2.991860465116304,14.008139534883695,13.008139534883695,1.0081395348836963,8.008139534883696,17.008139534883696,21.008139534883696,22.008139534883696,21.008139534883696,20.008139534883696,15.008139534883695,10.008139534883696,0.008139534883696342,-1.991860465116304,-20.991860465116304,-28.991860465116304,-30.991860465116304,-29.991860465116304,-24.991860465116304,-17.991860465116304,-10.991860465116305,-0.9918604651163035,2.0081395348836963,9.008139534883696,16.008139534883696,22.008139534883696,25.008139534883696,25.008139534883696,27.008139534883696,20.008139534883696,16.008139534883696,8.008139534883696,-2.991860465116304,-8.991860465116304,-17.991860465116304,-26.991860465116304,-30.991860465116304,-29.991860465116304,-26.991860465116304,-17.991860465116304,-12.991860465116305,-3.991860465116304,4.008139534883696,9.008139534883696,16.008139534883696,22.008139534883696,23.008139534883696,23.008139534883696,24.008139534883696,20.008139534883696,12.008139534883695,5.008139534883696,-5.9918604651163045,-11.991860465116305,-17.991860465116304,-22.991860465116304,-28.991860465116304,-27.991860465116304,-23.991860465116304,-19.991860465116304,-10.991860465116305,0.008139534883696342,5.008139534883696,10.008139534883696,19.008139534883696,23.008139534883696,25.008139534883696,24.008139534883696,25.008139534883696,20.008139534883696,15.008139534883695,10.008139534883696,1.0081395348836963,-6.9918604651163045,-17.991860465116304,-25.991860465116304,-27.991860465116304,-28.991860465116304,-25.991860465116304,-15.991860465116305,-9.991860465116304,-2.991860465116304,5.008139534883696,6.0081395348836955,11.008139534883695,20.008139534883696,22.008139534883696,23.008139534883696,25.008139534883696,17.008139534883696,11.008139534883695,4.008139534883696,-1.991860465116304,-8.991860465116304,-19.991860465116304,-26.991860465116304,-26.991860465116304,-27.991860465116304,-24.991860465116304,-17.991860465116304,-12.991860465116305,-4.991860465116304,5.008139534883696,8.008139534883696,14.008139534883695,20.008139534883696,25.008139534883696,24.008139534883696,25.008139534883696,19.008139534883696,15.008139534883695,5.008139534883696,-2.991860465116304,-8.991860465116304,-19.991860465116304,-28.991860465116304,-32.991860465116304,-30.991860465116304,-26.991860465116304,-19.991860465116304,-13.991860465116305,-3.991860465116304,3.0081395348836963,7.0081395348836955,16.008139534883696,21.008139534883696,23.008139534883696,23.008139534883696,25.008139534883696,21.008139534883696
1.0,1.0,1.0,1.0,1.0,1.0,1.0,1.0,1.0,1.0,1.0,1.0,1.0,1.0,1.0,1.0,1.0,1.0,1.0,1.0,1.0,1.0,1.0,1.0,1.0,1.0,1.0,1.0,1.0,1.0,1.0,1.0,1.0,1.0,1.0,1.0,1.0,1.0,1.0,1.0,1.0,1.0,1.0,1.0,1.0,1.0,1.0,1.0,1.0,1.0,1.0,1.0,1.0,1.0,1.0,1.0,1.0,1.0,1.0,1.0,1.0,1.0,1.0,1.0,1.0,1.0,1.0,1.0,1.0,1.0,1.0,1.0,1.0,1.0,1.0,1.0,1.0,1.0,1.0,1.0,1.0,1.0,1.0,1.0,1.0,1.0,1.0,1.0,1.0,1.0,1.0,1.0,1.0,1.0,1.0,1.0,1.0,1.0,1.0,1.0,1.0,1.0,1.0,1.0,1.0,1.0,1.0,1.0,1.0,1.0,1.0,1.0,1.0,1.0,1.0,1.0,1.0,1.0,1.0,1.0,1.0,1.0,1.0,1.0,1.0,1.0,1.0,1.0,1.0,1.0,1.0,1.0,1.0,1.0,1.0,1.0,1.0,1.0,1.0,1.0,1.0,1.0,1.0,1.0,1.0,1.0,1.0,1.0,1.0,1.0,1.0,1.0,1.0,1.0,1.0,1.0,1.0,1.0,1.0,1.0,1.0,1.0,1.0,1.0,1.0,1.0,1.0,1.0,1.0,1.0,1.0,1.0,1.0,1.0,1.0,1.0,1.0,1.0,1.0,1.0,1.0,1.0,1.0,1.0,1.0,1.0,1.0,1.0,1.0,1.0,1.0,1.0,1.0,1.0,1.0,1.0,1.0,1.0,1.0,1.0,1.0,1.0,1.0,1.0,1.0,1.0,1.0,1.0,1.0,1.0,1.0,1.0,1.0,1.0,1.0,1.0,1.0,1.0,1.0,1.0,1.0,1.0,1.0,1.0,1.0,1.0,1.0,1.0,1.0,1.0,1.0,1.0,1.0,1.0,1.0,1.0,1.0,1.0,1.0,1.0,1.0,1.0,1.0,1.0,1.0,1.0,1.0,1.0,1.0,1.0,1.0,1.0,1.0,1.0,1.0,1.0,1.0,1.0,1.0,1.0,1.0,1.0,1.0,1.0,1.0,1.0,1.0,1.0,1.0,1.0,1.0,1.0,1.0,1.0,1.0,1.0,1.0,1.0,1.0,1.0,1.0,1.0,1.0,1.0,1.0,1.0,1.0,1.0,1.0,1.0,1.0,1.0,1.0,1.0,1.0,1.0,1.0,1.0,1.0,1.0,1.0,1.0,1.0,1.0,1.0,1.0,1.0,1.0,1.0,1.0,1.0,1.0,1.0,1.0,1.0,1.0,1.0,1.0,1.0,1.0,1.0,1.0,1.0,1.0,1.0,1.0,1.0,1.0,1.0,1.0,1.0,1.0,1.0,1.0,1.0,1.0,1.0,1.0,1.0,1.0,1.0,1.0,1.0,1.0,1.0,1.0,1.0,1.0,1.0,1.0,1.0,1.0,1.0,1.0,1.0,1.0,1.0,1.0,1.0,1.0,1.0,1.0,1.0,1.0,1.0,1.0,1.0,1.0,1.0,1.0,1.0,1.0,1.0,1.0,1.0,1.0,1.0,1.0,1.0,1.0,1.0,1.0,1.0,1.0,1.0,1.0,1.0,1.0,1.0,1.0,1.0,1.0,1.0,1.0,1.0,0.0,0.0,0.0,0.0,0.0,0.0,0.0,0.0,0.0,0.0,0.0,0.0,0.0,0.0,0.0,0.0,0.0,0.0,0.0,0.0,0.0,0.0,0.0,0.0,0.0,0.0,0.0,0.0,0.0,0.0,0.0,0.0,0.0,0.0,0.0,0.0,0.0,0.0,0.0,0.0,0.0,0.0,0.0,0.0,0.0,0.0,0.0,0.0,0.0,0.0,0.0,0.0,0.0,0.0,0.0,0.0,0.0,0.0,0.0,0.0,0.0,0.0,0.0,0.0,0.0,0.0,0.0,0.0,0.0,0.0,0.0,0.0,0.0,0.0,0.0,0.0,0.0,0.0,0.0,0.0,0.0,0.0,0.0,0.0,0.0,0.0,0.0,0.0,0.0,0.0,0.0,0.0,0.0,0.0,0.0,0.0,0.0,0.0,0.0,0.0,0.0,0.0,0.0,0.0,0.0,0.0,0.0,0.0,0.0,0.0,0.0,0.0,0.0,0.0,0.0,0.0,0.0
