0,1,2,3,4,5,6,7,8,9,10,11,12,13,14,15,16,17,18,19,20,21,22,23,24,25,26,27,28,29,30,31,32,33,34,35,36,37,38,39,40,41,42,43,44,45,46,47,48,49,50,51,52,53,54,55,56,57,58,59,60,61,62,63,64,65,66,67,68,69,70,71,72,73,74,75,76,77,78,79,80,81,82,83,84,85,86,87,88,89,90,91,92,93,94,95,96,97,98,99,100,101,102,103,104,105,106,107,108,109,110,111,112,113,114,115,116,117,118,119,120,121,122,123,124,125,126,127,128,129,130,131,132,133,134,135,136,137,138,139,140,141,142,143,144,145,146,147,148,149,150,151,152,153,154,155,156,157,158,159,160,161,162,163,164,165,166,167,168,169,170,171,172,173,174,175,176,177,178,179,180,181,182,183,184,185,186,187,188,189,190,191,192,193,194,195,196,197,198,199,200,201,202,203,204,205,206,207,208,209,210,211,212,213,214,215,216,217,218,219,220,221,222,223,224,225,226,227,228,229,230,231,232,233,234,235,236,237,238,239,240,241,242,243,244,245,246,247,248,249,250,251,252,253,254,255,256,257,258,259,260,261,262,263,264,265,266,267,268,269,270,271,272,273,274,275,276,277,278,279,280,281,282,283,284,285,286,287,288,289,290,291,292,293,294,295,296,297,298,299,300,301,302,303,304,305,306,307,308,309,310,311,312,313,314,315,316,317,318,319,320,321,322,323,324,325,326,327,328,329,330,331,332,333,334,335,336,337,338,339,340,341,342,343,344,345,346,347,348,349,350,351,352,353,354,355,356,357,358,359,360,361,362,363,364,365,366,367,368,369,370,371,372,373,374,375,376,377,378,379,380,381,382,383,384,385,386,387,388,389,390,391,392,393,394,395,396,397,398,399,400,401,402,403,404,405,406,407,408,409,410,411,412,413,414,415,416,417,418,419,420,421,422,423,424,425,426,427,428,429,430,431,432,433,434,435,436,437,438,439,440,441,442,443,444,445,446,447,448,449,450,451,452,453,454,455,456,457,458,459,460,461,462,463,464,465,466,467,468,469,470,471,472,473,474,475,476,477,478,479,480,481,482,483,484,485,486,487,488,489,490,491,492,493,494,495,496,497,498,499,500,501,502,503,504,505,506,507,508,509,510,511,512,513,514,515,516,517,518,519,520,521,522,523,524,525,526,527,528,529,530,531,532,533,534,535,536,537,538,539,540,541,542,543,544,545,546,547,548,549,550,551,552,553,554,555,556,557,558,559,560,561,562,563,564,565,566,567,568,569,570,571,572,573,574,575,576,577,578,579,580,581,582,583,584,585,586,587,588,589,590,591,592,593,594,595,596,597,598,599,600,601,602,603,604,605,606,607,608,609,610,611,612,613,614,615,616,617,618,619,620,621,622,623,624,625,626,627,628,629,630,631,632,633,634,635,636,637,638,639,640,641,642,643,644,645,646,647,648,649,650,651,652,653,654,655,656,657,658,659,660,661,662,663,664,665,666,667,668,669,670,671,672,673,674,675,676,677,678,679,680,681,682,683,684,685,686,687,688,689,690,691,692,693,694,695,696,697,698,699,700,701,702,703,704,705,706,707,708,709,710,711,712,713,714,715,716,717,718,719,720,721,722,723,724,725,726,727,728,729,730,731,732,733,734,735,736,737,738,739,740,741,742,743,744,745,746,747,748,749,750,751,752,753,754,755,756,757,758,759,760,761,762,763,764,765,766,767,768,769,770,771,772,773,774,775,776,777,778,779,780,781,782,783,784,785,786,787,788,789,790,791,792,793,794,795,796,797,798,799,800,801,802,803,804,805,806,807,808,809,810,811,812,813,814,815,816,817,818,819,820,821,822,823,824,825,826,827,828,829,830,831,832,833,834,835,836,837,838,839,840,841,842,843,844,845,846,847,848,849,850,851,852,853,854,855,856,857,858,859,860,861,862,863,864,865,866,867,868,869,870,871,872,873,874,875,876,877,878,879,880,881,882,883,884,885,886,887,888,889,890,891,892,893,894,895,896,897,898,899,900,901,902,903,904,905,906,907,908,909,910,911,912,913,914,915,916,917,918,919,920,921,922,923,924,925,926,927,928,929,930,931,932,933,934,935,936,937,938,939,940,941,942,943,944,945,946,947,948,949,950,951,952,953,954,955,956,957,958,959,960,961,962,963,964,965,966,967,968,969,970,971,972,973,974,975,976,977,978,979,980,981,982,983,984,985,986,987,988,989,990,991,992,993,994,995,996,997,998,999,1000,1001,1002,1003,1004,1005,1006,1007,1008,1009,1010,1011,1012,1013,1014,1015,1016,1017,1018,1019,1020,1021,1022,1023
-2.983887043189384,0.016112956810616197,-1.983887043189384,4.016112956810616,3.016112956810616,5.016112956810616,5.016112956810616,4.016112956810616,5.016112956810616,5.016112956810616,3.016112956810616,1.0161129568106162,0.016112956810616197,-3.983887043189384,-2.983887043189384,-4.983887043189384,-3.983887043189384,-3.983887043189384,-4.983887043189384,-5.983887043189384,-1.983887043189384,-3.983887043189384,2.0161129568106158,1.0161129568106162,3.016112956810616,3.016112956810616,3.016112956810616,5.016112956810616,4.016112956810616,3.016112956810616,-0.9838870431893838,3.016112956810616,1.0161129568106162,0.016112956810616197,-0.9838870431893838,0.016112956810616197,-2.983887043189384,-6.983887043189384,-4.983887043189384,0.016112956810616197,-1.983887043189384,1.0161129568106162,1.0161129568106162,0.016112956810616197,1.0161129568106162,3.016112956810616,5.016112956810616,4.016112956810616,3.016112956810616,2.0161129568106158,4.016112956810616,4.016112956810616,0.016112956810616197,-0.9838870431893838,0.016112956810616197,-4.983887043189384,-5.983887043189384,-4.983887043189384,-5.983887043189384,-4.983887043189384,-2.983887043189384,0.016112956810616197,1.0161129568106162,3.016112956810616,6.016112956810616,3.016112956810616,3.016112956810616,4.016112956810616,4.016112956810616,3.016112956810616,4.016112956810616,-0.9838870431893838,3.016112956810616,-1.983887043189384,-1.983887043189384,-3.983887043189384,-1.983887043189384,-7.983887043189384,-4.983887043189384,-2.983887043189384,0.016112956810616197,-1.983887043189384,1.0161129568106162,1.0161129568106162,5.016112956810616,4.016112956810616,3.016112956810616,3.016112956810616,3.016112956810616,4.016112956810616,3.016112956810616,2.0161129568106158,2.0161129568106158,-1.983887043189384,-2.983887043189384,-4.983887043189384,-7.983887043189384,-3.983887043189384,-3.983887043189384,-2.983887043189384,0.016112956810616197,-0.9838870431893838,-1.983887043189384,1.0161129568106162,2.0161129568106158,9.016112956810618,4.016112956810616,3.016112956810616,3.016112956810616,4.016112956810616,1.0161129568106162,1.0161129568106162,1.0161129568106162,-1.983887043189384,-2.983887043189384,-3.983887043189384,-1.983887043189384,-5.983887043189384,-4.983887043189384,-4.983887043189384,-2.983887043189384,0.016112956810616197,1.0161129568106162,2.0161129568106158,5.016112956810616,4.016112956810616,4.016112956810616,3.016112956810616,6.016112956810616,5.016112956810616,4.016112956810616,0.016112956810616197,3.016112956810616,-0.9838870431893838,-0.9838870431893838,-1.983887043189384,-3.983887043189384,-5.983887043189384,-4.983887043189384,-4.983887043189384,-2.983887043189384,-2.983887043189384,1.0161129568106162,1.0161129568106162,4.016112956810616,2.0161129568106158,2.0161129568106158,4.016112956810616,5.016112956810616,4.016112956810616,3.016112956810616,4.016112956810616,-0.9838870431893838,-2.983887043189384,-2.983887043189384,-4.983887043189384,-2.983887043189384,-5.983887043189384,-2.983887043189384,-4.983887043189384,-2.983887043189384,0.016112956810616197,0.016112956810616197,3.016112956810616,4.016112956810616,4.016112956810616,4.016112956810616,4.016112956810616,3.016112956810616,4.016112956810616,4.016112956810616,3.016112956810616,0.016112956810616197,-1.983887043189384,-3.983887043189384,-3.983887043189384,-2.983887043189384,-5.983887043189384,-4.983887043189384,-2.983887043189384,-3.983887043189384,-0.9838870431893838,1.0161129568106162,2.0161129568106158,1.0161129568106162,3.016112956810616,4.016112956810616,5.016112956810616,3.016112956810616,5.016112956810616,4.016112956810616,0.016112956810616197,2.0161129568106158,1.0161129568106162,-3.983887043189384,-1.983887043189384,-3.983887043189384,-7.983887043189384,-6.983887043189384,-3.983887043189384,-1.983887043189384,1.0161129568106162,3.016112956810616,4.016112956810616,3.016112956810616,3.016112956810616,3.016112956810616,5.016112956810616,4.016112956810616,3.016112956810616,0.016112956810616197,-0.9838870431893838,-1.983887043189384,-2.983887043189384,-2.983887043189384,-1.983887043189384,-6.983887043189384,-3.983887043189384,-5.983887043189384,-2.983887043189384,-0.9838870431893838,1.0161129568106162,-1.983887043189384,-0.9838870431893838,3.016112956810616,5.016112956810616,3.016112956810616,4.016112956810616,4.016112956810616,5.016112956810616,4.016112956810616,0.016112956810616197,0.016112956810616197,-0.9838870431893838,-1.983887043189384,-2.983887043189384,-5.983887043189384,-7.983887043189384,-5.983887043189384,-1.983887043189384,-2.983887043189384,-1.983887043189384,-0.9838870431893838,0.016112956810616197,3.016112956810616,1.0161129568106162,5.016112956810616,4.016112956810616,6.016112956810616,5.016112956810616,4.016112956810616,2.0161129568106158,-0.9838870431893838,0.016112956810616197,-4.983887043189384,-1.983887043189384,-6.983887043189384,-6.983887043189384,-2.983887043189384,-2.983887043189384,-2.983887043189384,-3.983887043189384,2.0161129568106158,3.016112956810616,5.016112956810616,4.016112956810616,1.0161129568106162,4.016112956810616,4.016112956810616,3.016112956810616,3.016112956810616,2.0161129568106158,0.016112956810616197,-2.983887043189384,-2.983887043189384,-1.983887043189384,-2.983887043189384,-0.9838870431893838,-3.983887043189384,-5.983887043189384,-4.983887043189384,-1.983887043189384,2.0161129568106158,2.0161129568106158,3.016112956810616,3.016112956810616,4.016112956810616,5.016112956810616,5.016112956810616,2.0161129568106158,3.016112956810616,2.0161129568106158,-0.9838870431893838,-2.983887043189384,-1.983887043189384,-2.983887043189384,-5.983887043189384,-6.983887043189384,-4.983887043189384,-2.983887043189384,0.016112956810616197,-1.983887043189384,0.016112956810616197,0.016112956810616197,1.0161129568106162,2.0161129568106158,5.016112956810616,8.016112956810616,6.016112956810616,4.016112956810616,4.016112956810616,5.016112956810616,3.016112956810616,-1.983887043189384,-2.983887043189384,-2.983887043189384,-4.983887043189384,-7.983887043189384,-7.983887043189384,-3.983887043189384,-4.983887043189384,-1.983887043189384,0.016112956810616197,5.016112956810616,4.016112956810616,1.0161129568106162,4.016112956810616,4.016112956810616,3.016112956810616,3.016112956810616,5.016112956810616,2.0161129568106158,-1.983887043189384,-0.9838870431893838,-1.983887043189384,-2.983887043189384,-4.983887043189384,-6.983887043189384,-2.983887043189384,-4.983887043189384,-2.983887043189384,-2.983887043189384,-1.983887043189384,2.0161129568106158,3.016112956810616,2.0161129568106158,5.016112956810616,6.016112956810616,5.016112956810616,2.0161129568106158,3.016112956810616,1.0161129568106162,-0.9838870431893838,-2.983887043189384,-1.983887043189384,-2.983887043189384,-1.983887043189384,-5.983887043189384,-5.983887043189384,-7.983887043189384,-6.983887043189384,-1.983887043189384,6.016112956810616,7.016112956810616,5.016112956810616,-0.9838870431893838,0.016112956810616197,6.016112956810616,8.016112956810616,8.016112956810616,5.016112956810616,2.0161129568106158,0.016112956810616197,-2.983887043189384,-4.983887043189384,-3.983887043189384,-6.983887043189384,-10.983887043189382,-9.983887043189382,-9.983887043189382,-6.983887043189384,-2.983887043189384,-2.983887043189384,-1.983887043189384,6.016112956810616,9.016112956810618,9.016112956810618,12.016112956810614,17.016112956810616,18.016112956810613,11.016112956810618,1.0161129568106162,-5.983887043189384,-9.983887043189382,-7.983887043189384,-2.983887043189384,-3.983887043189384,-6.983887043189384,-4.983887043189384,-7.983887043189384,-6.983887043189384,-2.983887043189384,1.0161129568106162,4.016112956810616,1.0161129568106162,1.0161129568106162,2.0161129568106158,0.016112956810616197,-1.983887043189384,-3.983887043189384,-2.983887043189384,-3.983887043189384,-3.983887043189384,-6.983887043189384,-6.983887043189384,4.016112956810616,5.016112956810616,-2.983887043189384,1.0161129568106162,7.016112956810616,5.016112956810616,4.016112956810616,1.0161129568106162,-9.983887043189382,-3.983887043189384,5.016112956810616,16.016112956810616,16.016112956810616,4.016112956810616,11.016112956810618,8.016112956810616,9.016112956810618,19.016112956810613,8.016112956810616,-17.983887043189387,-31.983887043189387,-41.98388704318937,-30.983887043189387,-23.983887043189387,-13.983887043189386,-2.983887043189384,-1.983887043189384,11.016112956810618,33.016112956810616,39.016112956810616,38.016112956810616,46.016112956810616,24.016112956810613,0.016112956810616197,-26.983887043189387,-38.98388704318937,-27.983887043189387,-23.983887043189387,-9.983887043189382,-1.983887043189384,1.0161129568106162,-13.983887043189386,-22.983887043189387,-24.983887043189387,-22.983887043189387,-15.983887043189386,5.016112956810616,0.016112956810616197,-9.983887043189382,1.0161129568106162,31.016112956810613,53.016112956810616,58.016112956810616,61.016112956810616,29.016112956810613,-27.983887043189387,-39.98388704318937,-19.983887043189387,-23.983887043189387,-21.983887043189387,-11.983887043189386,-2.983887043189384,38.016112956810616,101.01611295681063,66.01611295681062,16.016112956810616,-29.983887043189387,-54.983887043189384,-60.983887043189384,-24.983887043189387,-5.983887043189384,-15.983887043189386,-25.983887043189387,-12.983887043189386,3.016112956810616,24.016112956810613,5.016112956810616,-12.983887043189386,22.016112956810613,32.016112956810616,50.016112956810616,24.016112956810613,4.016112956810616,-18.983887043189387,-39.98388704318937,-20.983887043189387,-1.983887043189384,3.016112956810616,-1.983887043189384,-17.983887043189387,-30.983887043189387,-19.983887043189387,17.016112956810616,29.016112956810613,15.016112956810614,-7.983887043189384,8.016112956810616,27.016112956810613,-22.983887043189387,-67.98388704318938,-84.98388704318937,-44.98388704318937,-8.983887043189382,5.016112956810616,45.016112956810616,108.01611295681063,113.01611295681063,40.016112956810616,-10.983887043189382,-27.983887043189387,-5.983887043189384,-5.983887043189384,18.016112956810613,20.016112956810613,6.016112956810616,-14.983887043189386,15.016112956810614,23.016112956810613,-16.983887043189384,-60.983887043189384,-39.98388704318937,-22.983887043189387,-3.983887043189384,33.016112956810616,4.016112956810616,22.016112956810613,37.016112956810616,12.016112956810614,-31.983887043189387,-55.983887043189384,-32.983887043189384,-11.983887043189386,15.016112956810614,36.016112956810616,19.016112956810613,-54.983887043189384,-63.983887043189384,-49.983887043189384,-42.98388704318937,-15.983887043189386,25.016112956810613,35.016112956810616,54.016112956810616,76.01611295681063,109.01611295681063,112.01611295681063,79.01611295681063,29.016112956810613,-36.98388704318937,-73.98388704318937,-67.98388704318938,-68.98388704318938,-71.98388704318937,-100.98388704318937,-57.983887043189384,-21.983887043189387,-14.983887043189386,53.016112956810616,85.01611295681063,43.016112956810616,48.016112956810616,46.016112956810616,16.016112956810616,-14.983887043189386,-22.983887043189387,-33.983887043189384,-38.98388704318937,-44.98388704318937,-36.98388704318937,1.0161129568106162,43.016112956810616,78.01611295681063,71.01611295681063,33.016112956810616,-16.983887043189384,-69.98388704318938,-84.98388704318937,-54.983887043189384,-15.983887043189386,22.016112956810613,75.01611295681063,89.01611295681063,68.01611295681062,13.016112956810614,-54.983887043189384,-87.98388704318937,-103.98388704318937,-101.98388704318937,-38.98388704318937,13.016112956810614,84.01611295681063,134.01611295681062,104.01611295681063,44.016112956810616,-31.983887043189387,9.016112956810618,42.016112956810616,4.016112956810616,-14.983887043189386,-48.983887043189384,-101.98388704318937,-94.98388704318937,-52.983887043189384,-17.983887043189387,14.016112956810614,34.016112956810616,70.01611295681062,112.01611295681063,66.01611295681062,-28.983887043189387,-62.983887043189384,-75.98388704318937,-19.983887043189387,42.016112956810616,54.016112956810616,62.016112956810616,38.016112956810616,20.016112956810613,4.016112956810616,-66.98388704318938,-89.98388704318937,-81.98388704318937,-47.983887043189384,-4.983887043189384,45.016112956810616,51.016112956810616,13.016112956810614,-34.983887043189384,-14.983887043189386,26.016112956810613,40.016112956810616,22.016112956810613,-40.98388704318937,-59.983887043189384,-38.98388704318937,-13.983887043189386,79.01611295681063,127.01611295681063,70.01611295681062,-23.983887043189387,-19.983887043189387,-40.98388704318937,-3.983887043189384,23.016112956810613,45.016112956810616,19.016112956810613,-51.983887043189384,-83.98388704318937,-103.98388704318937,-57.983887043189384,-7.983887043189384,37.016112956810616,62.016112956810616,92.01611295681063,32.016112956810616,46.016112956810616,112.01611295681063,56.016112956810616,-27.983887043189387,-87.98388704318937,-87.98388704318937,-125.98388704318937,-119.98388704318937,-56.983887043189384,1.0161129568106162,42.016112956810616,52.016112956810616,37.016112956810616,34.016112956810616,62.016112956810616,26.016112956810613,18.016112956810613,14.016112956810614,-11.983887043189386,6.016112956810616,22.016112956810613,8.016112956810616,-6.983887043189384,-13.983887043189386,5.016112956810616,24.016112956810613,3.016112956810616,1.0161129568106162,14.016112956810614,-16.983887043189384,-57.983887043189384,-57.983887043189384,-50.983887043189384,-2.983887043189384,-30.983887043189387,-77.98388704318937,-29.983887043189387,67.01611295681062,64.01611295681062,114.01611295681063,90.01611295681063,5.016112956810616,-27.983887043189387,-39.98388704318937,-23.983887043189387,2.0161129568106158,17.016112956810616,-4.983887043189384,-53.983887043189384,-64.98388704318938,-61.983887043189384,-19.983887043189387,30.016112956810613,126.01611295681063,116.01611295681063,43.016112956810616,-48.983887043189384,-53.983887043189384,-11.983887043189386,9.016112956810618,-30.983887043189387,-23.983887043189387,-2.983887043189384,-6.983887043189384,13.016112956810614,21.016112956810613,-7.983887043189384,-33.983887043189384,-52.983887043189384,-104.98388704318937,-64.98388704318938,15.016112956810614,84.01611295681063,36.016112956810616,68.01611295681062,84.01611295681063,10.016112956810618,35.016112956810616,81.01611295681063,23.016112956810613,-41.98388704318937,-15.983887043189386,-21.983887043189387,-61.983887043189384,-51.983887043189384,2.0161129568106158,10.016112956810618,22.016112956810613,-8.983887043189382,-43.98388704318937,-35.983887043189384,-46.983887043189384,-23.983887043189387,37.016112956810616,46.016112956810616,21.016112956810613,16.016112956810616,16.016112956810616,-1.983887043189384,-6.983887043189384,-4.983887043189384,-20.983887043189387,-47.983887043189384,-28.983887043189387,-31.983887043189387,42.016112956810616,102.01611295681063,63.016112956810616,24.016112956810613,1.0161129568106162,-29.983887043189387,-62.983887043189384,-36.98388704318937,-57.983887043189384,-22.983887043189387,99.01611295681063,133.01611295681062,99.01611295681063,13.016112956810614,-87.98388704318937,-113.98388704318937,-84.98388704318937,-30.983887043189387,-19.983887043189387,-23.983887043189387,10.016112956810618,46.016112956810616,61.016112956810616,50.016112956810616,13.016112956810614,-25.983887043189387,-35.983887043189384,-35.983887043189384,-10.983887043189382,4.016112956810616,10.016112956810618,13.016112956810614,15.016112956810614,9.016112956810618,4.016112956810616,0.016112956810616197,-30.983887043189387,-37.98388704318937,-23.983887043189387,20.016112956810613,36.016112956810616,44.016112956810616,14.016112956810614,20.016112956810613,19.016112956810613,-11.983887043189386,-7.983887043189384,-32.983887043189384,-52.983887043189384,-14.983887043189386,17.016112956810616,43.016112956810616,43.016112956810616,18.016112956810613,4.016112956810616,-23.983887043189387,-30.983887043189387,-28.983887043189387,-23.983887043189387,-14.983887043189386,-14.983887043189386,-1.983887043189384,53.016112956810616,89.01611295681063,33.016112956810616,-12.983887043189386,-23.983887043189387,-41.98388704318937,-67.98388704318938,-56.983887043189384,-23.983887043189387,-3.983887043189384,6.016112956810616,31.016112956810613,56.016112956810616,70.01611295681062,31.016112956810613,-12.983887043189386,-17.983887043189387,-16.983887043189384,-7.983887043189384,-3.983887043189384,-1.983887043189384,-8.983887043189382,-9.983887043189382,-3.983887043189384,0.016112956810616197,0.016112956810616197,-2.983887043189384,-5.983887043189384,-1.983887043189384,9.016112956810618,16.016112956810616,5.016112956810616,-0.9838870431893838,5.016112956810616,2.0161129568106158,2.0161129568106158,-14.983887043189386,-15.983887043189386,-19.983887043189387,-12.983887043189386,-7.983887043189384,0.016112956810616197,2.0161129568106158,31.016112956810613,22.016112956810613,3.016112956810616,-4.983887043189384,-15.983887043189386,-3.983887043189384,11.016112956810618,7.016112956810616,-14.983887043189386,-2.983887043189384,31.016112956810613,27.016112956810613,-2.983887043189384,0.016112956810616197,8.016112956810616,5.016112956810616,-5.983887043189384,-14.983887043189386,-19.983887043189387,-17.983887043189387,-19.983887043189387,-13.983887043189386,-1.983887043189384,6.016112956810616,4.016112956810616,5.016112956810616,16.016112956810616,12.016112956810614,1.0161129568106162,-0.9838870431893838,-3.983887043189384,-7.983887043189384,-9.983887043189382,-26.983887043189387,-34.983887043189384,5.016112956810616,44.016112956810616,33.016112956810616,34.016112956810616,48.016112956810616,-1.983887043189384,-35.983887043189384,-33.983887043189384,-13.983887043189386,6.016112956810616,-2.983887043189384,-5.983887043189384,3.016112956810616,3.016112956810616,3.016112956810616,8.016112956810616,1.0161129568106162,-8.983887043189382,-12.983887043189386,-9.983887043189382,-3.983887043189384,-1.983887043189384,-2.983887043189384,-0.9838870431893838,-5.983887043189384,-2.983887043189384,4.016112956810616,4.016112956810616,6.016112956810616,6.016112956810616,5.016112956810616,-4.983887043189384,0.016112956810616197,4.016112956810616,4.016112956810616,-7.983887043189384,-12.983887043189386,-15.983887043189386,-1.983887043189384,17.016112956810616,34.016112956810616,21.016112956810613,-0.9838870431893838,-0.9838870431893838,6.016112956810616,-1.983887043189384,-1.983887043189384,-7.983887043189384,-15.983887043189386,-10.983887043189382,-2.983887043189384,0.016112956810616197,1.0161129568106162,2.0161129568106158,3.016112956810616,3.016112956810616,2.0161129568106158,-2.983887043189384,-1.983887043189384,0.016112956810616197,-4.983887043189384,0.016112956810616197,1.0161129568106162,-4.983887043189384,-4.983887043189384,-4.983887043189384,-3.983887043189384,-1.983887043189384,4.016112956810616,7.016112956810616,2.0161129568106158,0.016112956810616197,1.0161129568106162,4.016112956810616,7.016112956810616,11.016112956810618,13.016112956810614,1.0161129568106162,-5.983887043189384,-2.983887043189384,-2.983887043189384,-2.983887043189384,-10.983887043189382,-8.983887043189382,-3.983887043189384,-4.983887043189384,-3.983887043189384,-5.983887043189384,-2.983887043189384,2.0161129568106158,0.016112956810616197,-3.983887043189384,0.016112956810616197,22.016112956810613,33.016112956810616,24.016112956810613,4.016112956810616,-9.983887043189382,-7.983887043189384,-11.983887043189386,-8.983887043189382,-6.983887043189384,-6.983887043189384,-4.983887043189384,-4.983887043189384,-6.983887043189384,-2.983887043189384,-2.983887043189384,0.016112956810616197
0.0,0.0,0.0,0.0,0.0,0.0,0.0,0.0,0.0,0.0,0.0,0.0,0.0,0.0,0.0,0.0,0.0,0.0,0.0,0.0,0.0,0.0,0.0,0.0,0.0,0.0,0.0,0.0,0.0,0.0,0.0,0.0,0.0,0.0,0.0,0.0,0.0,0.0,0.0,0.0,0.0,0.0,0.0,0.0,0.0,0.0,0.0,0.0,0.0,0.0,0.0,0.0,0.0,0.0,0.0,0.0,0.0,0.0,0.0,0.0,0.0,0.0,0.0,0.0,0.0,0.0,0.0,0.0,0.0,0.0,0.0,0.0,0.0,0.0,0.0,0.0,0.0,0.0,0.0,0.0,0.0,0.0,0.0,0.0,0.0,0.0,0.0,0.0,0.0,0.0,0.0,0.0,0.0,0.0,0.0,0.0,0.0,0.0,0.0,0.0,0.0,0.0,0.0,0.0,0.0,0.0,0.0,0.0,0.0,0.0,0.0,0.0,0.0,0.0,0.0,0.0,0.0,0.0,0.0,0.0,0.0,0.0,0.0,0.0,0.0,0.0,0.0,0.0,0.0,0.0,0.0,0.0,0.0,0.0,0.0,0.0,0.0,0.0,0.0,0.0,0.0,0.0,0.0,0.0,0.0,0.0,0.0,0.0,0.0,0.0,0.0,0.0,0.0,0.0,0.0,0.0,0.0,0.0,0.0,0.0,0.0,0.0,0.0,0.0,0.0,0.0,0.0,0.0,0.0,0.0,0.0,0.0,0.0,0.0,0.0,0.0,0.0,0.0,0.0,0.0,0.0,0.0,0.0,0.0,0.0,0.0,0.0,0.0,0.0,0.0,0.0,0.0,0.0,0.0,0.0,0.0,0.0,0.0,0.0,0.0,0.0,0.0,0.0,0.0,0.0,0.0,0.0,0.0,0.0,0.0,0.0,0.0,0.0,0.0,0.0,0.0,0.0,0.0,0.0,0.0,0.0,0.0,0.0,0.0,0.0,0.0,0.0,0.0,0.0,0.0,0.0,0.0,0.0,0.0,0.0,0.0,0.0,0.0,0.0,0.0,0.0,0.0,0.0,0.0,0.0,0.0,0.0,0.0,0.0,0.0,0.0,0.0,0.0,0.0,0.0,0.0,0.0,0.0,0.0,0.0,0.0,0.0,0.0,0.0,0.0,0.0,0.0,0.0,0.0,0.0,0.0,0.0,0.0,0.0,0.0,0.0,0.0,0.0,0.0,0.0,0.0,0.0,0.0,0.0,0.0,0.0,0.0,0.0,0.0,0.0,0.0,0.0,0.0,0.0,0.0,0.0,0.0,0.0,0.0,0.0,0.0,0.0,0.0,0.0,0.0,0.0,0.0,0.0,0.0,0.0,0.0,0.0,0.0,0.0,0.0,0.0,0.0,0.0,0.0,0.0,0.0,0.0,0.0,0.0,0.0,0.0,0.0,0.0,0.0,0.0,0.0,0.0,0.0,0.0,0.0,0.0,0.0,0.0,0.0,0.0,0.0,0.0,0.0,0.0,0.0,0.0,0.0,0.0,0.0,0.0,0.0,0.0,0.0,0.0,0.0,0.0,0.0,0.0,0.0,0.0,0.0,0.0,0.0,0.0,0.0,0.0,0.0,0.0,0.0,0.0,0.0,0.0,0.0,0.0,0.0,0.0,0.0,0.0,0.0,0.0,0.0,0.0,0.0,0.0,0.0,0.0,0.0,0.0,0.0,0.0,0.0,0.0,0.0,0.0,0.0,0.0,0.0,0.0,0.0,0.0,0.0,0.0,0.0,0.0,0.0,0.0,0.0,0.0,0.0,0.0,0.0,0.0,0.0,0.0,0.0,0.0,0.0,0.0,0.0,0.0,0.0,0.0,0.0,0.0,0.0,0.0,0.0,0.0,0.0,0.0,0.0,0.0,1.0,1.0,1.0,1.0,1.0,1.0,1.0,1.0,1.0,1.0,1.0,1.0,1.0,1.0,1.0,1.0,1.0,1.0,1.0,1.0,1.0,1.0,1.0,1.0,1.0,1.0,1.0,1.0,1.0,1.0,1.0,1.0,1.0,1.0,1.0,1.0,1.0,1.0,1.0,1.0,1.0,1.0,1.0,1.0,1.0,1.0,1.0,1.0,1.0,1.0,1.0,1.0,1.0,1.0,1.0,1.0,1.0,1.0,1.0,1.0,1.0,1.0,1.0,1.0,1.0,1.0,1.0,1.0,1.0,1.0,1.0,1.0,1.0,1.0,1.0,1.0,1.0,1.0,1.0,1.0,1.0,1.0,1.0,1.0,1.0,1.0,1.0,1.0,1.0,1.0,1.0,1.0,1.0,1.0,1.0,1.0,1.0,1.0,1.0,1.0,1.0,1.0,1.0,1.0,1.0,1.0,1.0,1.0,1.0,1.0,1.0,1.0,1.0,1.0,1.0,1.0,1.0,1.0,1.0,1.0,1.0,1.0,1.0,1.0,1.0,1.0,1.0,1.0,1.0,1.0,1.0,1.0,1.0,1.0,1.0,1.0,1.0,1.0,1.0,1.0,1.0,1.0,1.0,1.0,1.0,1.0,1.0,1.0,1.0,1.0,1.0,1.0,1.0,1.0,1.0,1.0,1.0,1.0,1.0,1.0,1.0,1.0,1.0,1.0,1.0,1.0,1.0,1.0,1.0,1.0,1.0,1.0,1.0,1.0,1.0,1.0,1.0,1.0,1.0,1.0,1.0,1.0,1.0,1.0,1.0,1.0,1.0,1.0,1.0,1.0,1.0,1.0,1.0,1.0,1.0,1.0,1.0,1.0,1.0,1.0,1.0,1.0,1.0,1.0,1.0,1.0,1.0,1.0,1.0,1.0,1.0,1.0,1.0,1.0,1.0,1.0,1.0,1.0,1.0,1.0,1.0,1.0,1.0,1.0,1.0,1.0,1.0,1.0,1.0,1.0,1.0,1.0,1.0,1.0,1.0,1.0,1.0,1.0,1.0,1.0,1.0,1.0,1.0,1.0,1.0,1.0,1.0,1.0,1.0,1.0,1.0,1.0,1.0,1.0,1.0,1.0,1.0,1.0,1.0,1.0,1.0,1.0,1.0,1.0,1.0,1.0,1.0,1.0,1.0,1.0,1.0,1.0,1.0,1.0,1.0,1.0,1.0,1.0,1.0,1.0,1.0,1.0,1.0,1.0,1.0,1.0,1.0,1.0,1.0,1.0,1.0,1.0,1.0,1.0,1.0,1.0,1.0,1.0,1.0,1.0,1.0,1.0,1.0,1.0,1.0,1.0,1.0,1.0,1.0,1.0,1.0,1.0,1.0,1.0,1.0,1.0,1.0,1.0,1.0,1.0,1.0,1.0,1.0,1.0,1.0,1.0,1.0,1.0,1.0,1.0,1.0,1.0,1.0,1.0,1.0,1.0,1.0,1.0,1.0,1.0,1.0,1.0,1.0,1.0,1.0,1.0,1.0,1.0,1.0,1.0,1.0,1.0,1.0,1.0,1.0,1.0,1.0,1.0,1.0,1.0,1.0,1.0,1.0,1.0,1.0,1.0,1.0,1.0,1.0,1.0,1.0,1.0,1.0,1.0,1.0,1.0,1.0,1.0,1.0,1.0,1.0,1.0,1.0,1.0,1.0,1.0,1.0,1.0,1.0,1.0,1.0,1.0,1.0,1.0,1.0,1.0,1.0,1.0,1.0,1.0,1.0,1.0,1.0,1.0,1.0,1.0,1.0,1.0,1.0,1.0,1.0,1.0,1.0,1.0,1.0,1.0,1.0,1.0,1.0,1.0,1.0,1.0,1.0,1.0,1.0,1.0,1.0,1.0,1.0,1.0,1.0,1.0,1.0,1.0,1.0,1.0,1.0,1.0,1.0,1.0,1.0,1.0,1.0,1.0,1.0,1.0,1.0,1.0,1.0,1.0,1.0,1.0,1.0,1.0,1.0,1.0,1.0,1.0,1.0,1.0,1.0,1.0,1.0,1.0,1.0,1.0,1.0,1.0,1.0,1.0,1.0,1.0,1.0,1.0,1.0,1.0,1.0,1.0,1.0,1.0,1.0,1.0,1.0,1.0,1.0,1.0,1.0,1.0,1.0,1.0,1.0,1.0,1.0,1.0,1.0,1.0,1.0,1.0,1.0,1.0,1.0,1.0,1.0,1.0,1.0,1.0,1.0,1.0,1.0,1.0,1.0,1.0,1.0,1.0,1.0,1.0,1.0,1.0,1.0,1.0,1.0,1.0,1.0,1.0,1.0,1.0,1.0,1.0,1.0,1.0,0.0,0.0,0.0,0.0,0.0,0.0,0.0,0.0,0.0,0.0,0.0,0.0,0.0,0.0,0.0,0.0,0.0,0.0,0.0,0.0,0.0,0.0,0.0,0.0,0.0,0.0,0.0,0.0,0.0,0.0,0.0,0.0,0.0,0.0,0.0,0.0,0.0,0.0,0.0,0.0,0.0,0.0,0.0,0.0,0.0,0.0,0.0,0.0,0.0,0.0,0.0,0.0,0.0,0.0,0.0,0.0,0.0,0.0,0.0,0.0,0.0,0.0
