0,1,2,3,4,5,6,7,8,9,10,11,12,13,14,15,16,17,18,19,20,21,22,23,24,25,26,27,28,29,30,31,32,33,34,35,36,37,38,39,40,41,42,43,44,45,46,47,48,49,50,51,52,53,54,55,56,57,58,59,60,61,62,63,64,65,66,67,68,69,70,71,72,73,74,75,76,77,78,79,80,81,82,83,84,85,86,87,88,89,90,91,92,93,94,95,96,97,98,99,100,101,102,103,104,105,106,107,108,109,110,111,112,113,114,115,116,117,118,119,120,121,122,123,124,125,126,127,128,129,130,131,132,133,134,135,136,137,138,139,140,141,142,143,144,145,146,147,148,149,150,151,152,153,154,155,156,157,158,159,160,161,162,163,164,165,166,167,168,169,170,171,172,173,174,175,176,177,178,179,180,181,182,183,184,185,186,187,188,189,190,191,192,193,194,195,196,197,198,199,200,201,202,203,204,205,206,207,208,209,210,211,212,213,214,215,216,217,218,219,220,221,222,223,224,225,226,227,228,229,230,231,232,233,234,235,236,237,238,239,240,241,242,243,244,245,246,247,248,249,250,251,252,253,254,255,256,257,258,259,260,261,262,263,264,265,266,267,268,269,270,271,272,273,274,275,276,277,278,279,280,281,282,283,284,285,286,287,288,289,290,291,292,293,294,295,296,297,298,299,300,301,302,303,304,305,306,307,308,309,310,311,312,313,314,315,316,317,318,319,320,321,322,323,324,325,326,327,328,329,330,331,332,333,334,335,336,337,338,339,340,341,342,343,344,345,346,347,348,349,350,351,352,353,354,355,356,357,358,359,360,361,362,363,364,365,366,367,368,369,370,371,372,373,374,375,376,377,378,379,380,381,382,383,384,385,386,387,388,389,390,391,392,393,394,395,396,397,398,399,400,401,402,403,404,405,406,407,408,409,410,411,412,413,414,415,416,417,418,419,420,421,422,423,424,425,426,427,428,429,430,431,432,433,434,435,436,437,438,439,440,441,442,443,444,445,446,447,448,449,450,451,452,453,454,455,456,457,458,459,460,461,462,463,464,465,466,467,468,469,470,471,472,473,474,475,476,477,478,479,480,481,482,483,484,485,486,487,488,489,490,491,492,493,494,495,496,497,498,499,500,501,502,503,504,505,506,507,508,509,510,511
-7.993222591362097,-2.9932225913620982,-4.993222591362098,0.006777408637901772,-1.9932225913620985,2.0067774086379018,3.0067774086379018,2.0067774086379018,4.006777408637902,7.006777408637903,4.006777408637902,6.006777408637903,4.006777408637902,4.006777408637902,3.0067774086379018,1.0067774086379018,-3.993222591362098,-4.993222591362098,-4.993222591362098,-2.9932225913620982,-6.993222591362097,-3.993222591362098,-2.9932225913620982,-0.9932225913620982,0.006777408637901772,1.0067774086379018,2.0067774086379018,2.0067774086379018,6.006777408637903,5.006777408637902,6.006777408637903,6.006777408637903,4.006777408637902,1.0067774086379018,1.0067774086379018,1.0067774086379018,-2.9932225913620982,-2.9932225913620982,-3.993222591362098,-2.9932225913620982,-5.993222591362097,-3.993222591362098,-2.9932225913620982,-2.9932225913620982,0.006777408637901772,1.0067774086379018,1.0067774086379018,1.0067774086379018,4.006777408637902,7.006777408637903,3.0067774086379018,3.0067774086379018,4.006777408637902,1.0067774086379018,3.0067774086379018,-0.9932225913620982,-1.9932225913620985,-3.993222591362098,-1.9932225913620985,-5.993222591362097,-5.993222591362097,-4.993222591362098,-6.993222591362097,-4.993222591362098,-1.9932225913620985,1.0067774086379018,2.0067774086379018,0.006777408637901772,4.006777408637902,6.006777408637903,7.006777408637903,6.006777408637903,4.006777408637902,5.006777408637902,9.006777408637904,6.006777408637903,-2.9932225913620982,-12.993222591362096,-12.993222591362096,0.006777408637901772,-3.993222591362098,-6.993222591362097,-9.993222591362096,-11.993222591362096,-6.993222591362097,-2.9932225913620982,0.006777408637901772,-2.9932225913620982,-1.9932225913620985,0.006777408637901772,9.006777408637904,25.0067774086379,24.0067774086379,19.006777408637898,17.0067774086379,7.006777408637903,0.006777408637901772,-4.993222591362098,-8.993222591362096,-6.993222591362097,-6.993222591362097,-11.993222591362096,-13.993222591362096,-4.993222591362098,-10.993222591362096,-9.993222591362096,-6.993222591362097,-3.993222591362098,-0.9932225913620982,-1.9932225913620985,1.0067774086379018,1.0067774086379018,0.006777408637901772,-4.993222591362098,-9.993222591362096,-7.993222591362097,0.006777408637901772,3.0067774086379018,10.006777408637904,9.006777408637904,7.006777408637903,25.0067774086379,33.0067774086379,10.006777408637904,-7.993222591362097,-13.993222591362096,-11.993222591362096,-7.993222591362097,-2.9932225913620982,-3.993222591362098,-9.993222591362096,-5.993222591362097,-3.993222591362098,-6.993222591362097,-3.993222591362098,-3.993222591362098,-6.993222591362097,-7.993222591362097,-3.993222591362098,11.006777408637904,12.006777408637904,10.006777408637904,3.0067774086379018,2.0067774086379018,-6.993222591362097,-22.9932225913621,-38.9932225913621,-33.9932225913621,-8.993222591362096,17.0067774086379,33.0067774086379,33.0067774086379,23.0067774086379,29.0067774086379,40.0067774086379,25.0067774086379,9.006777408637904,-4.993222591362098,-13.993222591362096,-13.993222591362096,-27.9932225913621,-39.9932225913621,-55.993222591362105,-50.993222591362105,-23.9932225913621,-4.993222591362098,-1.9932225913620985,24.0067774086379,40.0067774086379,31.0067774086379,36.0067774086379,18.006777408637898,10.006777408637904,21.006777408637898,-2.9932225913620982,-11.993222591362096,-11.993222591362096,7.006777408637903,33.0067774086379,16.0067774086379,-3.993222591362098,-32.9932225913621,-24.9932225913621,17.0067774086379,29.0067774086379,-3.993222591362098,-11.993222591362096,30.0067774086379,17.0067774086379,13.006777408637904,-3.993222591362098,-12.993222591362096,-2.9932225913620982,20.006777408637898,19.006777408637898,1.0067774086379018,15.006777408637904,-16.9932225913621,-57.993222591362105,-72.9932225913621,-96.9932225913621,-81.9932225913621,-42.993222591362105,7.006777408637903,42.0067774086379,65.0067774086379,77.0067774086379,94.0067774086379,71.0067774086379,24.0067774086379,1.0067774086379018,-15.993222591362096,-31.9932225913621,-19.993222591362102,-1.9932225913620985,-21.9932225913621,-52.993222591362105,-46.993222591362105,-21.9932225913621,1.0067774086379018,-20.993222591362102,-32.9932225913621,0.006777408637901772,51.006777408637895,59.006777408637895,61.006777408637895,39.0067774086379,60.006777408637895,10.006777408637904,-11.993222591362096,-7.993222591362097,-36.9932225913621,-40.9932225913621,-37.9932225913621,1.0067774086379018,9.006777408637904,-3.993222591362098,-18.993222591362102,-40.9932225913621,-66.9932225913621,-67.9932225913621,-44.993222591362105,39.0067774086379,128.0067774086379,146.0067774086379,66.0067774086379,35.0067774086379,32.0067774086379,21.006777408637898,-11.993222591362096,-55.993222591362105,-69.9932225913621,-56.993222591362105,-55.993222591362105,-50.993222591362105,-19.993222591362102,2.0067774086379018,-29.9932225913621,-43.993222591362105,-4.993222591362098,34.0067774086379,55.006777408637895,10.006777408637904,21.006777408637898,57.006777408637895,19.006777408637898,10.006777408637904,19.006777408637898,5.006777408637902,-18.993222591362102,-41.9932225913621,-54.993222591362105,-56.993222591362105,-69.9932225913621,-4.993222591362098,68.0067774086379,124.0067774086379,79.0067774086379,48.006777408637895,20.006777408637898,-0.9932225913620982,-19.993222591362102,-42.993222591362105,-82.9932225913621,-74.9932225913621,-62.993222591362105,-23.9932225913621,-1.9932225913620985,19.006777408637898,54.006777408637895,84.0067774086379,69.0067774086379,-18.993222591362102,-48.993222591362105,-56.993222591362105,-25.9932225913621,12.006777408637904,21.006777408637898,-8.993222591362096,19.006777408637898,51.006777408637895,38.0067774086379,21.006777408637898,-0.9932225913620982,-18.993222591362102,24.0067774086379,19.006777408637898,-51.993222591362105,-65.9932225913621,-20.993222591362102,-15.993222591362096,12.006777408637904,5.006777408637902,40.0067774086379,36.0067774086379,-3.993222591362098,-45.993222591362105,-79.9932225913621,-55.993222591362105,-29.9932225913621,10.006777408637904,99.0067774086379,78.0067774086379,59.006777408637895,60.006777408637895,16.0067774086379,-66.9932225913621,-84.9932225913621,-21.9932225913621,15.006777408637904,24.0067774086379,60.006777408637895,26.0067774086379,-33.9932225913621,-44.993222591362105,-57.993222591362105,-46.993222591362105,-50.993222591362105,-41.9932225913621,11.006777408637904,134.0067774086379,194.00677740863793,114.0067774086379,-8.993222591362096,-109.9932225913621,-106.9932225913621,-89.9932225913621,-78.9932225913621,-51.993222591362105,20.006777408637898,67.0067774086379,120.0067774086379,94.0067774086379,18.006777408637898,-23.9932225913621,-37.9932225913621,-65.9932225913621,-82.9932225913621,-71.9932225913621,-33.9932225913621,68.0067774086379,94.0067774086379,48.006777408637895,14.006777408637904,51.006777408637895,26.0067774086379,-39.9932225913621,-115.9932225913621,-63.993222591362105,47.006777408637895,27.0067774086379,48.006777408637895,72.0067774086379,13.006777408637904,-41.9932225913621,-52.993222591362105,-22.9932225913621,12.006777408637904,24.0067774086379,8.006777408637904,-23.9932225913621,-40.9932225913621,-70.9932225913621,-67.9932225913621,-30.9932225913621,26.0067774086379,91.0067774086379,139.0067774086379,122.0067774086379,64.0067774086379,-26.9932225913621,-93.9932225913621,-108.9932225913621,-42.993222591362105,-19.993222591362102,11.006777408637904,3.0067774086379018,-1.9932225913620985,-10.993222591362096,-39.9932225913621,17.0067774086379,40.0067774086379,-11.993222591362096,-28.9932225913621,23.0067774086379,28.0067774086379,21.006777408637898,8.006777408637904,-44.993222591362105,-33.9932225913621,10.006777408637904,41.0067774086379,66.0067774086379,61.006777408637895,45.006777408637895,-13.993222591362096,-27.9932225913621,-31.9932225913621,-43.993222591362105,-31.9932225913621,-59.993222591362105,-44.993222591362105,-43.993222591362105,-31.9932225913621,21.006777408637898,40.0067774086379,43.006777408637895,40.0067774086379,36.0067774086379,33.0067774086379,10.006777408637904,-11.993222591362096,-19.993222591362102,-16.9932225913621,-8.993222591362096,-1.9932225913620985,-4.993222591362098,-6.993222591362097,-3.993222591362098,-3.993222591362098,-9.993222591362096,-9.993222591362096,-14.993222591362096,-9.993222591362096,8.006777408637904,13.006777408637904,8.006777408637904,7.006777408637903,27.0067774086379,32.0067774086379,10.006777408637904,-7.993222591362097,-2.9932225913620982,6.006777408637903,0.006777408637901772,-10.993222591362096,-11.993222591362096,-7.993222591362097,-10.993222591362096,-7.993222591362097,-4.993222591362098,-3.993222591362098,-3.993222591362098,-2.9932225913620982,3.0067774086379018,1.0067774086379018,3.0067774086379018,2.0067774086379018,5.006777408637902,5.006777408637902,4.006777408637902,5.006777408637902,1.0067774086379018,4.006777408637902,3.0067774086379018,0.006777408637901772,-0.9932225913620982,-4.993222591362098,-3.993222591362098,-4.993222591362098,-5.993222591362097,-5.993222591362097,-1.9932225913620985,-2.9932225913620982,-0.9932225913620982,0.006777408637901772,3.0067774086379018,6.006777408637903,5.006777408637902,5.006777408637902,4.006777408637902,5.006777408637902,3.0067774086379018,2.0067774086379018,0.006777408637901772,-0.9932225913620982,-3.993222591362098,-6.993222591362097,-5.993222591362097,-4.993222591362098,-7.993222591362097,-3.993222591362098,-4.993222591362098,-3.993222591362098,0.006777408637901772,1.0067774086379018,3.0067774086379018,2.0067774086379018,5.006777408637902,4.006777408637902,4.006777408637902,3.0067774086379018
0.0,0.0,0.0,0.0,0.0,0.0,0.0,0.0,0.0,0.0,0.0,0.0,0.0,0.0,0.0,0.0,0.0,0.0,0.0,0.0,0.0,0.0,0.0,0.0,0.0,0.0,0.0,0.0,0.0,0.0,0.0,0.0,0.0,0.0,0.0,0.0,0.0,0.0,0.0,0.0,0.0,0.0,0.0,0.0,0.0,0.0,0.0,0.0,0.0,0.0,0.0,0.0,0.0,0.0,0.0,0.0,0.0,0.0,0.0,0.0,0.0,0.0,0.0,0.0,0.0,0.0,0.0,0.0,0.0,0.0,0.0,0.0,1.0,1.0,1.0,1.0,1.0,1.0,1.0,1.0,1.0,1.0,1.0,1.0,1.0,1.0,1.0,1.0,1.0,1.0,1.0,1.0,1.0,1.0,1.0,1.0,1.0,1.0,1.0,1.0,1.0,1.0,1.0,1.0,1.0,1.0,1.0,1.0,1.0,1.0,1.0,1.0,1.0,1.0,1.0,1.0,1.0,1.0,1.0,1.0,1.0,1.0,1.0,1.0,1.0,1.0,1.0,1.0,1.0,1.0,1.0,1.0,1.0,1.0,1.0,1.0,1.0,1.0,1.0,1.0,1.0,1.0,1.0,1.0,1.0,1.0,1.0,1.0,1.0,1.0,1.0,1.0,1.0,1.0,1.0,1.0,1.0,1.0,1.0,1.0,1.0,1.0,1.0,1.0,1.0,1.0,1.0,1.0,1.0,1.0,1.0,1.0,1.0,1.0,1.0,1.0,1.0,1.0,1.0,1.0,1.0,1.0,1.0,1.0,1.0,1.0,1.0,1.0,1.0,1.0,1.0,1.0,1.0,1.0,1.0,1.0,1.0,1.0,1.0,1.0,1.0,1.0,1.0,1.0,1.0,1.0,1.0,1.0,1.0,1.0,1.0,1.0,1.0,1.0,1.0,1.0,1.0,1.0,1.0,1.0,1.0,1.0,1.0,1.0,1.0,1.0,1.0,1.0,1.0,1.0,1.0,1.0,1.0,1.0,1.0,1.0,1.0,1.0,1.0,1.0,1.0,1.0,1.0,1.0,1.0,1.0,1.0,1.0,1.0,1.0,1.0,1.0,1.0,1.0,1.0,1.0,1.0,1.0,1.0,1.0,1.0,1.0,1.0,1.0,1.0,1.0,1.0,1.0,1.0,1.0,1.0,1.0,1.0,1.0,1.0,1.0,1.0,1.0,1.0,1.0,1.0,1.0,1.0,1.0,1.0,1.0,1.0,1.0,1.0,1.0,1.0,1.0,1.0,1.0,1.0,1.0,1.0,1.0,1.0,1.0,1.0,1.0,1.0,1.0,1.0,1.0,1.0,1.0,1.0,1.0,1.0,1.0,1.0,1.0,1.0,1.0,1.0,1.0,1.0,1.0,1.0,1.0,1.0,1.0,1.0,1.0,1.0,1.0,1.0,1.0,1.0,1.0,1.0,1.0,1.0,1.0,1.0,1.0,1.0,1.0,1.0,1.0,1.0,1.0,1.0,1.0,1.0,1.0,1.0,1.0,1.0,1.0,1.0,1.0,1.0,1.0,1.0,1.0,1.0,1.0,1.0,1.0,1.0,1.0,1.0,1.0,1.0,1.0,1.0,1.0,1.0,1.0,1.0,1.0,1.0,1.0,1.0,1.0,1.0,1.0,1.0,1.0,1.0,1.0,1.0,1.0,1.0,1.0,1.0,1.0,1.0,1.0,1.0,1.0,1.0,1.0,1.0,1.0,1.0,1.0,1.0,1.0,1.0,1.0,1.0,1.0,1.0,1.0,1.0,1.0,1.0,1.0,1.0,1.0,1.0,1.0,1.0,1.0,1.0,1.0,1.0,1.0,1.0,1.0,1.0,1.0,1.0,1.0,1.0,1.0,1.0,1.0,1.0,1.0,1.0,1.0,1.0,1.0,1.0,1.0,1.0,1.0,1.0,1.0,1.0,1.0,1.0,1.0,1.0,1.0,1.0,0.0,0.0,0.0,0.0,0.0,0.0,0.0,0.0,0.0,0.0,0.0,0.0,0.0,0.0,0.0,0.0,0.0,0.0,0.0,0.0,0.0,0.0,0.0,0.0,0.0,0.0,0.0,0.0,0.0,0.0,0.0,0.0,0.0,0.0,0.0,0.0,0.0,0.0,0.0,0.0,0.0,0.0,0.0,0.0,0.0,0.0,0.0,0.0,0.0,0.0,0.0,0.0,0.0,0.0,0.0,0.0,0.0,0.0,0.0,0.0,0.0
