0,1,2,3,4,5,6,7,8,9,10,11,12,13,14,15,16,17,18,19,20,21,22,23,24,25,26,27,28,29,30,31,32,33,34,35,36,37,38,39,40,41,42,43,44,45,46,47,48,49,50,51,52,53,54,55,56,57,58,59,60,61,62,63,64,65,66,67,68,69,70,71,72,73,74,75,76,77,78,79,80,81,82,83,84,85,86,87,88,89,90,91,92,93,94,95,96,97,98,99,100,101,102,103,104,105,106,107,108,109,110,111,112,113,114,115,116,117,118,119,120,121,122,123,124,125,126,127,128,129,130,131,132,133,134,135,136,137,138,139,140,141,142,143,144,145,146,147,148,149,150,151,152,153,154,155,156,157,158,159,160,161,162,163,164,165,166,167,168,169,170,171,172,173,174,175,176,177,178,179,180,181,182,183,184,185,186,187,188,189,190,191,192,193,194,195,196,197,198,199,200,201,202,203,204,205,206,207,208,209,210,211,212,213,214,215,216,217,218,219,220,221,222,223,224,225,226,227,228,229,230,231,232,233,234,235,236,237,238,239,240,241,242,243,244,245,246,247,248,249,250,251,252,253,254,255,256,257,258,259,260,261,262,263,264,265,266,267,268,269,270,271,272,273,274,275,276,277,278,279,280,281,282,283,284,285,286,287,288,289,290,291,292,293,294,295,296,297,298,299,300,301,302,303,304,305,306,307,308,309,310,311,312,313,314,315,316,317,318,319,320,321,322,323,324,325,326,327,328,329,330,331,332,333,334,335,336,337,338,339,340,341,342,343,344,345,346,347,348,349,350,351,352,353,354,355,356,357,358,359,360,361,362,363,364,365,366,367,368,369,370,371,372,373,374,375,376,377,378,379,380,381,382,383,384,385,386,387,388,389,390,391,392,393,394,395,396,397,398,399,400,401,402,403,404,405,406,407,408,409,410,411,412,413,414,415,416,417,418,419,420,421,422,423,424,425,426,427,428,429,430,431,432,433,434,435,436,437,438,439,440,441,442,443,444,445,446,447,448,449,450,451,452,453,454,455,456,457,458,459,460,461,462,463,464,465,466,467,468,469,470,471,472,473,474,475,476,477,478,479,480,481,482,483,484,485,486,487,488,489,490,491,492,493,494,495,496,497,498,499,500,501,502,503,504,505,506,507,508,509,510,511
-2.9932225913620982,-6.993222591362097,-5.993222591362097,-7.993222591362097,-3.993222591362098,-2.9932225913620982,-2.9932225913620982,-0.9932225913620982,0.006777408637901772,4.006777408637902,5.006777408637902,5.006777408637902,7.006777408637903,5.006777408637902,4.006777408637902,2.0067774086379018,1.0067774086379018,-2.9932225913620982,-1.9932225913620985,-2.9932225913620982,0.006777408637901772,-4.993222591362098,-7.993222591362097,-6.993222591362097,-1.9932225913620985,-1.9932225913620985,-1.9932225913620985,0.006777408637901772,0.006777408637901772,4.006777408637902,4.006777408637902,6.006777408637903,5.006777408637902,6.006777408637903,6.006777408637903,4.006777408637902,0.006777408637901772,0.006777408637901772,0.006777408637901772,-3.993222591362098,-6.993222591362097,-5.993222591362097,-5.993222591362097,-4.993222591362098,-3.993222591362098,-0.9932225913620982,0.006777408637901772,2.0067774086379018,4.006777408637902,4.006777408637902,2.0067774086379018,5.006777408637902,6.006777408637903,5.006777408637902,2.0067774086379018,1.0067774086379018,3.0067774086379018,1.0067774086379018,-2.9932225913620982,-4.993222591362098,-2.9932225913620982,-4.993222591362098,-5.993222591362097,-7.993222591362097,-6.993222591362097,-0.9932225913620982,-1.9932225913620985,1.0067774086379018,2.0067774086379018,2.0067774086379018,4.006777408637902,4.006777408637902,7.006777408637903,10.006777408637904,4.006777408637902,3.0067774086379018,1.0067774086379018,1.0067774086379018,-2.9932225913620982,-7.993222591362097,-5.993222591362097,-3.993222591362098,-5.993222591362097,-4.993222591362098,-2.9932225913620982,0.006777408637901772,-1.9932225913620985,0.006777408637901772,1.0067774086379018,4.006777408637902,4.006777408637902,4.006777408637902,8.006777408637904,5.006777408637902,5.006777408637902,5.006777408637902,3.0067774086379018,1.0067774086379018,-2.9932225913620982,-6.993222591362097,-3.993222591362098,-3.993222591362098,-5.993222591362097,-5.993222591362097,-2.9932225913620982,-4.993222591362098,-2.9932225913620982,1.0067774086379018,1.0067774086379018,5.006777408637902,4.006777408637902,6.006777408637903,6.006777408637903,3.0067774086379018,3.0067774086379018,3.0067774086379018,1.0067774086379018,-1.9932225913620985,-1.9932225913620985,-4.993222591362098,-3.993222591362098,-0.9932225913620982,-4.993222591362098,-4.993222591362098,-1.9932225913620985,-2.9932225913620982,0.006777408637901772,1.0067774086379018,2.0067774086379018,3.0067774086379018,3.0067774086379018,1.0067774086379018,4.006777408637902,4.006777408637902,3.0067774086379018,5.006777408637902,1.0067774086379018,-0.9932225913620982,-0.9932225913620982,-1.9932225913620985,-4.993222591362098,-3.993222591362098,-2.9932225913620982,-3.993222591362098,-5.993222591362097,-3.993222591362098,3.0067774086379018,1.0067774086379018,3.0067774086379018,5.006777408637902,4.006777408637902,5.006777408637902,5.006777408637902,5.006777408637902,5.006777408637902,3.0067774086379018,0.006777408637901772,1.0067774086379018,-1.9932225913620985,-3.993222591362098,-7.993222591362097,-7.993222591362097,-6.993222591362097,-2.9932225913620982,-4.993222591362098,-1.9932225913620985,-0.9932225913620982,3.0067774086379018,4.006777408637902,4.006777408637902,2.0067774086379018,5.006777408637902,4.006777408637902,6.006777408637903,2.0067774086379018,5.006777408637902,2.0067774086379018,0.006777408637901772,-0.9932225913620982,-4.993222591362098,-2.9932225913620982,-4.993222591362098,-7.993222591362097,-5.993222591362097,-5.993222591362097,-1.9932225913620985,-0.9932225913620982,-1.9932225913620985,0.006777408637901772,4.006777408637902,3.0067774086379018,5.006777408637902,4.006777408637902,2.0067774086379018,4.006777408637902,1.0067774086379018,1.0067774086379018,1.0067774086379018,-0.9932225913620982,-1.9932225913620985,3.0067774086379018,0.006777408637901772,-2.9932225913620982,-10.993222591362096,-11.993222591362096,-9.993222591362096,-3.993222591362098,-2.9932225913620982,-2.9932225913620982,-2.9932225913620982,-6.993222591362097,-1.9932225913620985,5.006777408637902,14.006777408637904,14.006777408637904,12.006777408637904,10.006777408637904,5.006777408637902,0.006777408637901772,0.006777408637901772,-2.9932225913620982,-2.9932225913620982,-7.993222591362097,-1.9932225913620985,7.006777408637903,2.0067774086379018,-3.993222591362098,1.0067774086379018,6.006777408637903,0.006777408637901772,-20.993222591362102,-31.9932225913621,-26.9932225913621,-7.993222591362097,-7.993222591362097,15.006777408637904,25.0067774086379,9.006777408637904,12.006777408637904,25.0067774086379,29.0067774086379,44.006777408637895,35.0067774086379,17.0067774086379,-7.993222591362097,-20.993222591362102,-35.9932225913621,-51.993222591362105,-38.9932225913621,-10.993222591362096,-1.9932225913620985,-1.9932225913620985,-2.9932225913620982,-21.9932225913621,-27.9932225913621,-12.993222591362096,5.006777408637902,6.006777408637903,28.0067774086379,32.0067774086379,19.006777408637898,5.006777408637902,-1.9932225913620985,17.0067774086379,13.006777408637904,-11.993222591362096,-23.9932225913621,-37.9932225913621,-50.993222591362105,-14.993222591362096,45.006777408637895,62.006777408637895,76.0067774086379,73.0067774086379,40.0067774086379,29.0067774086379,-4.993222591362098,-42.993222591362105,-49.993222591362105,-78.9932225913621,-103.9932225913621,-53.993222591362105,-1.9932225913620985,13.006777408637904,6.006777408637903,0.006777408637901772,28.0067774086379,61.006777408637895,109.0067774086379,73.0067774086379,20.006777408637898,-5.993222591362097,-35.9932225913621,-39.9932225913621,-38.9932225913621,-50.993222591362105,-41.9932225913621,-19.993222591362102,5.006777408637902,7.006777408637903,8.006777408637904,-14.993222591362096,-27.9932225913621,-18.993222591362102,7.006777408637903,13.006777408637904,-3.993222591362098,-0.9932225913620982,-18.993222591362102,-11.993222591362096,28.0067774086379,30.0067774086379,-0.9932225913620982,-16.9932225913621,10.006777408637904,53.006777408637895,65.0067774086379,24.0067774086379,37.0067774086379,31.0067774086379,21.006777408637898,20.006777408637898,42.0067774086379,4.006777408637902,-67.9932225913621,-77.9932225913621,-71.9932225913621,-51.993222591362105,-29.9932225913621,-10.993222591362096,14.006777408637904,11.006777408637904,-9.993222591362096,2.0067774086379018,16.0067774086379,17.0067774086379,28.0067774086379,88.0067774086379,88.0067774086379,19.006777408637898,-37.9932225913621,-30.9932225913621,-32.9932225913621,-41.9932225913621,-53.993222591362105,-73.9932225913621,-85.9932225913621,-59.993222591362105,-7.993222591362097,18.006777408637898,21.006777408637898,38.0067774086379,93.0067774086379,83.0067774086379,50.006777408637895,36.0067774086379,-31.9932225913621,-69.9932225913621,-37.9932225913621,9.006777408637904,50.006777408637895,30.0067774086379,-6.993222591362097,-12.993222591362096,-6.993222591362097,60.006777408637895,76.0067774086379,17.0067774086379,-70.9932225913621,-88.9932225913621,-63.993222591362105,-49.993222591362105,-36.9932225913621,-26.9932225913621,-5.993222591362097,4.006777408637902,53.006777408637895,112.0067774086379,81.0067774086379,67.0067774086379,44.006777408637895,-6.993222591362097,-51.993222591362105,-50.993222591362105,-37.9932225913621,-14.993222591362096,-38.9932225913621,-94.9932225913621,-110.9932225913621,-68.9932225913621,9.006777408637904,12.006777408637904,56.006777408637895,97.0067774086379,177.00677740863793,181.00677740863793,69.0067774086379,3.0067774086379018,-17.993222591362102,-50.993222591362105,-84.9932225913621,-97.9932225913621,-101.9932225913621,-89.9932225913621,-58.993222591362105,5.006777408637902,6.006777408637903,23.0067774086379,51.006777408637895,56.006777408637895,111.0067774086379,92.0067774086379,9.006777408637904,-43.993222591362105,-62.993222591362105,-72.9932225913621,-69.9932225913621,-61.993222591362105,-3.993222591362098,60.006777408637895,64.0067774086379,35.0067774086379,18.006777408637898,14.006777408637904,-2.9932225913620982,49.006777408637895,56.006777408637895,4.006777408637902,-70.9932225913621,-80.9932225913621,-41.9932225913621,34.0067774086379,35.0067774086379,42.0067774086379,39.0067774086379,14.006777408637904,-26.9932225913621,-78.9932225913621,-89.9932225913621,-67.9932225913621,-35.9932225913621,8.006777408637904,19.006777408637898,22.0067774086379,31.0067774086379,32.0067774086379,58.006777408637895,107.0067774086379,93.0067774086379,44.006777408637895,-20.993222591362102,-74.9932225913621,-124.9932225913621,-137.9932225913621,-110.9932225913621,-5.993222591362097,73.0067774086379,106.0067774086379,108.0067774086379,40.0067774086379,24.0067774086379,47.006777408637895,40.0067774086379,-18.993222591362102,-106.9932225913621,-91.9932225913621,-31.9932225913621,-15.993222591362096,4.006777408637902,33.0067774086379,72.0067774086379,32.0067774086379,-0.9932225913620982,-31.9932225913621,-39.9932225913621,-3.993222591362098,19.006777408637898,11.006777408637904,-13.993222591362096,-34.9932225913621,-56.993222591362105,-5.993222591362097,17.0067774086379,3.0067774086379018,-45.993222591362105,-4.993222591362098,45.006777408637895,57.006777408637895,83.0067774086379,81.0067774086379,-52.993222591362105,-106.9932225913621,-71.9932225913621,-25.9932225913621,56.006777408637895,150.0067774086379,112.0067774086379,16.0067774086379,-87.9932225913621,-101.9932225913621,-61.993222591362105,-17.993222591362102,-23.9932225913621,2.0067774086379018,32.0067774086379,11.006777408637904,3.0067774086379018,-2.9932225913620982,12.006777408637904,-10.993222591362096,-34.9932225913621,-23.9932225913621
0.0,0.0,0.0,0.0,0.0,0.0,0.0,0.0,0.0,0.0,0.0,0.0,0.0,0.0,0.0,0.0,0.0,0.0,0.0,0.0,0.0,0.0,0.0,0.0,0.0,0.0,0.0,0.0,0.0,0.0,0.0,0.0,0.0,0.0,0.0,0.0,0.0,0.0,0.0,0.0,0.0,0.0,0.0,0.0,0.0,0.0,0.0,0.0,0.0,0.0,0.0,0.0,0.0,0.0,0.0,0.0,0.0,0.0,0.0,0.0,0.0,0.0,0.0,0.0,0.0,0.0,0.0,0.0,0.0,0.0,0.0,0.0,0.0,0.0,0.0,0.0,0.0,0.0,0.0,0.0,0.0,0.0,0.0,0.0,0.0,0.0,0.0,0.0,0.0,0.0,0.0,0.0,0.0,0.0,0.0,0.0,0.0,0.0,0.0,0.0,0.0,0.0,0.0,0.0,0.0,0.0,0.0,0.0,0.0,0.0,0.0,0.0,0.0,0.0,0.0,0.0,0.0,0.0,0.0,0.0,0.0,0.0,0.0,0.0,0.0,0.0,0.0,0.0,0.0,0.0,0.0,0.0,0.0,0.0,0.0,0.0,0.0,0.0,0.0,0.0,0.0,0.0,0.0,0.0,0.0,0.0,0.0,0.0,0.0,0.0,0.0,0.0,0.0,0.0,0.0,0.0,0.0,0.0,0.0,0.0,0.0,0.0,0.0,0.0,0.0,0.0,0.0,0.0,0.0,0.0,0.0,0.0,0.0,0.0,0.0,0.0,0.0,0.0,0.0,0.0,0.0,0.0,0.0,0.0,0.0,0.0,0.0,0.0,0.0,0.0,0.0,0.0,0.0,0.0,0.0,0.0,0.0,0.0,0.0,0.0,0.0,0.0,0.0,0.0,0.0,0.0,0.0,0.0,0.0,0.0,0.0,0.0,0.0,0.0,0.0,0.0,1.0,1.0,1.0,1.0,1.0,1.0,1.0,1.0,1.0,1.0,1.0,1.0,1.0,1.0,1.0,1.0,1.0,1.0,1.0,1.0,1.0,1.0,1.0,1.0,1.0,1.0,1.0,1.0,1.0,1.0,1.0,1.0,1.0,1.0,1.0,1.0,1.0,1.0,1.0,1.0,1.0,1.0,1.0,1.0,1.0,1.0,1.0,1.0,1.0,1.0,1.0,1.0,1.0,1.0,1.0,1.0,1.0,1.0,1.0,1.0,1.0,1.0,1.0,1.0,1.0,1.0,1.0,1.0,1.0,1.0,1.0,1.0,1.0,1.0,1.0,1.0,1.0,1.0,1.0,1.0,1.0,1.0,1.0,1.0,1.0,1.0,1.0,1.0,1.0,1.0,1.0,1.0,1.0,1.0,1.0,1.0,1.0,1.0,1.0,1.0,1.0,1.0,1.0,1.0,1.0,1.0,1.0,1.0,1.0,1.0,1.0,1.0,1.0,1.0,1.0,1.0,1.0,1.0,1.0,1.0,1.0,1.0,1.0,1.0,1.0,1.0,1.0,1.0,1.0,1.0,1.0,1.0,1.0,1.0,1.0,1.0,1.0,1.0,1.0,1.0,1.0,1.0,1.0,1.0,1.0,1.0,1.0,1.0,1.0,1.0,1.0,1.0,1.0,1.0,1.0,1.0,1.0,1.0,1.0,1.0,1.0,1.0,1.0,1.0,1.0,1.0,1.0,1.0,1.0,1.0,1.0,1.0,1.0,1.0,1.0,1.0,1.0,1.0,1.0,1.0,1.0,1.0,1.0,1.0,1.0,1.0,1.0,1.0,1.0,1.0,1.0,1.0,1.0,1.0,1.0,1.0,1.0,1.0,1.0,1.0,1.0,1.0,1.0,1.0,1.0,1.0,1.0,1.0,1.0,1.0,1.0,1.0,1.0,1.0,1.0,1.0,1.0,1.0,1.0,1.0,1.0,1.0,1.0,1.0,1.0,1.0,1.0,1.0,1.0,1.0,1.0,1.0,1.0,1.0,1.0,1.0,1.0,1.0,1.0,1.0,1.0,1.0,1.0,1.0,1.0,1.0,1.0,1.0,1.0,1.0,1.0,1.0,1.0,1.0,1.0,1.0,1.0,1.0,1.0,1.0,1.0,1.0,1.0,1.0,1.0,1.0,1.0,1.0,1.0,1.0,1.0,1.0,1.0,1.0,1.0,1.0,1.0,1.0,1.0,1.0,1.0,1.0,1.0,1.0,1.0,1.0,1.0,1.0,1.0,1.0,1.0,1.0,1.0,1.0,1.0,1.0
