0,1,2,3,4,5,6,7,8,9,10,11,12,13,14,15,16,17,18,19,20,21,22,23,24,25,26,27,28,29,30,31,32,33,34,35,36,37,38,39,40,41,42,43,44,45,46,47,48,49,50,51,52,53,54,55,56,57,58,59,60,61,62,63,64,65,66,67,68,69,70,71,72,73,74,75,76,77,78,79,80,81,82,83,84,85,86,87,88,89,90,91,92,93,94,95,96,97,98,99,100,101,102,103,104,105,106,107,108,109,110,111,112,113,114,115,116,117,118,119,120,121,122,123,124,125,126,127,128,129,130,131,132,133,134,135,136,137,138,139,140,141,142,143,144,145,146,147,148,149,150,151,152,153,154,155,156,157,158,159,160,161,162,163,164,165,166,167,168,169,170,171,172,173,174,175,176,177,178,179,180,181,182,183,184,185,186,187,188,189,190,191,192,193,194,195,196,197,198,199,200,201,202,203,204,205,206,207,208,209,210,211,212,213,214,215,216,217,218,219,220,221,222,223,224,225,226,227,228,229,230,231,232,233,234,235,236,237,238,239,240,241,242,243,244,245,246,247,248,249,250,251,252,253,254,255,256,257,258,259,260,261,262,263,264,265,266,267,268,269,270,271,272,273,274,275,276,277,278,279,280,281,282,283,284,285,286,287,288,289,290,291,292,293,294,295,296,297,298,299,300,301,302,303,304,305,306,307,308,309,310,311,312,313,314,315,316,317,318,319,320,321,322,323,324,325,326,327,328,329,330,331,332,333,334,335,336,337,338,339,340,341,342,343,344,345,346,347,348,349,350,351,352,353,354,355,356,357,358,359,360,361,362,363,364,365,366,367,368,369,370,371,372,373,374,375,376,377,378,379,380,381,382,383,384,385,386,387,388,389,390,391,392,393,394,395,396,397,398,399,400,401,402,403,404,405,406,407,408,409,410,411,412,413,414,415,416,417,418,419,420,421,422,423,424,425,426,427,428,429,430,431,432,433,434,435,436,437,438,439,440,441,442,443,444,445,446,447,448,449,450,451,452,453,454,455,456,457,458,459,460,461,462,463,464,465,466,467,468,469,470,471,472,473,474,475,476,477,478,479,480,481,482,483,484,485,486,487,488,489,490,491,492,493,494,495,496,497,498,499,500,501,502,503,504,505,506,507,508,509,510,511
-19.96504983388707,-7.965049833887066,-0.9650498338870648,-7.965049833887066,9.034950166112935,5.034950166112934,-12.965049833887065,-26.96504983388707,-34.965049833887065,-17.96504983388707,-2.9650498338870652,-13.965049833887065,7.034950166112934,23.034950166112928,29.034950166112928,8.034950166112935,6.034950166112934,31.034950166112928,-3.9650498338870652,-23.96504983388707,-2.9650498338870652,9.034950166112935,-5.965049833887066,-35.965049833887065,-58.965049833887065,-56.965049833887065,-29.96504983388707,-59.965049833887065,-76.96504983388706,-68.96504983388706,-31.96504983388707,-5.965049833887066,-22.96504983388707,-33.965049833887065,-55.965049833887065,-43.965049833887065,-31.96504983388707,-33.965049833887065,-12.965049833887065,-0.9650498338870648,-20.96504983388707,-70.96504983388706,-82.96504983388706,-71.96504983388706,-36.965049833887065,-6.965049833887066,12.034950166112935,46.034950166112935,68.03495016611294,97.03495016611294,70.03495016611294,-2.9650498338870652,-27.96504983388707,25.034950166112928,17.034950166112935,-4.965049833887066,2.0349501661129348,28.034950166112928,8.034950166112935,-22.96504983388707,-15.965049833887065,-6.965049833887066,10.034950166112935,-8.965049833887065,-35.965049833887065,-25.96504983388707,-29.96504983388707,-47.965049833887065,-34.965049833887065,-36.965049833887065,8.034950166112935,66.03495016611294,104.03495016611294,121.03495016611294,108.03495016611294,53.034950166112935,-19.96504983388707,-13.965049833887065,4.034950166112935,19.03495016611293,31.034950166112928,35.03495016611293,37.034950166112935,17.034950166112935,-4.965049833887066,-2.9650498338870652,-22.96504983388707,-41.965049833887065,-49.965049833887065,-23.96504983388707,23.034950166112928,82.03495016611294,116.03495016611294,105.03495016611294,55.034950166112935,12.034950166112935,-17.96504983388707,-39.965049833887065,-34.965049833887065,-28.96504983388707,-30.96504983388707,2.0349501661129348,-5.965049833887066,20.03495016611293,49.034950166112935,32.03495016611293,-5.965049833887066,-30.96504983388707,-41.965049833887065,-9.965049833887065,-21.96504983388707,17.034950166112935,15.034950166112935,-7.965049833887066,-21.96504983388707,-22.96504983388707,-24.96504983388707,29.034950166112928,50.034950166112935,36.034950166112935,6.034950166112934,41.034950166112935,76.03495016611294,102.03495016611294,84.03495016611294,24.034950166112928,-57.965049833887065,-103.96504983388706,-99.96504983388706,-80.96504983388706,-70.96504983388706,-39.965049833887065,14.034950166112935,69.03495016611294,101.03495016611294,70.03495016611294,62.034950166112935,45.034950166112935,-0.9650498338870648,-8.965049833887065,7.034950166112934,-0.9650498338870648,-30.96504983388707,-17.96504983388707,4.034950166112935,6.034950166112934,31.034950166112928,15.034950166112935,-20.96504983388707,-25.96504983388707,-20.96504983388707,-16.965049833887065,-23.96504983388707,-40.965049833887065,-14.965049833887065,44.034950166112935,98.03495016611294,97.03495016611294,36.034950166112935,-27.96504983388707,-108.96504983388706,-87.96504983388706,-50.965049833887065,-62.965049833887065,-2.9650498338870652,82.03495016611294,111.03495016611294,49.034950166112935,3.0349501661129348,-10.965049833887065,-19.96504983388707,-36.965049833887065,-40.965049833887065,-19.96504983388707,16.034950166112935,53.034950166112935,55.034950166112935,64.03495016611294,53.034950166112935,5.034950166112934,-38.965049833887065,-15.965049833887065,-3.9650498338870652,-18.96504983388707,-19.96504983388707,-19.96504983388707,-19.96504983388707,-5.965049833887066,-23.96504983388707,-43.965049833887065,-23.96504983388707,-16.965049833887065,3.0349501661129348,19.03495016611293,6.034950166112934,24.034950166112928,97.03495016611294,80.03495016611294,93.03495016611294,92.03495016611294,7.034950166112934,-92.96504983388706,-105.96504983388706,-71.96504983388706,-20.96504983388707,33.03495016611293,30.034950166112928,12.034950166112935,-12.965049833887065,-65.96504983388706,-42.965049833887065,-4.965049833887066,-8.965049833887065,15.034950166112935,46.034950166112935,37.034950166112935,34.03495016611293,17.034950166112935,15.034950166112935,0.03495016611293522,-8.965049833887065,5.034950166112934,13.034950166112935,25.034950166112928,12.034950166112935,16.034950166112935,-16.965049833887065,-55.965049833887065,-53.965049833887065,-24.96504983388707,2.0349501661129348,-11.965049833887065,-25.96504983388707,-36.965049833887065,33.03495016611293,107.03495016611294,90.03495016611294,38.034950166112935,-7.965049833887066,-68.96504983388706,-65.96504983388706,-12.965049833887065,-1.9650498338870648,-0.9650498338870648,27.034950166112928,-2.9650498338870652,-13.965049833887065,12.034950166112935,12.034950166112935,-14.965049833887065,-31.96504983388707,-10.965049833887065,13.034950166112935,20.03495016611293,-4.965049833887066,-27.96504983388707,-38.965049833887065,-1.9650498338870648,7.034950166112934,104.03495016611294,138.03495016611294,74.03495016611294,39.034950166112935,-11.965049833887065,-57.965049833887065,-94.96504983388706,-88.96504983388706,-73.96504983388706,-27.96504983388707,0.03495016611293522,22.03495016611293,33.03495016611293,-2.9650498338870652,6.034950166112934,36.034950166112935,16.034950166112935,-0.9650498338870648,12.034950166112935,16.034950166112935,7.034950166112934,5.034950166112934,2.0349501661129348,-5.965049833887066,-19.96504983388707,-41.965049833887065,-85.96504983388706,-83.96504983388706,-9.965049833887065,63.034950166112935,56.034950166112935,54.034950166112935,68.03495016611294,75.03495016611294,53.034950166112935,15.034950166112935,-49.965049833887065,-55.965049833887065,-32.965049833887065,-14.965049833887065,5.034950166112934,17.034950166112935,-1.9650498338870648,-10.965049833887065,-23.96504983388707,-30.96504983388707,-20.96504983388707,-26.96504983388707,-18.96504983388707,-11.965049833887065,-7.965049833887066,-13.965049833887065,-15.965049833887065,-15.965049833887065,7.034950166112934,57.034950166112935,65.03495016611294,22.03495016611293,-12.965049833887065,1.0349501661129352,6.034950166112934,12.034950166112935,17.034950166112935,32.03495016611293,29.034950166112928,-9.965049833887065,-34.965049833887065,-28.96504983388707,-27.96504983388707,-26.96504983388707,-17.96504983388707,-8.965049833887065,-1.9650498338870648,6.034950166112934,10.034950166112935,18.03495016611293,19.03495016611293,11.034950166112935,13.034950166112935,8.034950166112935,9.034950166112935,0.03495016611293522,-6.965049833887066,17.034950166112935,19.03495016611293,4.034950166112935,-8.965049833887065,-7.965049833887066,-23.96504983388707,-30.96504983388707,-27.96504983388707,-32.965049833887065,-15.965049833887065,24.034950166112928,38.034950166112935,29.034950166112928,17.034950166112935,14.034950166112935,14.034950166112935,14.034950166112935,10.034950166112935,6.034950166112934,-1.9650498338870648,-6.965049833887066,-10.965049833887065,-15.965049833887065,-19.96504983388707,-23.96504983388707,-23.96504983388707,-17.96504983388707,-10.965049833887065,-0.9650498338870648,4.034950166112935,5.034950166112934,8.034950166112935,12.034950166112935,18.03495016611293,16.034950166112935,15.034950166112935,9.034950166112935,8.034950166112935,24.034950166112928,18.03495016611293,-3.9650498338870652,9.034950166112935,-11.965049833887065,-38.965049833887065,-36.965049833887065,-31.96504983388707,-19.96504983388707,-6.965049833887066,-2.9650498338870652,-3.9650498338870652,1.0349501661129352,15.034950166112935,23.034950166112928,22.03495016611293,22.03495016611293,20.03495016611293,17.034950166112935,8.034950166112935,12.034950166112935,4.034950166112935,-11.965049833887065,-13.965049833887065,-18.96504983388707,-17.96504983388707,-14.965049833887065,-19.96504983388707,-19.96504983388707,-14.965049833887065,-14.965049833887065,-14.965049833887065,-7.965049833887066,13.034950166112935,63.034950166112935,58.034950166112935,33.03495016611293,13.034950166112935,11.034950166112935,17.034950166112935,22.03495016611293,-15.965049833887065,-22.96504983388707,-27.96504983388707,-30.96504983388707,-34.965049833887065,-32.965049833887065,-24.96504983388707,-20.96504983388707,-14.965049833887065,0.03495016611293522,-2.9650498338870652,-4.965049833887066,11.034950166112935,30.034950166112928,39.034950166112935,38.034950166112935,28.034950166112928,9.034950166112935,5.034950166112934,-8.965049833887065,2.0349501661129348,4.034950166112935,-15.965049833887065,-17.96504983388707,-19.96504983388707,-15.965049833887065,-7.965049833887066,-9.965049833887065,-9.965049833887065,-15.965049833887065,-0.9650498338870648,6.034950166112934,-2.9650498338870652,5.034950166112934,9.034950166112935,7.034950166112934,23.034950166112928,15.034950166112935,16.034950166112935,19.03495016611293,11.034950166112935,2.0349501661129348,-3.9650498338870652,-19.96504983388707,-35.965049833887065,-45.965049833887065,-20.96504983388707,-1.9650498338870648,2.0349501661129348,1.0349501661129352,1.0349501661129352,6.034950166112934,9.034950166112935,-1.9650498338870648,-2.9650498338870652,8.034950166112935,25.034950166112928,42.034950166112935,43.034950166112935,25.034950166112928,10.034950166112935,-9.965049833887065,-19.96504983388707,-38.965049833887065,-23.96504983388707,-6.965049833887066,-1.9650498338870648,6.034950166112934,5.034950166112934,-1.9650498338870648,-13.965049833887065,-8.965049833887065,-11.965049833887065,-4.965049833887066,0.03495016611293522,5.034950166112934,24.034950166112928,22.03495016611293,21.03495016611293,12.034950166112935,-11.965049833887065,-17.96504983388707,-8.965049833887065,-3.9650498338870652,-5.965049833887066,-11.965049833887065,-1.9650498338870648,9.034950166112935,-4.965049833887066,-20.96504983388707,-14.965049833887065
1.0,1.0,1.0,1.0,1.0,1.0,1.0,1.0,1.0,1.0,1.0,1.0,1.0,1.0,1.0,1.0,1.0,1.0,1.0,1.0,1.0,1.0,1.0,1.0,1.0,1.0,1.0,1.0,1.0,1.0,1.0,1.0,1.0,1.0,1.0,1.0,1.0,1.0,1.0,1.0,1.0,1.0,1.0,1.0,1.0,1.0,1.0,1.0,1.0,1.0,1.0,1.0,1.0,1.0,1.0,1.0,1.0,1.0,1.0,1.0,1.0,1.0,1.0,1.0,1.0,1.0,1.0,1.0,1.0,1.0,1.0,1.0,1.0,1.0,1.0,1.0,1.0,1.0,1.0,1.0,1.0,1.0,1.0,1.0,1.0,1.0,1.0,1.0,1.0,1.0,1.0,1.0,1.0,1.0,1.0,1.0,1.0,1.0,1.0,1.0,1.0,1.0,1.0,1.0,1.0,1.0,1.0,1.0,1.0,1.0,1.0,1.0,1.0,1.0,1.0,1.0,1.0,1.0,1.0,1.0,1.0,1.0,1.0,1.0,1.0,1.0,1.0,1.0,1.0,1.0,1.0,1.0,1.0,1.0,1.0,1.0,1.0,1.0,1.0,1.0,1.0,1.0,1.0,1.0,1.0,1.0,1.0,1.0,1.0,1.0,1.0,1.0,1.0,1.0,1.0,1.0,1.0,1.0,1.0,1.0,1.0,1.0,1.0,1.0,1.0,1.0,1.0,1.0,1.0,1.0,1.0,1.0,1.0,1.0,1.0,1.0,1.0,1.0,1.0,1.0,1.0,1.0,1.0,1.0,1.0,1.0,1.0,1.0,1.0,1.0,1.0,1.0,1.0,1.0,1.0,1.0,1.0,1.0,1.0,1.0,1.0,1.0,1.0,1.0,1.0,1.0,1.0,1.0,1.0,1.0,1.0,1.0,1.0,1.0,1.0,1.0,1.0,1.0,1.0,1.0,1.0,1.0,1.0,1.0,1.0,1.0,1.0,1.0,1.0,1.0,1.0,1.0,1.0,1.0,1.0,1.0,1.0,1.0,1.0,1.0,1.0,1.0,1.0,1.0,1.0,1.0,1.0,1.0,1.0,1.0,1.0,1.0,1.0,1.0,1.0,1.0,1.0,1.0,1.0,1.0,1.0,1.0,1.0,1.0,1.0,1.0,1.0,1.0,1.0,1.0,1.0,1.0,1.0,1.0,1.0,1.0,1.0,1.0,1.0,1.0,1.0,1.0,1.0,1.0,1.0,1.0,1.0,1.0,1.0,1.0,1.0,1.0,1.0,1.0,1.0,1.0,1.0,1.0,1.0,1.0,1.0,1.0,1.0,1.0,1.0,1.0,1.0,1.0,1.0,1.0,1.0,1.0,1.0,1.0,1.0,1.0,1.0,1.0,1.0,1.0,1.0,1.0,1.0,1.0,1.0,1.0,1.0,1.0,1.0,1.0,1.0,1.0,1.0,1.0,1.0,1.0,1.0,1.0,1.0,1.0,1.0,1.0,1.0,1.0,1.0,1.0,1.0,1.0,1.0,1.0,1.0,1.0,1.0,1.0,1.0,1.0,1.0,1.0,1.0,1.0,1.0,1.0,1.0,1.0,1.0,1.0,1.0,1.0,1.0,1.0,1.0,1.0,1.0,1.0,1.0,1.0,1.0,1.0,1.0,1.0,1.0,1.0,1.0,1.0,1.0,1.0,1.0,1.0,1.0,1.0,1.0,1.0,1.0,1.0,1.0,1.0,1.0,1.0,1.0,1.0,1.0,1.0,1.0,1.0,1.0,1.0,1.0,1.0,1.0,1.0,1.0,1.0,1.0,1.0,1.0,1.0,1.0,1.0,1.0,1.0,1.0,1.0,1.0,1.0,1.0,1.0,1.0,1.0,1.0,1.0,1.0,1.0,1.0,1.0,1.0,1.0,1.0,1.0,1.0,1.0,1.0,1.0,1.0,1.0,1.0,1.0,1.0,1.0,1.0,1.0,1.0,1.0,1.0,1.0,1.0,1.0,1.0,1.0,1.0,1.0,1.0,1.0,1.0,1.0,1.0,1.0,1.0,1.0,1.0,1.0,1.0,1.0,1.0,1.0,1.0,1.0,1.0,1.0,1.0,1.0,1.0,1.0,1.0,1.0,1.0,1.0,1.0,1.0,1.0,1.0,1.0,1.0,1.0,1.0,1.0,1.0,1.0,1.0,1.0,1.0,1.0,1.0,1.0,1.0,1.0,1.0,1.0,1.0,1.0,1.0,1.0,1.0
