0,1,2,3,4,5,6,7,8,9,10,11,12,13,14,15,16,17,18,19,20,21,22,23,24,25,26,27,28,29,30,31,32,33,34,35,36,37,38,39,40,41,42,43,44,45,46,47,48,49,50,51,52,53,54,55,56,57,58,59,60,61,62,63,64,65,66,67,68,69,70,71,72,73,74,75,76,77,78,79,80,81,82,83,84,85,86,87,88,89,90,91,92,93,94,95,96,97,98,99,100,101,102,103,104,105,106,107,108,109,110,111,112,113,114,115,116,117,118,119,120,121,122,123,124,125,126,127,128,129,130,131,132,133,134,135,136,137,138,139,140,141,142,143,144,145,146,147,148,149,150,151,152,153,154,155,156,157,158,159,160,161,162,163,164,165,166,167,168,169,170,171,172,173,174,175,176,177,178,179,180,181,182,183,184,185,186,187,188,189,190,191,192,193,194,195,196,197,198,199,200,201,202,203,204,205,206,207,208,209,210,211,212,213,214,215,216,217,218,219,220,221,222,223,224,225,226,227,228,229,230,231,232,233,234,235,236,237,238,239,240,241,242,243,244,245,246,247,248,249,250,251,252,253,254,255,256,257,258,259,260,261,262,263,264,265,266,267,268,269,270,271,272,273,274,275,276,277,278,279,280,281,282,283,284,285,286,287,288,289,290,291,292,293,294,295,296,297,298,299,300,301,302,303,304,305,306,307,308,309,310,311,312,313,314,315,316,317,318,319,320,321,322,323,324,325,326,327,328,329,330,331,332,333,334,335,336,337,338,339,340,341,342,343,344,345,346,347,348,349,350,351,352,353,354,355,356,357,358,359,360,361,362,363,364,365,366,367,368,369,370,371,372,373,374,375,376,377,378,379,380,381,382,383,384,385,386,387,388,389,390,391,392,393,394,395,396,397,398,399,400,401,402,403,404,405,406,407,408,409,410,411,412,413,414,415,416,417,418,419,420,421,422,423,424,425,426,427,428,429,430,431,432,433,434,435,436,437,438,439,440,441,442,443,444,445,446,447,448,449,450,451,452,453,454,455,456,457,458,459,460,461,462,463,464,465,466,467,468,469,470,471,472,473,474,475,476,477,478,479,480,481,482,483,484,485,486,487,488,489,490,491,492,493,494,495,496,497,498,499,500,501,502,503,504,505,506,507,508,509,510,511
20.008139534883696,25.008139534883696,25.008139534883696,25.008139534883696,17.008139534883696,2.0081395348836963,-10.991860465116305,-7.9918604651163045,-12.991860465116305,-19.991860465116304,-25.991860465116304,-21.991860465116304,-15.991860465116305,-8.991860465116304,-2.991860465116304,2.0081395348836963,2.0081395348836963,-1.991860465116304,6.0081395348836955,13.008139534883695,15.008139534883695,17.008139534883696,8.008139534883696,-5.9918604651163045,-22.991860465116304,-24.991860465116304,-23.991860465116304,-14.991860465116305,-15.991860465116305,8.008139534883696,24.008139534883696,8.008139534883696,1.0081395348836963,-5.9918604651163045,-6.9918604651163045,10.008139534883696,21.008139534883696,29.008139534883696,43.008139534883696,35.008139534883696,-7.9918604651163045,-30.991860465116304,-24.991860465116304,0.008139534883696342,27.008139534883696,29.008139534883696,8.008139534883696,-20.991860465116304,-38.991860465116304,-37.991860465116304,-15.991860465116305,36.008139534883696,62.008139534883696,50.008139534883696,30.008139534883696,1.0081395348836963,-29.991860465116304,-62.991860465116304,-63.991860465116304,-29.991860465116304,-33.991860465116304,-21.991860465116304,-15.991860465116305,-25.991860465116304,-9.991860465116304,16.008139534883696,68.0081395348837,82.0081395348837,18.008139534883696,-19.991860465116304,17.008139534883696,6.0081395348836955,-25.991860465116304,-26.991860465116304,-2.991860465116304,17.008139534883696,22.008139534883696,27.008139534883696,50.008139534883696,53.008139534883696,37.008139534883696,-6.9918604651163045,-37.991860465116304,-44.991860465116304,-40.991860465116304,-23.991860465116304,-13.991860465116305,-19.991860465116304,-37.991860465116304,-44.991860465116304,-56.991860465116304,-85.99186046511629,-106.99186046511629,-91.99186046511629,-70.9918604651163,-35.991860465116304,20.008139534883696,33.008139534883696,39.008139534883696,138.0081395348837,201.0081395348837,196.0081395348837,142.0081395348837,75.0081395348837,-2.991860465116304,-47.991860465116304,-77.9918604651163,-87.99186046511629,-110.99186046511629,-113.99186046511629,-103.99186046511629,-94.99186046511629,-82.9918604651163,-77.9918604651163,-71.9918604651163,-52.991860465116304,5.008139534883696,9.008139534883696,28.008139534883696,64.0081395348837,84.0081395348837,83.0081395348837,46.008139534883696,-18.991860465116304,-70.9918604651163,-82.9918604651163,-73.9918604651163,-27.991860465116304,-2.991860465116304,7.0081395348836955,5.008139534883696,-43.991860465116304,-105.99186046511629,-129.9918604651163,-93.99186046511629,-51.991860465116304,10.008139534883696,48.008139534883696,69.0081395348837,49.008139534883696,17.008139534883696,5.008139534883696,-27.991860465116304,-5.9918604651163045,17.008139534883696,136.0081395348837,203.0081395348837,154.0081395348837,51.008139534883696,9.008139534883696,-21.991860465116304,-88.99186046511629,-126.99186046511629,-134.9918604651163,-91.99186046511629,-75.9918604651163,-76.9918604651163,-44.991860465116304,5.008139534883696,35.008139534883696,90.00813953488371,180.0081395348837,183.0081395348837,171.0081395348837,92.00813953488371,32.008139534883696,26.008139534883696,-2.991860465116304,-59.991860465116304,-32.991860465116304,16.008139534883696,16.008139534883696,-23.991860465116304,-43.991860465116304,-33.991860465116304,-7.9918604651163045,28.008139534883696,14.008139534883695,-20.991860465116304,-40.991860465116304,-62.991860465116304,-68.9918604651163,-12.991860465116305,77.0081395348837,142.0081395348837,139.0081395348837,82.0081395348837,11.008139534883695,-2.991860465116304,-3.991860465116304,-36.991860465116304,-67.9918604651163,-43.991860465116304,-15.991860465116305,25.008139534883696,26.008139534883696,17.008139534883696,-12.991860465116305,-16.991860465116304,6.0081395348836955,75.0081395348837,56.008139534883696,24.008139534883696,8.008139534883696,-13.991860465116305,-23.991860465116304,-17.991860465116304,33.008139534883696,-10.991860465116305,-41.991860465116304,-74.9918604651163,-69.9918604651163,-59.991860465116304,-14.991860465116305,12.008139534883695,18.008139534883696,50.008139534883696,68.0081395348837,27.008139534883696,24.008139534883696,15.008139534883695,-12.991860465116305,46.008139534883696,16.008139534883696,-44.991860465116304,-73.9918604651163,-19.991860465116304,6.0081395348836955,58.008139534883696,116.00813953488371,113.00813953488371,38.008139534883696,21.008139534883696,-54.991860465116304,-74.9918604651163,-41.991860465116304,-75.9918604651163,-53.991860465116304,-14.991860465116305,-40.991860465116304,-53.991860465116304,-43.991860465116304,1.0081395348836963,33.008139534883696,20.008139534883696,85.0081395348837,121.00813953488371,106.00813953488371,55.008139534883696,32.008139534883696,23.008139534883696,-21.991860465116304,-130.9918604651163,-162.9918604651163,-67.9918604651163,-12.991860465116305,-23.991860465116304,59.008139534883696,129.0081395348837,59.008139534883696,24.008139534883696,80.0081395348837,101.00813953488371,7.0081395348836955,-100.99186046511629,-113.99186046511629,-68.9918604651163,-70.9918604651163,-93.99186046511629,-56.991860465116304,-62.991860465116304,-28.991860465116304,60.008139534883696,161.0081395348837,131.0081395348837,82.0081395348837,38.008139534883696,8.008139534883696,-78.9918604651163,-89.99186046511629,-64.9918604651163,-22.991860465116304,16.008139534883696,25.008139534883696,39.008139534883696,52.008139534883696,83.0081395348837,118.00813953488371,24.008139534883696,-79.9918604651163,-131.9918604651163,-96.99186046511629,-55.991860465116304,-36.991860465116304,-13.991860465116305,10.008139534883696,53.008139534883696,65.0081395348837,42.008139534883696,-15.991860465116305,-66.9918604651163,-67.9918604651163,-36.991860465116304,81.0081395348837,172.0081395348837,84.0081395348837,32.008139534883696,-51.991860465116304,-78.9918604651163,-24.991860465116304,22.008139534883696,3.0081395348836963,-14.991860465116305,-49.991860465116304,-18.991860465116304,-7.9918604651163045,-10.991860465116305,30.008139534883696,-2.991860465116304,-27.991860465116304,-32.991860465116304,14.008139534883695,79.0081395348837,75.0081395348837,26.008139534883696,3.0081395348836963,-40.991860465116304,-14.991860465116305,-17.991860465116304,-19.991860465116304,-63.991860465116304,7.0081395348836955,35.008139534883696,39.008139534883696,25.008139534883696,-28.991860465116304,-80.9918604651163,-48.991860465116304,-26.991860465116304,-33.991860465116304,9.008139534883696,31.008139534883696,53.008139534883696,113.00813953488371,115.00813953488371,84.0081395348837,-10.991860465116305,-140.9918604651163,-108.99186046511629,-35.991860465116304,-5.9918604651163045,-7.9918604651163045,53.008139534883696,36.008139534883696,-44.991860465116304,-94.99186046511629,19.008139534883696,109.00813953488371,91.00813953488371,81.0081395348837,-12.991860465116305,-34.991860465116304,30.008139534883696,39.008139534883696,-3.991860465116304,-106.99186046511629,-113.99186046511629,-56.991860465116304,36.008139534883696,112.00813953488371,71.0081395348837,-83.9918604651163,-126.99186046511629,-43.991860465116304,-26.991860465116304,8.008139534883696,15.008139534883695,23.008139534883696,1.0081395348836963,40.008139534883696,56.008139534883696,61.008139534883696,30.008139534883696,34.008139534883696,22.008139534883696,-21.991860465116304,-79.9918604651163,-105.99186046511629,-77.9918604651163,13.008139534883695,105.00813953488371,93.00813953488371,4.008139534883696,-69.9918604651163,-76.9918604651163,13.008139534883695,81.0081395348837,34.008139534883696,8.008139534883696,44.008139534883696,24.008139534883696,-34.991860465116304,-44.991860465116304,-51.991860465116304,-48.991860465116304,-21.991860465116304,4.008139534883696,50.008139534883696,73.0081395348837,93.00813953488371,78.0081395348837,-78.9918604651163,-118.99186046511629,-105.99186046511629,-71.9918604651163,-30.991860465116304,23.008139534883696,62.008139534883696,27.008139534883696,33.008139534883696,93.00813953488371,93.00813953488371,53.008139534883696,27.008139534883696,1.0081395348836963,-66.9918604651163,-62.991860465116304,-52.991860465116304,-76.9918604651163,-83.9918604651163,-54.991860465116304,8.008139534883696,69.0081395348837,48.008139534883696,26.008139534883696,25.008139534883696,-5.9918604651163045,1.0081395348836963,4.008139534883696,20.008139534883696,16.008139534883696,8.008139534883696,14.008139534883695,13.008139534883695,28.008139534883696,-40.991860465116304,-77.9918604651163,-17.991860465116304,9.008139534883696,6.0081395348836955,-7.9918604651163045,4.008139534883696,9.008139534883696,-2.991860465116304,-34.991860465116304,-1.991860465116304,15.008139534883695,70.0081395348837,63.008139534883696,34.008139534883696,0.008139534883696342,-24.991860465116304,-79.9918604651163,-80.9918604651163,-18.991860465116304,38.008139534883696,63.008139534883696,55.008139534883696,7.0081395348836955,-26.991860465116304,-36.991860465116304,-22.991860465116304,-12.991860465116305,-10.991860465116305,-8.991860465116304,-1.991860465116304,-9.991860465116304,-1.991860465116304,12.008139534883695,18.008139534883696,23.008139534883696,25.008139534883696,25.008139534883696,16.008139534883696,8.008139534883696,8.008139534883696,-0.9918604651163035,-13.991860465116305,-23.991860465116304,-26.991860465116304,-28.991860465116304,-12.991860465116305,-11.991860465116305,-19.991860465116304,-28.991860465116304,-16.991860465116304,9.008139534883696,3.0081395348836963,-5.9918604651163045,3.0081395348836963,17.008139534883696,64.0081395348837,101.00813953488371,67.0081395348837,20.008139534883696,-5.9918604651163045,-25.991860465116304,-27.991860465116304,-28.991860465116304,-28.991860465116304,-25.991860465116304,-24.991860465116304
0.0,0.0,0.0,0.0,1.0,1.0,1.0,1.0,1.0,1.0,1.0,1.0,1.0,1.0,1.0,1.0,1.0,1.0,1.0,1.0,1.0,1.0,1.0,1.0,1.0,1.0,1.0,1.0,1.0,1.0,1.0,1.0,1.0,1.0,1.0,1.0,1.0,1.0,1.0,1.0,1.0,1.0,1.0,1.0,1.0,1.0,1.0,1.0,1.0,1.0,1.0,1.0,1.0,1.0,1.0,1.0,1.0,1.0,1.0,1.0,1.0,1.0,1.0,1.0,1.0,1.0,1.0,1.0,1.0,1.0,1.0,1.0,1.0,1.0,1.0,1.0,1.0,1.0,1.0,1.0,1.0,1.0,1.0,1.0,1.0,1.0,1.0,1.0,1.0,1.0,1.0,1.0,1.0,1.0,1.0,1.0,1.0,1.0,1.0,1.0,1.0,1.0,1.0,1.0,1.0,1.0,1.0,1.0,1.0,1.0,1.0,1.0,1.0,1.0,1.0,1.0,1.0,1.0,1.0,1.0,1.0,1.0,1.0,1.0,1.0,1.0,1.0,1.0,1.0,1.0,1.0,1.0,1.0,1.0,1.0,1.0,1.0,1.0,1.0,1.0,1.0,1.0,1.0,1.0,1.0,1.0,1.0,1.0,1.0,1.0,1.0,1.0,1.0,1.0,1.0,1.0,1.0,1.0,1.0,1.0,1.0,1.0,1.0,1.0,1.0,1.0,1.0,1.0,1.0,1.0,1.0,1.0,1.0,1.0,1.0,1.0,1.0,1.0,1.0,1.0,1.0,1.0,1.0,1.0,1.0,1.0,1.0,1.0,1.0,1.0,1.0,1.0,1.0,1.0,1.0,1.0,1.0,1.0,1.0,1.0,1.0,1.0,1.0,1.0,1.0,1.0,1.0,1.0,1.0,1.0,1.0,1.0,1.0,1.0,1.0,1.0,1.0,1.0,1.0,1.0,1.0,1.0,1.0,1.0,1.0,1.0,1.0,1.0,1.0,1.0,1.0,1.0,1.0,1.0,1.0,1.0,1.0,1.0,1.0,1.0,1.0,1.0,1.0,1.0,1.0,1.0,1.0,1.0,1.0,1.0,1.0,1.0,1.0,1.0,1.0,1.0,1.0,1.0,1.0,1.0,1.0,1.0,1.0,1.0,1.0,1.0,1.0,1.0,1.0,1.0,1.0,1.0,1.0,1.0,1.0,1.0,1.0,1.0,1.0,1.0,1.0,1.0,1.0,1.0,1.0,1.0,1.0,1.0,1.0,1.0,1.0,1.0,1.0,1.0,1.0,1.0,1.0,1.0,1.0,1.0,1.0,1.0,1.0,1.0,1.0,1.0,1.0,1.0,1.0,1.0,1.0,1.0,1.0,1.0,1.0,1.0,1.0,1.0,1.0,1.0,1.0,1.0,1.0,1.0,1.0,1.0,1.0,1.0,1.0,1.0,1.0,1.0,1.0,1.0,1.0,1.0,1.0,1.0,1.0,1.0,1.0,1.0,1.0,1.0,1.0,1.0,1.0,1.0,1.0,1.0,1.0,1.0,1.0,1.0,1.0,1.0,1.0,1.0,1.0,1.0,1.0,1.0,1.0,1.0,1.0,1.0,1.0,1.0,1.0,1.0,1.0,1.0,1.0,1.0,1.0,1.0,1.0,1.0,1.0,1.0,1.0,1.0,1.0,1.0,1.0,1.0,1.0,1.0,1.0,1.0,1.0,1.0,1.0,1.0,1.0,1.0,1.0,1.0,1.0,1.0,1.0,1.0,1.0,1.0,1.0,1.0,1.0,1.0,1.0,1.0,1.0,1.0,1.0,1.0,1.0,1.0,1.0,1.0,1.0,1.0,1.0,1.0,1.0,1.0,1.0,1.0,1.0,1.0,1.0,1.0,1.0,1.0,1.0,1.0,1.0,1.0,1.0,1.0,1.0,1.0,1.0,1.0,1.0,1.0,1.0,1.0,1.0,1.0,1.0,1.0,1.0,1.0,1.0,1.0,1.0,1.0,1.0,1.0,1.0,1.0,1.0,1.0,1.0,1.0,1.0,1.0,1.0,1.0,1.0,1.0,1.0,1.0,1.0,1.0,1.0,1.0,1.0,1.0,1.0,1.0,1.0,1.0,1.0,1.0,1.0,1.0,1.0,1.0,1.0,1.0,1.0,1.0,1.0,1.0,1.0,1.0,1.0,1.0,1.0,1.0,1.0,1.0,1.0,1.0,1.0,1.0,1.0,1.0,1.0,1.0,1.0,1.0
