0,1,2,3,4,5,6,7,8,9,10,11,12,13,14,15,16,17,18,19,20,21,22,23,24,25,26,27,28,29,30,31,32,33,34,35,36,37,38,39,40,41,42,43,44,45,46,47,48,49,50,51,52,53,54,55,56,57,58,59,60,61,62,63,64,65,66,67,68,69,70,71,72,73,74,75,76,77,78,79,80,81,82,83,84,85,86,87,88,89,90,91,92,93,94,95,96,97,98,99,100,101,102,103,104,105,106,107,108,109,110,111,112,113,114,115,116,117,118,119,120,121,122,123,124,125,126,127,128,129,130,131,132,133,134,135,136,137,138,139,140,141,142,143,144,145,146,147,148,149,150,151,152,153,154,155,156,157,158,159,160,161,162,163,164,165,166,167,168,169,170,171,172,173,174,175,176,177,178,179,180,181,182,183,184,185,186,187,188,189,190,191,192,193,194,195,196,197,198,199,200,201,202,203,204,205,206,207,208,209,210,211,212,213,214,215,216,217,218,219,220,221,222,223,224,225,226,227,228,229,230,231,232,233,234,235,236,237,238,239,240,241,242,243,244,245,246,247,248,249,250,251,252,253,254,255,256,257,258,259,260,261,262,263,264,265,266,267,268,269,270,271,272,273,274,275,276,277,278,279,280,281,282,283,284,285,286,287,288,289,290,291,292,293,294,295,296,297,298,299,300,301,302,303,304,305,306,307,308,309,310,311,312,313,314,315,316,317,318,319,320,321,322,323,324,325,326,327,328,329,330,331,332,333,334,335,336,337,338,339,340,341,342,343,344,345,346,347,348,349,350,351,352,353,354,355,356,357,358,359,360,361,362,363,364,365,366,367,368,369,370,371,372,373,374,375,376,377,378,379,380,381,382,383,384,385,386,387,388,389,390,391,392,393,394,395,396,397,398,399,400,401,402,403,404,405,406,407,408,409,410,411,412,413,414,415,416,417,418,419,420,421,422,423,424,425,426,427,428,429,430,431,432,433,434,435,436,437,438,439,440,441,442,443,444,445,446,447,448,449,450,451,452,453,454,455,456,457,458,459,460,461,462,463,464,465,466,467,468,469,470,471,472,473,474,475,476,477,478,479,480,481,482,483,484,485,486,487,488,489,490,491,492,493,494,495,496,497,498,499,500,501,502,503,504,505,506,507,508,509,510,511
-2.991328903654505,-3.991328903654505,-7.991328903654505,-10.991328903654503,-12.991328903654507,-11.991328903654507,-11.991328903654507,-2.991328903654505,-2.991328903654505,1.0086710963454948,3.008671096345495,7.008671096345495,8.008671096345495,8.008671096345495,9.008671096345497,12.008671096345493,11.008671096345497,10.008671096345497,5.008671096345495,1.0086710963454948,-1.9913289036545048,-2.991328903654505,-9.991328903654503,-12.991328903654507,-11.991328903654507,-11.991328903654507,-8.991328903654507,-5.991328903654505,-5.991328903654505,-0.9913289036545052,3.008671096345495,5.008671096345495,10.008671096345497,9.008671096345497,10.008671096345497,10.008671096345497,9.008671096345497,9.008671096345497,7.008671096345495,1.0086710963454948,-1.9913289036545048,-4.991328903654505,-7.991328903654505,-11.991328903654507,-10.991328903654503,-9.991328903654503,-11.991328903654507,-5.991328903654505,-2.991328903654505,-0.9913289036545052,2.008671096345495,6.008671096345495,10.008671096345497,9.008671096345497,9.008671096345497,12.008671096345493,11.008671096345497,7.008671096345495,4.008671096345495,0.008671096345494789,-1.9913289036545048,-2.991328903654505,-7.991328903654505,-11.991328903654507,-13.991328903654507,-11.991328903654507,-9.991328903654503,-6.991328903654505,-1.9913289036545048,0.008671096345494789,3.008671096345495,4.008671096345495,8.008671096345495,11.008671096345497,11.008671096345497,11.008671096345497,11.008671096345497,7.008671096345495,4.008671096345495,1.0086710963454948,-2.991328903654505,-4.991328903654505,-9.991328903654503,-11.991328903654507,-10.991328903654503,-10.991328903654503,-6.991328903654505,-5.991328903654505,-1.9913289036545048,0.008671096345494789,2.008671096345495,5.008671096345495,10.008671096345497,10.008671096345497,11.008671096345497,11.008671096345497,10.008671096345497,8.008671096345495,4.008671096345495,-0.9913289036545052,-2.991328903654505,-5.991328903654505,-11.991328903654507,-14.991328903654507,-13.991328903654507,-14.991328903654507,-10.991328903654503,-5.991328903654505,-3.991328903654505,-0.9913289036545052,2.008671096345495,4.008671096345495,7.008671096345495,9.008671096345497,10.008671096345497,8.008671096345495,9.008671096345497,7.008671096345495,5.008671096345495,0.008671096345494789,-0.9913289036545052,-3.991328903654505,-6.991328903654505,-9.991328903654503,-9.991328903654503,-7.991328903654505,-8.991328903654507,-7.991328903654505,-0.9913289036545052,2.008671096345495,1.0086710963454948,6.008671096345495,11.008671096345497,10.008671096345497,10.008671096345497,10.008671096345497,10.008671096345497,10.008671096345497,5.008671096345495,2.008671096345495,0.008671096345494789,-5.991328903654505,-9.991328903654503,-10.991328903654503,-13.991328903654507,-13.991328903654507,-9.991328903654503,-7.991328903654505,-3.991328903654505,3.008671096345495,4.008671096345495,5.008671096345495,8.008671096345495,11.008671096345497,12.008671096345493,13.008671096345493,12.008671096345493,6.008671096345495,5.008671096345495,0.008671096345494789,-4.991328903654505,-5.991328903654505,-7.991328903654505,-9.991328903654503,-11.991328903654507,-13.991328903654507,-7.991328903654505,-5.991328903654505,-2.991328903654505,-1.9913289036545048,4.008671096345495,4.008671096345495,8.008671096345495,10.008671096345497,9.008671096345497,13.008671096345493,8.008671096345495,6.008671096345495,6.008671096345495,1.0086710963454948,-2.991328903654505,-4.991328903654505,-8.991328903654507,-9.991328903654503,-11.991328903654507,-10.991328903654503,-8.991328903654507,-5.991328903654505,-2.991328903654505,-1.9913289036545048,3.008671096345495,7.008671096345495,12.008671096345493,12.008671096345493,11.008671096345497,9.008671096345497,8.008671096345495,6.008671096345495,5.008671096345495,1.0086710963454948,-2.991328903654505,-3.991328903654505,-6.991328903654505,-10.991328903654503,-14.991328903654507,-10.991328903654503,-10.991328903654503,-6.991328903654505,-2.991328903654505,0.008671096345494789,2.008671096345495,5.008671096345495,10.008671096345497,12.008671096345493,10.008671096345497,9.008671096345497,8.008671096345495,6.008671096345495,6.008671096345495,1.0086710963454948,1.0086710963454948,-3.991328903654505,-9.991328903654503,-13.991328903654507,-11.991328903654507,-10.991328903654503,-9.991328903654503,-7.991328903654505,-3.991328903654505,-1.9913289036545048,2.008671096345495,-0.9913289036545052,6.008671096345495,9.008671096345497,8.008671096345495,12.008671096345493,9.008671096345497,1.0086710963454948,0.008671096345494789,0.008671096345494789,3.008671096345495,1.0086710963454948,-2.991328903654505,0.008671096345494789,1.0086710963454948,2.008671096345495,8.008671096345495,4.008671096345495,-6.991328903654505,-7.991328903654505,-3.991328903654505,-9.991328903654503,-8.991328903654507,-2.991328903654505,4.008671096345495,8.008671096345495,12.008671096345493,12.008671096345493,11.008671096345497,7.008671096345495,3.008671096345495,-10.991328903654503,-19.991328903654505,-20.991328903654505,-18.991328903654505,-19.991328903654505,-28.991328903654505,-20.991328903654505,7.008671096345495,20.00867109634549,5.008671096345495,-4.991328903654505,19.00867109634549,50.0086710963455,40.008671096345495,30.008671096345488,6.008671096345495,-15.991328903654507,7.008671096345495,8.008671096345495,-7.991328903654505,-19.991328903654505,-28.991328903654505,-44.991328903654505,-31.991328903654505,-40.991328903654505,-43.991328903654505,-12.991328903654507,5.008671096345495,22.00867109634549,35.00867109634549,17.008671096345495,13.008671096345493,-7.991328903654505,-11.991328903654507,-4.991328903654505,11.008671096345497,58.0086710963455,93.0086710963455,75.0086710963455,27.008671096345488,-17.991328903654505,-10.991328903654503,-2.991328903654505,-20.991328903654505,-33.991328903654505,-71.9913289036545,-77.9913289036545,-66.9913289036545,-53.9913289036545,-6.991328903654505,15.008671096345493,29.008671096345488,34.00867109634549,50.0086710963455,61.0086710963455,59.0086710963455,24.008671096345488,4.008671096345495,-3.991328903654505,-23.991328903654505,-57.9913289036545,-58.9913289036545,-24.991328903654505,-11.991328903654507,-15.991328903654507,21.00867109634549,-0.9913289036545052,-29.991328903654505,2.008671096345495,27.008671096345488,58.0086710963455,53.0086710963455,21.00867109634549,12.008671096345493,17.008671096345495,16.008671096345495,0.008671096345494789,-26.991328903654505,-47.9913289036545,-55.9913289036545,-22.991328903654505,33.00867109634549,87.0086710963455,95.0086710963455,32.00867109634549,-33.991328903654505,-49.9913289036545,-36.991328903654505,-12.991328903654507,7.008671096345495,-3.991328903654505,3.008671096345495,41.008671096345495,8.008671096345495,-35.991328903654505,-31.991328903654505,-46.9913289036545,1.0086710963454948,69.0086710963455,111.0086710963455,55.0086710963455,3.008671096345495,-47.9913289036545,-98.9913289036545,-103.9913289036545,-76.9913289036545,-53.9913289036545,-73.9913289036545,-16.991328903654505,58.0086710963455,83.0086710963455,75.0086710963455,115.0086710963455,59.0086710963455,-27.991328903654505,-41.991328903654505,-19.991328903654505,-25.991328903654505,-7.991328903654505,7.008671096345495,-4.991328903654505,-12.991328903654507,-9.991328903654503,-26.991328903654505,-34.991328903654505,-30.991328903654505,-40.991328903654505,-34.991328903654505,-27.991328903654505,-2.991328903654505,14.008671096345493,9.008671096345497,54.0086710963455,59.0086710963455,3.008671096345495,-19.991328903654505,0.008671096345494789,-13.991328903654507,-6.991328903654505,77.0086710963455,123.0086710963455,103.0086710963455,11.008671096345497,-63.9913289036545,-107.9913289036545,-111.9913289036545,-87.9913289036545,-55.9913289036545,-27.991328903654505,-11.991328903654507,25.008671096345488,32.00867109634549,93.0086710963455,94.0086710963455,10.008671096345497,-8.991328903654507,-16.991328903654505,-23.991328903654505,1.0086710963454948,32.00867109634549,14.008671096345493,16.008671096345495,14.008671096345493,-10.991328903654503,2.008671096345495,-7.991328903654505,4.008671096345495,-4.991328903654505,-42.991328903654505,-14.991328903654507,-14.991328903654507,-37.991328903654505,-26.991328903654505,36.008671096345495,12.008671096345493,-29.991328903654505,-12.991328903654507,18.008671096345495,67.0086710963455,86.0086710963455,29.008671096345488,-60.9913289036545,-109.9913289036545,-73.9913289036545,-11.991328903654507,14.008671096345493,81.0086710963455,99.0086710963455,26.008671096345488,4.008671096345495,-14.991328903654507,20.00867109634549,54.0086710963455,-13.991328903654507,-56.9913289036545,-47.9913289036545,-12.991328903654507,-16.991328903654505,-44.991328903654505,-40.991328903654505,-24.991328903654505,6.008671096345495,120.0086710963455,155.0086710963455,54.0086710963455,-33.991328903654505,-71.9913289036545,-91.9913289036545,-79.9913289036545,-58.9913289036545,-66.9913289036545,3.008671096345495,52.0086710963455,63.0086710963455,51.0086710963455,118.0086710963455,128.0086710963455,37.008671096345495,-63.9913289036545,-71.9913289036545,-16.991328903654505,-8.991328903654507,-89.9913289036545,-34.991328903654505,45.008671096345495,65.0086710963455,48.0086710963455,49.0086710963455,-10.991328903654503,-84.9913289036545,-86.9913289036545,-68.9913289036545,-20.991328903654505,-7.991328903654505,12.008671096345493,29.008671096345488,80.0086710963455,77.0086710963455,9.008671096345497,-17.991328903654505,-9.991328903654503,5.008671096345495,-1.9913289036545048,-0.9913289036545052,-25.991328903654505,-30.991328903654505,-50.9913289036545,-46.9913289036545,-24.991328903654505,47.0086710963455,48.0086710963455
0.0,0.0,0.0,0.0,0.0,0.0,0.0,0.0,0.0,0.0,0.0,0.0,0.0,0.0,0.0,0.0,0.0,0.0,0.0,0.0,0.0,0.0,0.0,0.0,0.0,0.0,0.0,0.0,0.0,0.0,0.0,0.0,0.0,0.0,0.0,0.0,0.0,0.0,0.0,0.0,0.0,0.0,0.0,0.0,0.0,0.0,0.0,0.0,0.0,0.0,0.0,0.0,0.0,0.0,0.0,0.0,0.0,0.0,0.0,0.0,0.0,0.0,0.0,0.0,0.0,0.0,0.0,0.0,0.0,0.0,0.0,0.0,0.0,0.0,0.0,0.0,0.0,0.0,0.0,0.0,0.0,0.0,0.0,0.0,0.0,0.0,0.0,0.0,0.0,0.0,0.0,0.0,0.0,0.0,0.0,0.0,0.0,0.0,0.0,0.0,0.0,0.0,0.0,0.0,0.0,0.0,0.0,0.0,0.0,0.0,0.0,0.0,0.0,0.0,0.0,0.0,0.0,0.0,0.0,0.0,0.0,0.0,0.0,0.0,0.0,0.0,0.0,0.0,0.0,0.0,0.0,0.0,0.0,0.0,0.0,0.0,0.0,0.0,0.0,0.0,0.0,0.0,0.0,0.0,0.0,0.0,0.0,0.0,0.0,0.0,0.0,0.0,0.0,0.0,0.0,0.0,0.0,0.0,0.0,0.0,0.0,0.0,0.0,0.0,0.0,0.0,0.0,0.0,0.0,0.0,0.0,0.0,0.0,0.0,0.0,0.0,0.0,0.0,0.0,0.0,0.0,0.0,0.0,0.0,0.0,0.0,0.0,0.0,0.0,0.0,0.0,0.0,0.0,0.0,0.0,0.0,0.0,0.0,0.0,0.0,0.0,0.0,0.0,0.0,0.0,0.0,0.0,0.0,0.0,0.0,0.0,0.0,0.0,0.0,0.0,0.0,0.0,0.0,0.0,0.0,0.0,0.0,0.0,0.0,0.0,0.0,0.0,0.0,0.0,0.0,0.0,0.0,0.0,0.0,0.0,0.0,0.0,0.0,0.0,0.0,0.0,0.0,0.0,0.0,0.0,0.0,0.0,0.0,0.0,0.0,0.0,0.0,0.0,0.0,0.0,0.0,0.0,0.0,0.0,0.0,0.0,0.0,0.0,1.0,1.0,1.0,1.0,1.0,1.0,1.0,1.0,1.0,1.0,1.0,1.0,1.0,1.0,1.0,1.0,1.0,1.0,1.0,1.0,1.0,1.0,1.0,1.0,1.0,1.0,1.0,1.0,1.0,1.0,1.0,1.0,1.0,1.0,1.0,1.0,1.0,1.0,1.0,1.0,1.0,1.0,1.0,1.0,1.0,1.0,1.0,1.0,1.0,1.0,1.0,1.0,1.0,1.0,1.0,1.0,1.0,1.0,1.0,1.0,1.0,1.0,1.0,1.0,1.0,1.0,1.0,1.0,1.0,1.0,1.0,1.0,1.0,1.0,1.0,1.0,1.0,1.0,1.0,1.0,1.0,1.0,1.0,1.0,1.0,1.0,1.0,1.0,1.0,1.0,1.0,1.0,1.0,1.0,1.0,1.0,1.0,1.0,1.0,1.0,1.0,1.0,1.0,1.0,1.0,1.0,1.0,1.0,1.0,1.0,1.0,1.0,1.0,1.0,1.0,1.0,1.0,1.0,1.0,1.0,1.0,1.0,1.0,1.0,1.0,1.0,1.0,1.0,1.0,1.0,1.0,1.0,1.0,1.0,1.0,1.0,1.0,1.0,1.0,1.0,1.0,1.0,1.0,1.0,1.0,1.0,1.0,1.0,1.0,1.0,1.0,1.0,1.0,1.0,1.0,1.0,1.0,1.0,1.0,1.0,1.0,1.0,1.0,1.0,1.0,1.0,1.0,1.0,1.0,1.0,1.0,1.0,1.0,1.0,1.0,1.0,1.0,1.0,1.0,1.0,1.0,1.0,1.0,1.0,1.0,1.0,1.0,1.0,1.0,1.0,1.0,1.0,1.0,1.0,1.0,1.0,1.0,1.0,1.0,1.0,1.0,1.0,1.0,1.0,1.0,1.0,1.0,1.0,1.0,1.0,1.0,1.0,1.0,1.0,1.0,1.0,1.0,1.0,1.0,1.0,1.0,1.0,1.0,1.0,1.0,1.0,1.0,1.0,1.0,1.0,1.0,1.0,1.0,1.0,1.0,1.0,1.0,1.0,1.0,1.0,1.0,1.0,1.0,1.0,1.0,1.0,1.0,1.0,1.0
