Time,EMG
0.0,-2.9932225913620982
0.000996710854181202,-2.9932225913620982
0.001993421708362404,-6.993222591362098
0.002990132562543606,-4.993222591362098
0.003986843416724808,-5.993222591362098
0.00498355427090601,-3.9932225913620982
0.005980265125087212,-4.993222591362098
0.006976975979268414,-3.9932225913620982
0.007973686833449616,2.0067774086379018
0.008970397687630818,0.006777408637901772
0.00996710854181202,4.006777408637902
0.01096381939599322,3.0067774086379018
0.011960530250174423,5.006777408637902
0.012957241104355626,5.006777408637902
0.013953951958536827,7.006777408637902
0.014950662812718028,6.006777408637902
0.01594737366689923,2.0067774086379018
0.016944084521080434,3.0067774086379018
0.017940795375261637,2.0067774086379018
0.018937506229442836,-2.9932225913620982
0.01993421708362404,0.006777408637901772
0.02093092793780524,-4.993222591362098
0.02192763879198644,-6.993222591362098
0.022924349646167644,-3.9932225913620982
0.023921060500348847,-7.993222591362098
0.02491777135453005,-4.993222591362098
0.025914482208711252,-2.9932225913620982
0.02691119306289245,-2.9932225913620982
0.027907903917073654,0.006777408637901772
0.028904614771254857,0.006777408637901772
0.029901325625436057,1.0067774086379018
0.03089803647961726,4.006777408637902
0.03189474733379846,9.006777408637902
0.032891458187979665,5.006777408637902
0.03388816904216087,7.006777408637902
0.03488487989634207,5.006777408637902
0.03588159075052327,1.0067774086379018
0.03687830160470447,2.0067774086379018
0.03787501245888567,0.006777408637901772
0.038871723313066875,1.0067774086379018
0.03986843416724808,-2.9932225913620982
0.04086514502142928,-1.9932225913620982
0.04186185587561048,-2.9932225913620982
0.042858566729791686,-3.9932225913620982
0.04385527758397288,-7.993222591362098
0.044851988438154085,-1.9932225913620982
0.04584869929233529,-3.9932225913620982
0.04684541014651649,-2.9932225913620982
0.04784212100069769,-2.9932225913620982
0.048838831854878896,1.0067774086379018
0.0498355427090601,4.006777408637902
0.0508322535632413,6.006777408637902
0.051828964417422504,6.006777408637902
0.0528256752716037,5.006777408637902
0.0538223861257849,4.006777408637902
0.054819096979966106,5.006777408637902
0.05581580783414731,2.0067774086379018
0.05681251868832851,1.0067774086379018
0.057809229542509714,1.0067774086379018
0.05880594039669092,-2.9932225913620982
0.05980265125087211,-3.9932225913620982
0.060799362105053316,-4.993222591362098
0.06179607295923452,-4.993222591362098
0.06279278381341573,-5.993222591362098
0.06378949466759692,-2.9932225913620982
0.06478620552177812,-2.9932225913620982
0.06578291637595933,-0.9932225913620982
0.06677962723014053,0.006777408637901772
0.06777633808432174,1.0067774086379018
0.06877304893850293,0.006777408637901772
0.06976975979268414,2.0067774086379018
0.07076647064686534,2.0067774086379018
0.07176318150104655,1.0067774086379018
0.07275989235522774,7.006777408637902
0.07375660320940894,5.006777408637902
0.07475331406359015,5.006777408637902
0.07575002491777134,3.0067774086379018
0.07674673577195255,1.0067774086379018
0.07774344662613375,-1.9932225913620982
0.07874015748031496,-2.9932225913620982
0.07973686833449616,-3.9932225913620982
0.08073357918867735,-2.9932225913620982
0.08173029004285856,-1.9932225913620982
0.08272700089703976,-2.9932225913620982
0.08372371175122097,-4.993222591362098
0.08472042260540216,-5.993222591362098
0.08571713345958337,-4.993222591362098
0.08671384431376457,-1.9932225913620982
0.08771055516794576,3.0067774086379018
0.08870726602212697,3.0067774086379018
0.08970397687630817,3.0067774086379018
0.09070068773048938,4.006777408637902
0.09169739858467058,4.006777408637902
0.09269410943885178,6.006777408637902
0.09369082029303298,5.006777408637902
0.09468753114721419,4.006777408637902
0.09568424200139539,3.0067774086379018
0.09668095285557658,5.006777408637902
0.09767766370975779,-0.9932225913620982
0.09867437456393899,-2.9932225913620982
0.0996710854181202,-2.9932225913620982
0.1006677962723014,-2.9932225913620982
0.1016645071264826,-5.993222591362098
0.1026612179806638,-4.993222591362098
0.10365792883484501,-6.993222591362098
0.1046546396890262,-3.9932225913620982
0.1056513505432074,-4.993222591362098
0.10664806139738861,-2.9932225913620982
0.1076447722515698,0.006777408637901772
0.10864148310575102,3.0067774086379018
0.10963819395993221,1.0067774086379018
0.11063490481411342,3.0067774086379018
0.11163161566829462,4.006777408637902
0.11262832652247581,4.006777408637902
0.11362503737665702,4.006777408637902
0.11462174823083822,3.0067774086379018
0.11561845908501943,4.006777408637902
0.11661516993920062,3.0067774086379018
0.11761188079338183,0.006777408637901772
0.11860859164756303,0.006777408637901772
0.11960530250174423,-2.9932225913620982
0.12060201335592544,-4.993222591362098
0.12159872421010663,-5.993222591362098
0.12259543506428784,-3.9932225913620982
0.12359214591846904,-6.993222591362098
0.12458885677265025,-3.9932225913620982
0.12558556762683146,-1.9932225913620982
0.12658227848101264,-1.9932225913620982
0.12757898933519385,1.0067774086379018
0.12857570018937506,3.0067774086379018
0.12957241104355624,4.006777408637902
0.13056912189773745,3.0067774086379018
0.13156583275191866,5.006777408637902
0.13256254360609987,5.006777408637902
0.13355925446028105,4.006777408637902
0.13455596531446226,6.006777408637902
0.13555267616864347,5.006777408637902
0.13654938702282465,1.0067774086379018
0.13754609787700586,1.0067774086379018
0.13854280873118707,-0.9932225913620982
0.13953951958536828,-4.993222591362098
0.14053623043954946,-2.9932225913620982
0.14153294129373067,-3.9932225913620982
0.14252965214791188,-2.9932225913620982
0.1435263630020931,-6.993222591362098
0.14452307385627428,-7.993222591362098
0.14551978471045549,-3.9932225913620982
0.1465164955646367,-0.9932225913620982
0.14751320641881788,0.006777408637901772
0.1485099172729991,-0.9932225913620982
0.1495066281271803,3.0067774086379018
0.1505033389813615,4.006777408637902
0.1515000498355427,6.006777408637902
0.1524967606897239,7.006777408637902
0.1534934715439051,3.0067774086379018
0.1544901823980863,5.006777408637902
0.1554868932522675,4.006777408637902
0.1564836041064487,2.0067774086379018
0.15748031496062992,1.0067774086379018
0.1584770258148111,-2.9932225913620982
0.1594737366689923,-0.9932225913620982
0.16047044752317352,-3.9932225913620982
0.1614671583773547,-6.993222591362098
0.1624638692315359,-5.993222591362098
0.16346058008571712,-4.993222591362098
0.16445729093989833,-5.993222591362098
0.1654540017940795,-2.9932225913620982
0.16645071264826072,-1.9932225913620982
0.16744742350244193,2.0067774086379018
0.16844413435662312,3.0067774086379018
0.16944084521080433,5.006777408637902
0.17043755606498553,4.006777408637902
0.17143426691916674,5.006777408637902
0.17243097777334793,8.006777408637902
0.17342768862752914,4.006777408637902
0.17442439948171035,5.006777408637902
0.17542111033589153,1.0067774086379018
0.17641782119007274,3.0067774086379018
0.17741453204425395,3.0067774086379018
0.17841124289843516,-2.9932225913620982
0.17940795375261634,-2.9932225913620982
0.18040466460679755,-2.9932225913620982
0.18140137546097876,-4.993222591362098
0.18239808631515997,-3.9932225913620982
0.18339479716934115,-5.993222591362098
0.18439150802352236,-5.993222591362098
0.18538821887770357,-7.993222591362098
0.18638492973188475,-2.9932225913620982
0.18738164058606596,-0.9932225913620982
0.18837835144024717,1.0067774086379018
0.18937506229442838,4.006777408637902
0.19037177314860956,4.006777408637902
0.19136848400279077,5.006777408637902
0.19236519485697198,7.006777408637902
0.19336190571115316,6.006777408637902
0.19435861656533437,4.006777408637902
0.19535532741951558,3.0067774086379018
0.1963520382736968,4.006777408637902
0.19734874912787798,1.0067774086379018
0.19834545998205919,-2.9932225913620982
0.1993421708362404,-4.993222591362098
0.20033888169042158,-4.993222591362098
0.2013355925446028,-3.9932225913620982
0.202332303398784,-5.993222591362098
0.2033290142529652,-6.993222591362098
0.2043257251071464,-4.993222591362098
0.2053224359613276,-2.9932225913620982
0.2063191468155088,0.006777408637901772
0.20731585766969002,3.0067774086379018
0.2083125685238712,3.0067774086379018
0.2093092793780524,2.0067774086379018
0.21030599023223362,4.006777408637902
0.2113027010864148,4.006777408637902
0.212299411940596,5.006777408637902
0.21329612279477722,4.006777408637902
0.21429283364895843,5.006777408637902
0.2152895445031396,2.0067774086379018
0.21628625535732082,2.0067774086379018
0.21728296621150203,1.0067774086379018
0.21827967706568321,-2.9932225913620982
0.21927638791986442,-1.9932225913620982
0.22027309877404563,-3.9932225913620982
0.22126980962822684,-2.9932225913620982
0.22226652048240803,-7.993222591362098
0.22326323133658924,-9.993222591362098
0.22425994219077044,-6.993222591362098
0.22525665304495163,-1.9932225913620982
0.22625336389913284,-2.9932225913620982
0.22725007475331405,-0.9932225913620982
0.22824678560749526,0.006777408637901772
0.22924349646167644,1.0067774086379018
0.23024020731585765,5.006777408637902
0.23123691817003886,4.006777408637902
0.23223362902422004,5.006777408637902
0.23323033987840125,2.0067774086379018
0.23422705073258246,5.006777408637902
0.23522376158676367,3.0067774086379018
0.23622047244094485,3.0067774086379018
0.23721718329512606,-0.9932225913620982
0.23821389414930727,-1.9932225913620982
0.23921060500348845,-2.9932225913620982
0.24020731585766966,-2.9932225913620982
0.24120402671185087,-4.993222591362098
0.24220073756603208,-7.993222591362098
0.24319744842021326,-6.993222591362098
0.24419415927439447,-3.9932225913620982
0.24519087012857568,-2.9932225913620982
0.2461875809827569,-2.9932225913620982
0.24718429183693807,2.0067774086379018
0.24818100269111928,1.0067774086379018
0.2491777135453005,1.0067774086379018
0.2501744243994817,3.0067774086379018
0.2511711352536629,8.006777408637902
0.2521678461078441,8.006777408637902
0.2531645569620253,5.006777408637902
0.2541612678162065,4.006777408637902
0.2551579786703877,3.0067774086379018
0.2561546895245689,1.0067774086379018
0.2571514003787501,0.006777408637901772
0.2581481112329313,0.006777408637901772
0.2591448220871125,-0.9932225913620982
0.2601415329412937,-3.9932225913620982
0.2611382437954749,-4.993222591362098
0.26213495464965614,-4.993222591362098
0.2631316655038373,-3.9932225913620982
0.2641283763580185,-3.9932225913620982
0.26512508721219974,-7.993222591362098
0.2661217980663809,1.0067774086379018
0.2671185089205621,0.006777408637901772
0.26811521977474334,3.0067774086379018
0.2691119306289245,2.0067774086379018
0.2701086414831057,4.006777408637902
0.27110535233728694,3.0067774086379018
0.2721020631914681,6.006777408637902
0.2730987740456493,5.006777408637902
0.27409548489983054,5.006777408637902
0.2750921957540117,3.0067774086379018
0.27608890660819296,1.0067774086379018
0.27708561746237415,1.0067774086379018
0.2780823283165553,-1.9932225913620982
0.27907903917073656,-2.9932225913620982
0.28007575002491775,-3.9932225913620982
0.28107246087909893,-5.993222591362098
0.28206917173328017,-4.993222591362098
0.28306588258746135,-7.993222591362098
0.28406259344164253,-3.9932225913620982
0.28505930429582377,-2.9932225913620982
0.28605601515000495,-2.9932225913620982
0.2870527260041862,1.0067774086379018
0.28804943685836737,3.0067774086379018
0.28904614771254855,1.0067774086379018
0.2900428585667298,1.0067774086379018
0.29103956942091097,6.006777408637902
0.29203628027509215,4.006777408637902
0.2930329911292734,5.006777408637902
0.29402970198345457,6.006777408637902
0.29502641283763575,7.006777408637902
0.296023123691817,4.006777408637902
0.2970198345459982,0.006777408637901772
0.29801654540017936,-3.9932225913620982
0.2990132562543606,-1.9932225913620982
0.3000099671085418,-1.9932225913620982
0.301006677962723,-3.9932225913620982
0.3020033888169042,-3.9932225913620982
0.3030000996710854,-7.993222591362098
0.3039968105252666,-3.9932225913620982
0.3049935213794478,-3.9932225913620982
0.305990232233629,-1.9932225913620982
0.3069869430878102,1.0067774086379018
0.3079836539419914,-2.9932225913620982
0.3089803647961726,3.0067774086379018
0.3099770756503538,2.0067774086379018
0.310973786504535,4.006777408637902
0.3119704973587162,7.006777408637902
0.3129672082128974,6.006777408637902
0.3139639190670786,6.006777408637902
0.31496062992125984,5.006777408637902
0.315957340775441,2.0067774086379018
0.3169540516296222,2.0067774086379018
0.31795076248380344,-0.9932225913620982
0.3189474733379846,-1.9932225913620982
0.3199441841921658,-4.993222591362098
0.32094089504634704,-5.993222591362098
0.3219376059005282,-4.993222591362098
0.3229343167547094,-9.993222591362098
0.32393102760889064,-1.9932225913620982
0.3249277384630718,-2.9932225913620982
0.32592444931725306,-2.9932225913620982
0.32692116017143424,2.0067774086379018
0.3279178710256154,2.0067774086379018
0.32891458187979666,0.006777408637901772
0.32991129273397785,2.0067774086379018
0.330908003588159,4.006777408637902
0.33190471444234027,6.006777408637902
0.33290142529652145,3.0067774086379018
0.33389813615070263,5.006777408637902
0.33489484700488387,5.006777408637902
0.33589155785906505,3.0067774086379018
0.33688826871324623,1.0067774086379018
0.33788497956742747,-0.9932225913620982
0.33888169042160865,0.006777408637901772
0.3398784012757899,-2.9932225913620982
0.34087511212997107,-5.993222591362098
0.34187182298415225,-6.993222591362098
0.3428685338383335,-7.993222591362098
0.34386524469251467,-2.9932225913620982
0.34486195554669585,-4.993222591362098
0.3458586664008771,-0.9932225913620982
0.3468553772550583,1.0067774086379018
0.34785208810923945,0.006777408637901772
0.3488487989634207,2.0067774086379018
0.3498455098176019,3.0067774086379018
0.35084222067178306,4.006777408637902
0.3518389315259643,5.006777408637902
0.3528356423801455,4.006777408637902
0.3538323532343267,4.006777408637902
0.3548290640885079,4.006777408637902
0.3558257749426891,5.006777408637902
0.3568224857968703,1.0067774086379018
0.3578191966510515,-3.9932225913620982
0.3588159075052327,-6.993222591362098
0.3598126183594139,-4.993222591362098
0.3608093292135951,-4.993222591362098
0.3618060400677763,-1.9932225913620982
0.3628027509219575,-1.9932225913620982
0.3637994617761387,-1.9932225913620982
0.36479617263031994,-3.9932225913620982
0.3657928834845011,-1.9932225913620982
0.3667895943386823,0.006777408637901772
0.36778630519286354,0.006777408637901772
0.3687830160470447,3.0067774086379018
0.3697797269012259,3.0067774086379018
0.37077643775540714,5.006777408637902
0.3717731486095883,6.006777408637902
0.3727698594637695,6.006777408637902
0.37376657031795074,6.006777408637902
0.3747632811721319,4.006777408637902
0.3757599920263131,2.0067774086379018
0.37675670288049434,2.0067774086379018
0.3777534137346755,-1.9932225913620982
0.37875012458885676,-2.9932225913620982
0.37974683544303794,-4.993222591362098
0.3807435462972191,-10.993222591362098
0.38174025715140036,-4.993222591362098
0.38273696800558155,-7.993222591362098
0.38373367885976273,-5.993222591362098
0.38473038971394397,-3.9932225913620982
0.38572710056812515,0.006777408637901772
0.38672381142230633,-0.9932225913620982
0.38772052227648757,2.0067774086379018
0.38871723313066875,3.0067774086379018
0.38971394398485,5.006777408637902
0.39071065483903117,6.006777408637902
0.39170736569321235,6.006777408637902
0.3927040765473936,8.006777408637902
0.39370078740157477,4.006777408637902
0.39469749825575595,4.006777408637902
0.3956942091099372,2.0067774086379018
0.39669091996411837,0.006777408637901772
0.39768763081829955,-0.9932225913620982
0.3986843416724808,-2.9932225913620982
0.399681052526662,-2.9932225913620982
0.40067776338084315,-4.993222591362098
0.4016744742350244,-3.9932225913620982
0.4026711850892056,-6.993222591362098
0.4036678959433868,-4.993222591362098
0.404664606797568,-1.9932225913620982
0.4056613176517492,-1.9932225913620982
0.4066580285059304,4.006777408637902
0.4076547393601116,1.0067774086379018
0.4086514502142928,2.0067774086379018
0.409648161068474,1.0067774086379018
0.4106448719226552,4.006777408637902
0.4116415827768364,5.006777408637902
0.4126382936310176,6.006777408637902
0.4136350044851988,3.0067774086379018
0.41463171533938004,2.0067774086379018
0.4156284261935612,2.0067774086379018
0.4166251370477424,2.0067774086379018
0.41762184790192364,-1.9932225913620982
0.4186185587561048,-1.9932225913620982
0.419615269610286,-3.9932225913620982
0.42061198046446724,-5.993222591362098
0.4216086913186484,-4.993222591362098
0.4226054021728296,-3.9932225913620982
0.42360211302701084,-5.993222591362098
0.424598823881192,-0.9932225913620982
0.4255955347353732,1.0067774086379018
0.42659224558955444,2.0067774086379018
0.4275889564437356,3.0067774086379018
0.42858566729791686,1.0067774086379018
0.42958237815209804,3.0067774086379018
0.4305790890062792,6.006777408637902
0.43157579986046046,5.006777408637902
0.43257251071464164,4.006777408637902
0.4335692215688228,2.0067774086379018
0.43456593242300406,4.006777408637902
0.43556264327718525,2.0067774086379018
0.43655935413136643,1.0067774086379018
0.43755606498554767,-1.9932225913620982
0.43855277583972885,-3.9932225913620982
0.43954948669391003,-3.9932225913620982
0.44054619754809127,-5.993222591362098
0.44154290840227245,-6.993222591362098
0.4425396192564537,-4.993222591362098
0.44353633011063487,-3.9932225913620982
0.44453304096481605,-3.9932225913620982
0.4455297518189973,-1.9932225913620982
0.44652646267317847,0.006777408637901772
0.44752317352735965,-0.9932225913620982
0.4485198843815409,4.006777408637902
0.44951659523572207,3.0067774086379018
0.45051330608990325,6.006777408637902
0.4515100169440845,5.006777408637902
0.4525067277982657,6.006777408637902
0.4535034386524469,2.0067774086379018
0.4545001495066281,2.0067774086379018
0.4554968603608093,2.0067774086379018
0.4564935712149905,4.006777408637902
0.4574902820691717,-1.9932225913620982
0.4584869929233529,-0.9932225913620982
0.4594837037775341,-1.9932225913620982
0.4604804146317153,-6.993222591362098
0.4614771254858965,-6.993222591362098
0.4624738363400777,-5.993222591362098
0.4634705471942589,-2.9932225913620982
0.4644672580484401,-2.9932225913620982
0.4654639689026213,-1.9932225913620982
0.4664606797568025,-0.9932225913620982
0.46745739061098374,-1.9932225913620982
0.4684541014651649,3.0067774086379018
0.4694508123193461,3.0067774086379018
0.47044752317352734,2.0067774086379018
0.4714442340277085,4.006777408637902
0.4724409448818897,7.006777408637902
0.47343765573607094,5.006777408637902
0.4744343665902521,6.006777408637902
0.4754310774444333,4.006777408637902
0.47642778829861454,0.006777408637901772
0.4774244991527957,0.006777408637901772
0.4784212100069769,-3.9932225913620982
0.47941792086115814,-2.9932225913620982
0.4804146317153393,-4.993222591362098
0.48141134256952056,-5.993222591362098
0.48240805342370174,-6.993222591362098
0.4834047642778829,-3.9932225913620982
0.48440147513206416,-5.993222591362098
0.48539818598624535,-0.9932225913620982
0.4863948968404265,2.0067774086379018
0.48739160769460776,3.0067774086379018
0.48838831854878895,2.0067774086379018
0.48938502940297013,3.0067774086379018
0.49038174025715137,6.006777408637902
0.49137845111133255,4.006777408637902
0.4923751619655138,7.006777408637902
0.49337187281969497,6.006777408637902
0.49436858367387615,2.0067774086379018
0.4953652945280574,1.0067774086379018
0.49636200538223857,-2.9932225913620982
0.49735871623641975,-2.9932225913620982
0.498355427090601,-2.9932225913620982
0.49935213794478217,-3.9932225913620982
0.5003488487989634,-3.9932225913620982
0.5013455596531445,-4.993222591362098
0.5023422705073258,-4.993222591362098
0.503338981361507,-3.9932225913620982
0.5043356922156882,-3.9932225913620982
0.5053324030698694,-2.9932225913620982
0.5063291139240506,0.006777408637901772
0.5073258247782317,1.0067774086379018
0.508322535632413,4.006777408637902
0.5093192464865942,2.0067774086379018
0.5103159573407754,4.006777408637902
0.5113126681949566,8.006777408637902
0.5123093790491378,7.006777408637902
0.513306089903319,4.006777408637902
0.5143028007575002,2.0067774086379018
0.5152995116116814,0.006777408637901772
0.5162962224658626,3.0067774086379018
0.5172929333200438,-0.9932225913620982
0.518289644174225,-1.9932225913620982
0.5192863550284063,-4.993222591362098
0.5202830658825874,-4.993222591362098
0.5212797767367686,-4.993222591362098
0.5222764875909498,-4.993222591362098
0.523273198445131,-3.9932225913620982
0.5242699092993123,-3.9932225913620982
0.5252666201534935,2.0067774086379018
0.5262633310076746,3.0067774086379018
0.5272600418618558,0.006777408637901772
0.528256752716037,1.0067774086379018
0.5292534635702182,3.0067774086379018
0.5302501744243995,6.006777408637902
0.5312468852785807,6.006777408637902
0.5322435961327618,2.0067774086379018
0.533240306986943,6.006777408637902
0.5342370178411242,4.006777408637902
0.5352337286953054,0.006777408637901772
0.5362304395494867,1.0067774086379018
0.5372271504036679,-0.9932225913620982
0.538223861257849,-3.9932225913620982
0.5392205721120302,-6.993222591362098
0.5402172829662114,-5.993222591362098
0.5412139938203927,-3.9932225913620982
0.5422107046745739,-7.993222591362098
0.5432074155287551,-3.9932225913620982
0.5442041263829362,-1.9932225913620982
0.5452008372371174,-2.9932225913620982
0.5461975480912986,2.0067774086379018
0.5471942589454799,1.0067774086379018
0.5481909697996611,6.006777408637902
0.5491876806538423,3.0067774086379018
0.5501843915080235,6.006777408637902
0.5511811023622046,5.006777408637902
0.5521778132163859,4.006777408637902
0.5531745240705671,5.006777408637902
0.5541712349247483,5.006777408637902
0.5551679457789295,2.0067774086379018
0.5561646566331107,-0.9932225913620982
0.5571613674872918,-1.9932225913620982
0.5581580783414731,-2.9932225913620982
0.5591547891956543,-2.9932225913620982
0.5601515000498355,-3.9932225913620982
0.5611482109040167,-2.9932225913620982
0.5621449217581979,-3.9932225913620982
0.5631416326123792,-3.9932225913620982
0.5641383434665603,-5.993222591362098
0.5651350543207415,-1.9932225913620982
0.5661317651749227,-0.9932225913620982
0.5671284760291039,-0.9932225913620982
0.5681251868832851,3.0067774086379018
0.5691218977374664,4.006777408637902
0.5701186085916475,6.006777408637902
0.5711153194458287,8.006777408637902
0.5721120303000099,4.006777408637902
0.5731087411541911,6.006777408637902
0.5741054520083724,4.006777408637902
0.5751021628625536,2.0067774086379018
0.5760988737167347,2.0067774086379018
0.5770955845709159,-2.9932225913620982
0.5780922954250971,-1.9932225913620982
0.5790890062792783,-2.9932225913620982
0.5800857171334596,-6.993222591362098
0.5810824279876408,-7.993222591362098
0.5820791388418219,-6.993222591362098
0.5830758496960031,-2.9932225913620982
0.5840725605501843,-2.9932225913620982
0.5850692714043655,-3.9932225913620982
0.5860659822585468,0.006777408637901772
0.587062693112728,3.0067774086379018
0.5880594039669091,4.006777408637902
0.5890561148210903,4.006777408637902
0.5900528256752715,3.0067774086379018
0.5910495365294528,4.006777408637902
0.592046247383634,5.006777408637902
0.5930429582378152,4.006777408637902
0.5940396690919963,2.0067774086379018
0.5950363799461775,1.0067774086379018
0.5960330908003587,1.0067774086379018
0.59702980165454,-1.9932225913620982
0.5980265125087212,-4.993222591362098
0.5990232233629024,-0.9932225913620982
0.6000199342170836,-2.9932225913620982
0.6010166450712647,-3.9932225913620982
0.602013355925446,-6.993222591362098
0.6030100667796272,-4.993222591362098
0.6040067776338084,-4.993222591362098
0.6050034884879896,-1.9932225913620982
0.6060001993421708,-2.9932225913620982
0.6069969101963519,1.0067774086379018
0.6079936210505332,4.006777408637902
0.6089903319047144,3.0067774086379018
0.6099870427588956,5.006777408637902
0.6109837536130768,6.006777408637902
0.611980464467258,5.006777408637902
0.6129771753214392,4.006777408637902
0.6139738861756204,3.0067774086379018
0.6149705970298016,0.006777408637901772
0.6159673078839828,3.0067774086379018
0.616964018738164,-0.9932225913620982
0.6179607295923452,-4.993222591362098
0.6189574404465265,-3.9932225913620982
0.6199541513007076,-3.9932225913620982
0.6209508621548888,-3.9932225913620982
0.62194757300907,-5.993222591362098
0.6229442838632512,-3.9932225913620982
0.6239409947174324,-4.993222591362098
0.6249377055716137,0.006777408637901772
0.6259344164257948,1.0067774086379018
0.626931127279976,1.0067774086379018
0.6279278381341572,2.0067774086379018
0.6289245489883384,2.0067774086379018
0.6299212598425197,6.006777408637902
0.6309179706967009,7.006777408637902
0.631914681550882,4.006777408637902
0.6329113924050632,3.0067774086379018
0.6339081032592444,4.006777408637902
0.6349048141134256,1.0067774086379018
0.6359015249676069,1.0067774086379018
0.6368982358217881,-2.9932225913620982
0.6378949466759692,-2.9932225913620982
0.6388916575301504,-1.9932225913620982
0.6398883683843316,-6.993222591362098
0.6408850792385129,-7.993222591362098
0.6418817900926941,-4.993222591362098
0.6428785009468753,-2.9932225913620982
0.6438752118010564,-2.9932225913620982
0.6448719226552376,-1.9932225913620982
0.6458686335094188,-1.9932225913620982
0.6468653443636001,3.0067774086379018
0.6478620552177813,3.0067774086379018
0.6488587660719625,4.006777408637902
0.6498554769261436,5.006777408637902
0.6508521877803248,7.006777408637902
0.6518488986345061,3.0067774086379018
0.6528456094886873,4.006777408637902
0.6538423203428685,4.006777408637902
0.6548390311970497,2.0067774086379018
0.6558357420512309,1.0067774086379018
0.656832452905412,0.006777408637901772
0.6578291637595933,-3.9932225913620982
0.6588258746137745,-4.993222591362098
0.6598225854679557,-5.993222591362098
0.6608192963221369,-2.9932225913620982
0.661816007176318,-4.993222591362098
0.6628127180304992,-4.993222591362098
0.6638094288846805,-3.9932225913620982
0.6648061397388617,-1.9932225913620982
0.6658028505930429,0.006777408637901772
0.6667995614472241,1.0067774086379018
0.6677962723014053,2.0067774086379018
0.6687929831555866,4.006777408637902
0.6697896940097677,5.006777408637902
0.6707864048639489,4.006777408637902
0.6717831157181301,4.006777408637902
0.6727798265723113,4.006777408637902
0.6737765374264925,5.006777408637902
0.6747732482806738,6.006777408637902
0.6757699591348549,0.006777408637901772
0.6767666699890361,0.006777408637901772
0.6777633808432173,-1.9932225913620982
0.6787600916973985,-1.9932225913620982
0.6797568025515798,-6.993222591362098
0.680753513405761,-4.993222591362098
0.6817502242599421,-7.993222591362098
0.6827469351141233,-6.993222591362098
0.6837436459683045,-2.9932225913620982
0.6847403568224857,0.006777408637901772
0.685737067676667,1.0067774086379018
0.6867337785308482,1.0067774086379018
0.6877304893850293,4.006777408637902
0.6887272002392105,3.0067774086379018
0.6897239110933917,4.006777408637902
0.690720621947573,4.006777408637902
0.6917173328017542,6.006777408637902
0.6927140436559354,5.006777408637902
0.6937107545101165,4.006777408637902
0.6947074653642977,4.006777408637902
0.6957041762184789,1.0067774086379018
0.6967008870726602,-4.993222591362098
0.6976975979268414,-3.9932225913620982
0.6986943087810226,-3.9932225913620982
0.6996910196352037,-6.993222591362098
0.7006877304893849,-6.993222591362098
0.7016844413435661,-2.9932225913620982
0.7026811521977474,-4.993222591362098
0.7036778630519286,-0.9932225913620982
0.7046745739061098,0.006777408637901772
0.705671284760291,0.006777408637901772
0.7066679956144721,1.0067774086379018
0.7076647064686534,1.0067774086379018
0.7086614173228346,-0.9932225913620982
0.7096581281770158,-0.9932225913620982
0.710654839031197,2.0067774086379018
0.7116515498853782,5.006777408637902
0.7126482607395593,9.006777408637902
0.7136449715937406,7.006777408637902
0.7146416824479218,5.006777408637902
0.715638393302103,4.006777408637902
0.7166351041562842,-1.9932225913620982
0.7176318150104654,0.006777408637901772
0.7186285258646467,-1.9932225913620982
0.7196252367188278,-3.9932225913620982
0.720621947573009,-8.993222591362098
0.7216186584271902,-7.993222591362098
0.7226153692813714,-5.993222591362098
0.7236120801355526,-2.9932225913620982
0.7246087909897339,1.0067774086379018
0.725605501843915,2.0067774086379018
0.7266022126980962,0.006777408637901772
0.7275989235522774,5.006777408637902
0.7285956344064586,3.0067774086379018
0.7295923452606399,4.006777408637902
0.7305890561148211,5.006777408637902
0.7315857669690022,4.006777408637902
0.7325824778231834,5.006777408637902
0.7335791886773646,5.006777408637902
0.7345758995315458,2.0067774086379018
0.7355726103857271,1.0067774086379018
0.7365693212399083,-3.9932225913620982
0.7375660320940894,-3.9932225913620982
0.7385627429482706,-4.993222591362098
0.7395594538024518,-4.993222591362098
0.7405561646566331,-3.9932225913620982
0.7415528755108143,-6.993222591362098
0.7425495863649955,-1.9932225913620982
0.7435462972191766,-3.9932225913620982
0.7445430080733578,-0.9932225913620982
0.745539718927539,2.0067774086379018
0.7465364297817203,-0.9932225913620982
0.7475331406359015,1.0067774086379018
0.7485298514900827,4.006777408637902
0.7495265623442638,4.006777408637902
0.750523273198445,3.0067774086379018
0.7515199840526262,6.006777408637902
0.7525166949068075,6.006777408637902
0.7535134057609887,6.006777408637902
0.7545101166151699,0.006777408637901772
0.755506827469351,3.0067774086379018
0.7565035383235322,-0.9932225913620982
0.7575002491777135,-2.9932225913620982
0.7584969600318947,-2.9932225913620982
0.7594936708860759,-2.9932225913620982
0.7604903817402571,-6.993222591362098
0.7614870925944383,-4.993222591362098
0.7624838034486194,-4.993222591362098
0.7634805143028007,-3.9932225913620982
0.7644772251569819,-2.9932225913620982
0.7654739360111631,-0.9932225913620982
0.7664706468653443,1.0067774086379018
0.7674673577195255,3.0067774086379018
0.7684640685737067,4.006777408637902
0.7694607794278879,3.0067774086379018
0.7704574902820691,5.006777408637902
0.7714542011362503,5.006777408637902
0.7724509119904315,5.006777408637902
0.7734476228446127,3.0067774086379018
0.774444333698794,0.006777408637901772
0.7754410445529751,4.006777408637902
0.7764377554071563,-2.9932225913620982
0.7774344662613375,-0.9932225913620982
0.7784311771155187,-2.9932225913620982
0.7794278879697,-4.993222591362098
0.7804245988238812,-5.993222591362098
0.7814213096780623,-5.993222591362098
0.7824180205322435,-3.9932225913620982
0.7834147313864247,-4.993222591362098
0.7844114422406059,-1.9932225913620982
0.7854081530947872,0.006777408637901772
0.7864048639489684,-1.9932225913620982
0.7874015748031495,1.0067774086379018
0.7883982856573307,3.0067774086379018
0.7893949965115119,7.006777408637902
0.7903917073656931,7.006777408637902
0.7913884182198744,7.006777408637902
0.7923851290740556,4.006777408637902
0.7933818399282367,2.0067774086379018
0.7943785507824179,1.0067774086379018
0.7953752616365991,0.006777408637901772
0.7963719724907804,-2.9932225913620982
0.7973686833449616,-2.9932225913620982
0.7983653941991428,-1.9932225913620982
0.799362105053324,-4.993222591362098
0.8003588159075051,-4.993222591362098
0.8013555267616863,-7.993222591362098
0.8023522376158676,-6.993222591362098
0.8033489484700488,-3.9932225913620982
0.80434565932423,-2.9932225913620982
0.8053423701784111,1.0067774086379018
0.8063390810325923,0.006777408637901772
0.8073357918867736,2.0067774086379018
0.8083325027409548,3.0067774086379018
0.809329213595136,5.006777408637902
0.8103259244493172,7.006777408637902
0.8113226353034984,6.006777408637902
0.8123193461576795,3.0067774086379018
0.8133160570118608,1.0067774086379018
0.814312767866042,3.0067774086379018
0.8153094787202232,1.0067774086379018
0.8163061895744044,0.006777408637901772
0.8173029004285856,-0.9932225913620982
0.8182996112827668,-3.9932225913620982
0.819296322136948,-2.9932225913620982
0.8202930329911292,-3.9932225913620982
0.8212897438453104,-7.993222591362098
0.8222864546994916,-5.993222591362098
0.8232831655536728,-2.9932225913620982
0.824279876407854,-1.9932225913620982
0.8252765872620352,2.0067774086379018
0.8262732981162164,1.0067774086379018
0.8272700089703976,3.0067774086379018
0.8282667198245788,4.006777408637902
0.8292634306787601,4.006777408637902
0.8302601415329413,7.006777408637902
0.8312568523871224,5.006777408637902
0.8322535632413036,4.006777408637902
0.8332502740954848,4.006777408637902
0.834246984949666,1.0067774086379018
0.8352436958038473,0.006777408637901772
0.8362404066580285,-0.9932225913620982
0.8372371175122096,-2.9932225913620982
0.8382338283663908,-3.9932225913620982
0.839230539220572,-3.9932225913620982
0.8402272500747532,-6.993222591362098
0.8412239609289345,-7.993222591362098
0.8422206717831157,-5.993222591362098
0.8432173826372968,-4.993222591362098
0.844214093491478,-2.9932225913620982
0.8452108043456592,-0.9932225913620982
0.8462075151998405,2.0067774086379018
0.8472042260540217,4.006777408637902
0.8482009369082029,2.0067774086379018
0.849197647762384,4.006777408637902
0.8501943586165652,6.006777408637902
0.8511910694707464,4.006777408637902
0.8521877803249277,8.006777408637902
0.8531844911791089,3.0067774086379018
0.8541812020332901,1.0067774086379018
0.8551779128874712,4.006777408637902
0.8561746237416524,1.0067774086379018
0.8571713345958337,-2.9932225913620982
0.8581680454500149,-3.9932225913620982
0.8591647563041961,-6.993222591362098
0.8601614671583773,-6.993222591362098
0.8611581780125585,-3.9932225913620982
0.8621548888667396,-4.993222591362098
0.8631515997209209,-2.9932225913620982
0.8641483105751021,-1.9932225913620982
0.8651450214292833,-1.9932225913620982
0.8661417322834645,-2.9932225913620982
0.8671384431376457,3.0067774086379018
0.868135153991827,4.006777408637902
0.8691318648460081,6.006777408637902
0.8701285757001893,7.006777408637902
0.8711252865543705,4.006777408637902
0.8721219974085517,5.006777408637902
0.8731187082627329,5.006777408637902
0.8741154191169141,1.0067774086379018
0.8751121299710953,2.0067774086379018
0.8761088408252765,-1.9932225913620982
0.8771055516794577,-1.9932225913620982
0.8781022625336389,-2.9932225913620982
0.8790989733878201,-5.993222591362098
0.8800956842420014,-5.993222591362098
0.8810923950961825,-6.993222591362098
0.8820891059503637,-3.9932225913620982
0.8830858168045449,-2.9932225913620982
0.8840825276587261,1.0067774086379018
0.8850792385129074,0.006777408637901772
0.8860759493670886,1.0067774086379018
0.8870726602212697,2.0067774086379018
0.8880693710754509,3.0067774086379018
0.8890660819296321,5.006777408637902
0.8900627927838133,6.006777408637902
0.8910595036379946,4.006777408637902
0.8920562144921758,8.006777408637902
0.8930529253463569,4.006777408637902
0.8940496362005381,2.0067774086379018
0.8950463470547193,-1.9932225913620982
0.8960430579089006,-1.9932225913620982
0.8970397687630818,-2.9932225913620982
0.898036479617263,-3.9932225913620982
0.8990331904714441,-7.993222591362098
0.9000299013256253,-4.993222591362098
0.9010266121798065,-6.993222591362098
0.9020233230339878,-5.993222591362098
0.903020033888169,-2.9932225913620982
0.9040167447423502,-3.9932225913620982
0.9050134555965313,1.0067774086379018
0.9060101664507125,4.006777408637902
0.9070068773048938,3.0067774086379018
0.908003588159075,4.006777408637902
0.9090002990132562,6.006777408637902
0.9099970098674374,5.006777408637902
0.9109937207216185,3.0067774086379018
0.9119904315757997,2.0067774086379018
0.912987142429981,5.006777408637902
0.9139838532841622,4.006777408637902
0.9149805641383434,0.006777408637901772
0.9159772749925246,-4.993222591362098
0.9169739858467058,-1.9932225913620982
0.9179706967008869,-2.9932225913620982
0.9189674075550682,-3.9932225913620982
0.9199641184092494,-3.9932225913620982
0.9209608292634306,-6.993222591362098
0.9219575401176118,-5.993222591362098
0.922954250971793,-1.9932225913620982
0.9239509618259742,-0.9932225913620982
0.9249476726801554,0.006777408637901772
0.9259443835343366,-0.9932225913620982
0.9269410943885178,2.0067774086379018
0.927937805242699,4.006777408637902
0.9289345160968802,4.006777408637902
0.9299312269510615,7.006777408637902
0.9309279378052426,5.006777408637902
0.9319246486594238,4.006777408637902
0.932921359513605,5.006777408637902
0.9339180703677862,1.0067774086379018
0.9349147812219675,3.0067774086379018
0.9359114920761487,-3.9932225913620982
0.9369082029303298,-3.9932225913620982
0.937904913784511,-2.9932225913620982
0.9389016246386922,-5.993222591362098
0.9398983354928734,-7.993222591362098
0.9408950463470547,-5.993222591362098
0.9418917572012359,-2.9932225913620982
0.942888468055417,-3.9932225913620982
0.9438851789095982,1.0067774086379018
0.9448818897637794,0.006777408637901772
0.9458786006179607,2.0067774086379018
0.9468753114721419,4.006777408637902
0.9478720223263231,3.0067774086379018
0.9488687331805042,5.006777408637902
0.9498654440346854,6.006777408637902
0.9508621548888666,5.006777408637902
0.9518588657430479,3.0067774086379018
0.9528555765972291,4.006777408637902
0.9538522874514103,2.0067774086379018
0.9548489983055914,-0.9932225913620982
0.9558457091597726,-0.9932225913620982
0.9568424200139538,-2.9932225913620982
0.9578391308681351,-4.993222591362098
0.9588358417223163,-5.993222591362098
0.9598325525764975,-6.993222591362098
0.9608292634306786,-5.993222591362098
0.9618259742848598,-6.993222591362098
0.9628226851390411,-3.9932225913620982
0.9638193959932223,-1.9932225913620982
0.9648161068474035,0.006777408637901772
0.9658128177015847,0.006777408637901772
0.9668095285557659,5.006777408637902
0.967806239409947,5.006777408637902
0.9688029502641283,5.006777408637902
0.9697996611183095,5.006777408637902
0.9707963719724907,5.006777408637902
0.9717930828266719,2.0067774086379018
0.972789793680853,4.006777408637902
0.9737865045350343,2.0067774086379018
0.9747832153892155,3.0067774086379018
0.9757799262433967,0.006777408637901772
0.9767766370975779,-2.9932225913620982
0.9777733479517591,-2.9932225913620982
0.9787700588059403,-4.993222591362098
0.9797667696601216,-6.993222591362098
0.9807634805143027,-5.993222591362098
0.9817601913684839,-2.9932225913620982
0.9827569022226651,-1.9932225913620982
0.9837536130768463,-1.9932225913620982
0.9847503239310276,-1.9932225913620982
0.9857470347852088,1.0067774086379018
0.9867437456393899,1.0067774086379018
0.9877404564935711,1.0067774086379018
0.9887371673477523,5.006777408637902
0.9897338782019335,5.006777408637902
0.9907305890561148,6.006777408637902
0.991727299910296,7.006777408637902
0.9927240107644771,6.006777408637902
0.9937207216186583,4.006777408637902
0.9947174324728395,1.0067774086379018
0.9957141433270208,-1.9932225913620982
0.996710854181202,-3.9932225913620982
0.9977075650353832,-2.9932225913620982
0.9987042758895643,-4.993222591362098
0.9997009867437455,-5.993222591362098
1.0006976975979267,-6.993222591362098
1.001694408452108,-4.993222591362098
1.002691119306289,-2.9932225913620982
1.0036878301604704,-0.9932225913620982
1.0046845410146517,-0.9932225913620982
1.0056812518688327,-1.9932225913620982
1.006677962723014,4.006777408637902
1.007674673577195,1.0067774086379018
1.0086713844313764,3.0067774086379018
1.0096680952855577,5.006777408637902
1.0106648061397387,5.006777408637902
1.01166151699392,6.006777408637902
1.0126582278481011,4.006777408637902
1.0136549387022824,5.006777408637902
1.0146516495564635,2.0067774086379018
1.0156483604106448,-0.9932225913620982
1.016645071264826,-0.9932225913620982
1.0176417821190071,-3.9932225913620982
1.0186384929731884,-6.993222591362098
1.0196352038273695,-7.993222591362098
1.0206319146815508,-7.993222591362098
1.021628625535732,-2.9932225913620982
1.0226253363899132,-4.993222591362098
1.0236220472440944,0.006777408637901772
1.0246187580982755,-1.9932225913620982
1.0256154689524568,2.0067774086379018
1.026612179806638,3.0067774086379018
1.0276088906608192,2.0067774086379018
1.0286056015150005,4.006777408637902
1.0296023123691815,7.006777408637902
1.0305990232233628,4.006777408637902
1.031595734077544,6.006777408637902
1.0325924449317252,4.006777408637902
1.0335891557859065,4.006777408637902
1.0345858666400876,3.0067774086379018
1.0355825774942689,1.0067774086379018
1.03657928834845,-3.9932225913620982
1.0375759992026312,-4.993222591362098
1.0385727100568125,-4.993222591362098
1.0395694209109936,-2.9932225913620982
1.0405661317651749,-6.993222591362098
1.041562842619356,-3.9932225913620982
1.0425595534735372,-2.9932225913620982
1.0435562643277185,-0.9932225913620982
1.0445529751818996,0.006777408637901772
1.045549686036081,1.0067774086379018
1.046546396890262,2.0067774086379018
1.0475431077444433,2.0067774086379018
1.0485398185986246,6.006777408637902
1.0495365294528056,5.006777408637902
1.050533240306987,6.006777408637902
1.051529951161168,6.006777408637902
1.0525266620153493,4.006777408637902
1.0535233728695304,1.0067774086379018
1.0545200837237116,1.0067774086379018
1.055516794577893,1.0067774086379018
1.056513505432074,-2.9932225913620982
1.0575102162862553,-2.9932225913620982
1.0585069271404364,-3.9932225913620982
1.0595036379946177,-2.9932225913620982
1.060500348848799,-5.993222591362098
1.06149705970298,-3.9932225913620982
1.0624937705571613,-2.9932225913620982
1.0634904814113424,-2.9932225913620982
1.0644871922655237,0.006777408637901772
1.065483903119705,1.0067774086379018
1.066480613973886,1.0067774086379018
1.0674773248280673,1.0067774086379018
1.0684740356822484,4.006777408637902
1.0694707465364297,7.006777408637902
1.0704674573906108,3.0067774086379018
1.071464168244792,3.0067774086379018
1.0724608790989734,4.006777408637902
1.0734575899531544,1.0067774086379018
1.0744543008073357,3.0067774086379018
1.0754510116615168,-0.9932225913620982
1.076447722515698,-1.9932225913620982
1.0774444333698794,-3.9932225913620982
1.0784411442240605,-1.9932225913620982
1.0794378550782417,-5.993222591362098
1.0804345659324228,-5.993222591362098
1.0814312767866041,-4.993222591362098
1.0824279876407854,-6.993222591362098
1.0834246984949665,-4.993222591362098
1.0844214093491478,-1.9932225913620982
1.0854181202033288,1.0067774086379018
1.0864148310575101,2.0067774086379018
1.0874115419116914,0.006777408637901772
1.0884082527658725,4.006777408637902
1.0894049636200538,6.006777408637902
1.0904016744742349,7.006777408637902
1.0913983853284162,6.006777408637902
1.0923950961825972,4.006777408637902
1.0933918070367785,5.006777408637902
1.0943885178909598,9.006777408637902
1.0953852287451409,6.006777408637902
1.0963819395993222,-2.9932225913620982
1.0973786504535032,-12.993222591362098
1.0983753613076845,-12.993222591362098
1.0993720721618658,0.006777408637901772
1.100368783016047,-3.9932225913620982
1.1013654938702282,-6.993222591362098
1.1023622047244093,-9.993222591362098
1.1033589155785906,-11.993222591362098
1.1043556264327719,-6.993222591362098
1.105352337286953,-2.9932225913620982
1.1063490481411342,0.006777408637901772
1.1073457589953153,-2.9932225913620982
1.1083424698494966,-1.9932225913620982
1.1093391807036777,0.006777408637901772
1.110335891557859,9.006777408637902
1.1113326024120402,25.0067774086379
1.1123293132662213,24.0067774086379
1.1133260241204026,19.0067774086379
1.1143227349745837,17.0067774086379
1.115319445828765,7.006777408637902
1.1163161566829463,0.006777408637901772
1.1173128675371273,-4.993222591362098
1.1183095783913086,-8.993222591362098
1.1193062892454897,-6.993222591362098
1.120303000099671,-6.993222591362098
1.1212997109538523,-11.993222591362098
1.1222964218080334,-13.993222591362098
1.1232931326622146,-4.993222591362098
1.1242898435163957,-10.993222591362098
1.125286554370577,-9.993222591362098
1.1262832652247583,-6.993222591362098
1.1272799760789394,-3.9932225913620982
1.1282766869331207,-0.9932225913620982
1.1292733977873017,-1.9932225913620982
1.130270108641483,1.0067774086379018
1.131266819495664,1.0067774086379018
1.1322635303498454,0.006777408637901772
1.1332602412040267,-4.993222591362098
1.1342569520582078,-9.993222591362098
1.135253662912389,-7.993222591362098
1.1362503737665701,0.006777408637901772
1.1372470846207514,3.0067774086379018
1.1382437954749327,10.006777408637902
1.1392405063291138,9.006777408637902
1.140237217183295,7.006777408637902
1.1412339280374761,25.0067774086379
1.1422306388916574,33.0067774086379
1.1432273497458387,10.006777408637902
1.1442240606000198,-7.993222591362098
1.145220771454201,-13.993222591362098
1.1462174823083822,-11.993222591362098
1.1472141931625635,-7.993222591362098
1.1482109040167447,-2.9932225913620982
1.1492076148709258,-3.9932225913620982
1.1502043257251071,-9.993222591362098
1.1512010365792882,-5.993222591362098
1.1521977474334695,-3.9932225913620982
1.1531944582876505,-6.993222591362098
1.1541911691418318,-3.9932225913620982
1.1551878799960131,-3.9932225913620982
1.1561845908501942,-6.993222591362098
1.1571813017043755,-7.993222591362098
1.1581780125585566,-3.9932225913620982
1.1591747234127379,11.006777408637902
1.1601714342669192,12.006777408637902
1.1611681451211002,10.006777408637902
1.1621648559752815,3.0067774086379018
1.1631615668294626,2.0067774086379018
1.1641582776836439,-6.993222591362098
1.1651549885378252,-22.9932225913621
1.1661516993920062,-38.9932225913621
1.1671484102461875,-33.9932225913621
1.1681451211003686,-8.993222591362098
1.16914183195455,17.0067774086379
1.170138542808731,33.0067774086379
1.1711352536629123,33.0067774086379
1.1721319645170936,23.0067774086379
1.1731286753712746,29.0067774086379
1.174125386225456,40.0067774086379
1.175122097079637,25.0067774086379
1.1761188079338183,9.006777408637902
1.1771155187879996,-4.993222591362098
1.1781122296421807,-13.993222591362098
1.179108940496362,-13.993222591362098
1.180105651350543,-27.9932225913621
1.1811023622047243,-39.9932225913621
1.1820990730589056,-55.9932225913621
1.1830957839130867,-50.9932225913621
1.184092494767268,-23.9932225913621
1.185089205621449,-4.993222591362098
1.1860859164756303,-1.9932225913620982
1.1870826273298116,24.0067774086379
1.1880793381839927,40.0067774086379
1.189076049038174,31.0067774086379
1.190072759892355,36.0067774086379
1.1910694707465364,18.0067774086379
1.1920661816007174,10.006777408637902
1.1930628924548987,21.0067774086379
1.19405960330908,-2.9932225913620982
1.195056314163261,-11.993222591362098
1.1960530250174424,-11.993222591362098
1.1970497358716234,7.006777408637902
1.1980464467258047,33.0067774086379
1.199043157579986,16.0067774086379
1.200039868434167,-3.9932225913620982
1.2010365792883484,-32.9932225913621
1.2020332901425295,-24.9932225913621
1.2030300009967108,17.0067774086379
1.204026711850892,29.0067774086379
1.2050234227050731,-3.9932225913620982
1.2060201335592544,-11.993222591362098
1.2070168444134355,30.0067774086379
1.2080135552676168,17.0067774086379
1.2090102661217978,13.006777408637902
1.2100069769759791,-3.9932225913620982
1.2110036878301604,-12.993222591362098
1.2120003986843415,-2.9932225913620982
1.2129971095385228,20.0067774086379
1.2139938203927039,19.0067774086379
1.2149905312468852,1.0067774086379018
1.2159872421010665,15.006777408637902
1.2169839529552475,-16.9932225913621
1.2179806638094288,-57.9932225913621
1.21897737466361,-72.9932225913621
1.2199740855177912,-96.9932225913621
1.2209707963719725,-81.9932225913621
1.2219675072261535,-42.9932225913621
1.2229642180803348,7.006777408637902
1.223960928934516,42.0067774086379
1.2249576397886972,65.0067774086379
1.2259543506428785,77.0067774086379
1.2269510614970596,94.0067774086379
1.2279477723512409,71.0067774086379
1.228944483205422,24.0067774086379
1.2299411940596032,1.0067774086379018
1.2309379049137843,-15.993222591362098
1.2319346157679656,-31.9932225913621
1.2329313266221469,-19.9932225913621
1.233928037476328,-1.9932225913620982
1.2349247483305092,-21.9932225913621
1.2359214591846903,-52.9932225913621
1.2369181700388716,-46.9932225913621
1.237914880893053,-21.9932225913621
1.238911591747234,1.0067774086379018
1.2399083026014153,-20.9932225913621
1.2409050134555963,-32.9932225913621
1.2419017243097776,0.006777408637901772
1.242898435163959,51.0067774086379
1.24389514601814,59.0067774086379
1.2448918568723213,61.0067774086379
1.2458885677265024,39.0067774086379
1.2468852785806837,60.0067774086379
1.2478819894348647,10.006777408637902
1.248878700289046,-11.993222591362098
1.2498754111432273,-7.993222591362098
1.2508721219974084,-36.9932225913621
1.2518688328515897,-40.9932225913621
1.2528655437057707,-37.9932225913621
1.253862254559952,1.0067774086379018
1.2548589654141333,9.006777408637902
1.2558556762683144,-3.9932225913620982
1.2568523871224957,-18.9932225913621
1.2578490979766768,-40.9932225913621
1.258845808830858,-66.9932225913621
1.2598425196850394,-67.9932225913621
1.2608392305392204,-44.9932225913621
1.2618359413934017,39.0067774086379
1.2628326522475828,128.0067774086379
1.263829363101764,146.0067774086379
1.2648260739559454,66.0067774086379
1.2658227848101264,35.0067774086379
1.2668194956643077,32.0067774086379
1.2678162065184888,21.0067774086379
1.26881291737267,-11.993222591362098
1.2698096282268512,-55.9932225913621
1.2708063390810325,-69.9932225913621
1.2718030499352138,-56.9932225913621
1.2727997607893948,-55.9932225913621
1.2737964716435761,-50.9932225913621
1.2747931824977572,-19.9932225913621
1.2757898933519385,2.0067774086379018
1.2767866042061198,-29.9932225913621
1.2777833150603009,-43.9932225913621
1.2787800259144821,-4.993222591362098
1.2797767367686632,34.0067774086379
1.2807734476228445,55.0067774086379
1.2817701584770258,10.006777408637902
1.2827668693312069,21.0067774086379
1.2837635801853882,57.0067774086379
1.2847602910395692,19.0067774086379
1.2857570018937505,10.006777408637902
1.2867537127479316,19.0067774086379
1.287750423602113,5.006777408637902
1.2887471344562942,-18.9932225913621
1.2897438453104753,-41.9932225913621
1.2907405561646565,-54.9932225913621
1.2917372670188376,-56.9932225913621
1.292733977873019,-69.9932225913621
1.2937306887272002,-4.993222591362098
1.2947273995813813,68.0067774086379
1.2957241104355626,124.0067774086379
1.2967208212897436,79.0067774086379
1.297717532143925,48.0067774086379
1.2987142429981062,20.0067774086379
1.2997109538522873,-0.9932225913620982
1.3007076647064686,-19.9932225913621
1.3017043755606497,-42.9932225913621
1.302701086414831,-82.9932225913621
1.3036977972690122,-74.9932225913621
1.3046945081231933,-62.9932225913621
1.3056912189773746,-23.9932225913621
1.3066879298315557,-1.9932225913620982
1.307684640685737,19.0067774086379
1.308681351539918,54.0067774086379
1.3096780623940993,84.0067774086379
1.3106747732482806,69.0067774086379
1.3116714841024617,-18.9932225913621
1.312668194956643,-48.9932225913621
1.313664905810824,-56.9932225913621
1.3146616166650054,-25.9932225913621
1.3156583275191867,12.006777408637902
1.3166550383733677,21.0067774086379
1.317651749227549,-8.993222591362098
1.31864846008173,19.0067774086379
1.3196451709359114,51.0067774086379
1.3206418817900927,38.0067774086379
1.3216385926442737,21.0067774086379
1.322635303498455,-0.9932225913620982
1.323632014352636,-18.9932225913621
1.3246287252068174,24.0067774086379
1.3256254360609985,19.0067774086379
1.3266221469151798,-51.9932225913621
1.327618857769361,-65.9932225913621
1.3286155686235421,-20.9932225913621
1.3296122794777234,-15.993222591362098
1.3306089903319045,12.006777408637902
1.3316057011860858,5.006777408637902
1.332602412040267,40.0067774086379
1.3335991228944482,36.0067774086379
1.3345958337486294,-3.9932225913620982
1.3355925446028105,-45.9932225913621
1.3365892554569918,-79.9932225913621
1.337585966311173,-55.9932225913621
1.3385826771653542,-29.9932225913621
1.3395793880195355,10.006777408637902
1.3405760988737165,99.0067774086379
1.3415728097278978,78.0067774086379
1.3425695205820791,59.0067774086379
1.3435662314362602,60.0067774086379
1.3445629422904415,16.0067774086379
1.3455596531446226,-66.9932225913621
1.3465563639988039,-84.9932225913621
1.347553074852985,-21.9932225913621
1.3485497857071662,15.006777408637902
1.3495464965613475,24.0067774086379
1.3505432074155286,60.0067774086379
1.3515399182697099,26.0067774086379
1.352536629123891,-33.9932225913621
1.3535333399780722,-44.9932225913621
1.3545300508322535,-57.9932225913621
1.3555267616864346,-46.9932225913621
1.356523472540616,-50.9932225913621
1.357520183394797,-41.9932225913621
1.3585168942489783,11.006777408637902
1.3595136051031596,134.0067774086379
1.3605103159573406,194.0067774086379
1.361507026811522,114.0067774086379
1.362503737665703,-8.993222591362098
1.3635004485198843,-109.9932225913621
1.3644971593740653,-106.9932225913621
1.3654938702282466,-89.9932225913621
1.366490581082428,-78.9932225913621
1.367487291936609,-51.9932225913621
1.3684840027907903,20.0067774086379
1.3694807136449714,67.0067774086379
1.3704774244991527,120.0067774086379
1.371474135353334,94.0067774086379
1.372470846207515,18.0067774086379
1.3734675570616963,-23.9932225913621
1.3744642679158774,-37.9932225913621
1.3754609787700587,-65.9932225913621
1.37645768962424,-82.9932225913621
1.377454400478421,-71.9932225913621
1.3784511113326023,-33.9932225913621
1.3794478221867834,68.0067774086379
1.3804445330409647,94.0067774086379
1.381441243895146,48.0067774086379
1.382437954749327,14.006777408637902
1.3834346656035084,51.0067774086379
1.3844313764576894,26.0067774086379
1.3854280873118707,-39.9932225913621
1.3864247981660518,-115.9932225913621
1.387421509020233,-63.9932225913621
1.3884182198744144,47.0067774086379
1.3894149307285955,27.0067774086379
1.3904116415827767,48.0067774086379
1.3914083524369578,72.0067774086379
1.3924050632911391,13.006777408637902
1.3934017741453204,-41.9932225913621
1.3943984849995015,-52.9932225913621
1.3953951958536828,-22.9932225913621
1.3963919067078638,12.006777408637902
1.3973886175620451,24.0067774086379
1.3983853284162264,8.006777408637902
1.3993820392704075,-23.9932225913621
1.4003787501245888,-40.9932225913621
1.4013754609787699,-70.9932225913621
1.4023721718329512,-67.9932225913621
1.4033688826871322,-30.9932225913621
1.4043655935413135,26.0067774086379
1.4053623043954948,91.0067774086379
1.4063590152496759,139.0067774086379
1.4073557261038572,122.0067774086379
1.4083524369580382,64.0067774086379
1.4093491478122195,-26.9932225913621
1.4103458586664008,-93.9932225913621
1.411342569520582,-108.9932225913621
1.4123392803747632,-42.9932225913621
1.4133359912289443,-19.9932225913621
1.4143327020831256,11.006777408637902
1.4153294129373069,3.0067774086379018
1.416326123791488,-1.9932225913620982
1.4173228346456692,-10.993222591362098
1.4183195454998503,-39.9932225913621
1.4193162563540316,17.0067774086379
1.4203129672082129,40.0067774086379
1.421309678062394,-11.993222591362098
1.4223063889165752,-28.9932225913621
1.4233030997707563,23.0067774086379
1.4242998106249376,28.0067774086379
1.4252965214791187,21.0067774086379
1.4262932323333,8.006777408637902
1.4272899431874813,-44.9932225913621
1.4282866540416623,-33.9932225913621
1.4292833648958436,10.006777408637902
1.4302800757500247,41.0067774086379
1.431276786604206,66.0067774086379
1.4322734974583873,61.0067774086379
1.4332702083125684,45.0067774086379
1.4342669191667496,-13.993222591362098
1.4352636300209307,-27.9932225913621
1.436260340875112,-31.9932225913621
1.4372570517292933,-43.9932225913621
1.4382537625834744,-31.9932225913621
1.4392504734376557,-59.9932225913621
1.4402471842918367,-44.9932225913621
1.441243895146018,-43.9932225913621
1.4422406060001993,-31.9932225913621
1.4432373168543804,21.0067774086379
1.4442340277085617,40.0067774086379
1.4452307385627428,43.0067774086379
1.446227449416924,40.0067774086379
1.4472241602711051,36.0067774086379
1.4482208711252864,33.0067774086379
1.4492175819794677,10.006777408637902
1.4502142928336488,-11.993222591362098
1.45121100368783,-19.9932225913621
1.4522077145420111,-16.9932225913621
1.4532044253961924,-8.993222591362098
1.4542011362503737,-1.9932225913620982
1.4551978471045548,-4.993222591362098
1.456194557958736,-6.993222591362098
1.4571912688129172,-3.9932225913620982
1.4581879796670985,-3.9932225913620982
1.4591846905212797,-9.993222591362098
1.4601814013754608,-9.993222591362098
1.4611781122296421,-14.993222591362098
1.4621748230838232,-9.993222591362098
1.4631715339380045,8.006777408637902
1.4641682447921855,13.006777408637902
1.4651649556463668,8.006777408637902
1.4661616665005481,7.006777408637902
1.4671583773547292,27.0067774086379
1.4681550882089105,32.0067774086379
1.4691517990630916,10.006777408637902
1.4701485099172729,-7.993222591362098
1.4711452207714542,-2.9932225913620982
1.4721419316256352,6.006777408637902
1.4731386424798165,0.006777408637901772
1.4741353533339976,-10.993222591362098
1.4751320641881789,-11.993222591362098
1.4761287750423602,-7.993222591362098
1.4771254858965412,-10.993222591362098
1.4781221967507225,-7.993222591362098
1.4791189076049036,-4.993222591362098
1.480115618459085,-3.9932225913620982
1.4811123293132662,-3.9932225913620982
1.4821090401674473,-2.9932225913620982
1.4831057510216286,3.0067774086379018
1.4841024618758096,1.0067774086379018
1.485099172729991,3.0067774086379018
1.486095883584172,2.0067774086379018
1.4870925944383533,5.006777408637902
1.4880893052925346,5.006777408637902
1.4890860161467157,4.006777408637902
1.490082727000897,5.006777408637902
1.491079437855078,1.0067774086379018
1.4920761487092593,4.006777408637902
1.4930728595634406,3.0067774086379018
1.4940695704176217,0.006777408637901772
1.495066281271803,-0.9932225913620982
1.496062992125984,-4.993222591362098
1.4970597029801653,-3.9932225913620982
1.4980564138343466,-4.993222591362098
1.4990531246885277,-5.993222591362098
1.500049835542709,-5.993222591362098
1.50104654639689,-1.9932225913620982
1.5020432572510714,-2.9932225913620982
1.5030399681052524,-0.9932225913620982
1.5040366789594337,0.006777408637901772
1.505033389813615,3.0067774086379018
1.506030100667796,6.006777408637902
1.5070268115219774,5.006777408637902
1.5080235223761584,5.006777408637902
1.5090202332303397,4.006777408637902
1.510016944084521,5.006777408637902
1.511013654938702,3.0067774086379018
1.5120103657928834,2.0067774086379018
1.5130070766470645,0.006777408637901772
1.5140037875012458,-0.9932225913620982
1.515000498355427,-3.9932225913620982
1.5159972092096081,-6.993222591362098
1.5169939200637894,-5.993222591362098
1.5179906309179705,-4.993222591362098
1.5189873417721518,-7.993222591362098
1.519984052626333,-3.9932225913620982
1.5209807634805141,-4.993222591362098
1.5219774743346954,-3.9932225913620982
1.5229741851888765,0.006777408637901772
1.5239708960430578,1.0067774086379018
1.5249676068972389,3.0067774086379018
1.5259643177514202,2.0067774086379018
1.5269610286056015,5.006777408637902
1.5279577394597825,4.006777408637902
1.5289544503139638,4.006777408637902
1.529951161168145,3.0067774086379018
1.5309478720223262,4.006777408637902
1.5319445828765075,2.0067774086379018
1.5329412937306885,4.006777408637902
1.5339380045848698,-0.9932225913620982
1.534934715439051,-4.993222591362098
1.5359314262932322,-2.9932225913620982
1.5369281371474135,-4.993222591362098
1.5379248480015946,-6.993222591362098
1.5389215588557759,-7.993222591362098
1.539918269709957,-7.993222591362098
1.5409149805641382,3.0067774086379018
1.5419116914183193,6.006777408637902
1.5429084022725006,4.006777408637902
1.5439051131266819,-3.9932225913620982
1.544901823980863,2.0067774086379018
1.5458985348350442,6.006777408637902
1.5468952456892253,6.006777408637902
1.5478919565434066,4.006777408637902
1.548888667397588,2.0067774086379018
1.549885378251769,3.0067774086379018
1.5508820891059503,1.0067774086379018
1.5518787999601313,1.0067774086379018
1.5528755108143126,-1.9932225913620982
1.553872221668494,-2.9932225913620982
1.554868932522675,-7.993222591362098
1.5558656433768563,-16.9932225913621
1.5568623542310374,-18.9932225913621
1.5578590650852187,-18.9932225913621
1.5588557759394,-2.9932225913620982
1.559852486793581,17.0067774086379
1.5608491976477623,21.0067774086379
1.5618459085019434,12.006777408637902
1.5628426193561247,1.0067774086379018
1.5638393302103057,10.006777408637902
1.564836041064487,14.006777408637902
1.5658327519186683,5.006777408637902
1.5668294627728494,-1.9932225913620982
1.5678261736270307,-7.993222591362098
1.5688228844812118,-9.993222591362098
1.569819595335393,-2.9932225913620982
1.5708163061895744,3.0067774086379018
1.5718130170437554,-3.9932225913620982
1.5728097278979367,-12.993222591362098
1.5738064387521178,-28.9932225913621
1.574803149606299,-25.9932225913621
1.5757998604604804,-21.9932225913621
1.5767965713146614,-6.993222591362098
1.5777932821688427,37.0067774086379
1.5787899930230238,71.0067774086379
1.579786703877205,54.0067774086379
1.5807834147313862,17.0067774086379
1.5817801255855675,-15.993222591362098
1.5827768364397488,-38.9932225913621
1.5837735472939298,-28.9932225913621
1.5847702581481111,-19.9932225913621
1.5857669690022922,-14.993222591362098
1.5867636798564735,-5.993222591362098
1.5877603907106548,6.006777408637902
1.5887571015648358,10.006777408637902
1.5897538124190171,0.006777408637901772
1.5907505232731982,1.0067774086379018
1.5917472341273795,4.006777408637902
1.5927439449815608,1.0067774086379018
1.5937406558357419,-0.9932225913620982
1.5947373666899232,-0.9932225913620982
1.5957340775441042,-2.9932225913620982
1.5967307883982855,-7.993222591362098
1.5977274992524668,-7.993222591362098
1.598724210106648,-18.9932225913621
1.5997209209608292,-18.9932225913621
1.6007176318150103,-10.993222591362098
1.6017143426691915,0.006777408637901772
1.6027110535233726,9.006777408637902
1.603707764377554,24.0067774086379
1.6047044752317352,41.0067774086379
1.6057011860859163,17.0067774086379
1.6066978969400976,-0.9932225913620982
1.6076946077942786,3.0067774086379018
1.60869131864846,7.006777408637902
1.6096880295026412,1.0067774086379018
1.6106847403568223,-2.9932225913620982
1.6116814512110036,-4.993222591362098
1.6126781620651847,-2.9932225913620982
1.613674872919366,-4.993222591362098
1.6146715837735472,-2.9932225913620982
1.6156682946277283,-7.993222591362098
1.6166650054819096,-7.993222591362098
1.6176617163360907,-6.993222591362098
1.618658427190272,-3.9932225913620982
1.619655138044453,-3.9932225913620982
1.6206518488986343,-4.993222591362098
1.6216485597528156,1.0067774086379018
1.6226452706069967,1.0067774086379018
1.623641981461178,2.0067774086379018
1.624638692315359,5.006777408637902
1.6256354031695404,2.0067774086379018
1.6266321140237217,2.0067774086379018
1.6276288248779027,4.006777408637902
1.628625535732084,6.006777408637902
1.629622246586265,6.006777408637902
1.6306189574404464,5.006777408637902
1.6316156682946277,2.0067774086379018
1.6326123791488087,3.0067774086379018
1.63360909000299,2.0067774086379018
1.634605800857171,2.0067774086379018
1.6356025117113524,1.0067774086379018
1.6365992225655337,-3.9932225913620982
1.6375959334197148,-7.993222591362098
1.638592644273896,-6.993222591362098
1.6395893551280771,-3.9932225913620982
1.6405860659822584,-5.993222591362098
1.6415827768364395,-1.9932225913620982
1.6425794876906208,0.006777408637901772
1.643576198544802,0.006777408637901772
1.6445729093989832,3.0067774086379018
1.6455696202531644,2.0067774086379018
1.6465663311073455,4.006777408637902
1.6475630419615268,0.006777408637901772
1.648559752815708,1.0067774086379018
1.6495564636698892,4.006777408637902
1.6505531745240705,-1.9932225913620982
1.6515498853782515,-4.993222591362098
1.6525465962324328,0.006777408637901772
1.6535433070866141,5.006777408637902
1.6545400179407952,7.006777408637902
1.6555367287949765,6.006777408637902
1.6565334396491576,1.0067774086379018
1.6575301505033389,-7.993222591362098
1.6585268613575201,-7.993222591362098
1.6595235722117012,-9.993222591362098
1.6605202830658825,-3.9932225913620982
1.6615169939200636,-1.9932225913620982
1.6625137047742449,-0.9932225913620982
1.663510415628426,0.006777408637901772
1.6645071264826072,3.0067774086379018
1.6655038373367885,0.006777408637901772
1.6665005481909696,2.0067774086379018
1.667497259045151,4.006777408637902
1.668493969899332,2.0067774086379018
1.6694906807535133,1.0067774086379018
1.6704873916076945,-3.9932225913620982
1.6714841024618756,-4.993222591362098
1.672480813316057,-7.993222591362098
1.673477524170238,-11.993222591362098
1.6744742350244193,-12.993222591362098
1.6754709458786006,-9.993222591362098
1.6764676567327816,-5.993222591362098
1.677464367586963,4.006777408637902
1.678461078441144,24.0067774086379
1.6794577892953253,46.0067774086379
1.6804545001495064,37.0067774086379
1.6814512110036877,3.0067774086379018
1.682447921857869,-12.993222591362098
1.68344463271205,-7.993222591362098
1.6844413435662313,-2.9932225913620982
1.6854380544204124,-2.9932225913620982
1.6864347652745937,-7.993222591362098
1.687431476128775,-4.993222591362098
1.688428186982956,1.0067774086379018
1.6894248978371373,-1.9932225913620982
1.6904216086913184,-4.993222591362098
1.6914183195454997,-7.993222591362098
1.692415030399681,-0.9932225913620982
1.693411741253862,-7.993222591362098
1.6944084521080434,-9.993222591362098
1.6954051629622244,-9.993222591362098
1.6964018738164057,-7.993222591362098
1.697398584670587,-9.993222591362098
1.698395295524768,-14.993222591362098
1.6993920063789494,-14.993222591362098
1.7003887172331305,-13.993222591362098
1.7013854280873117,-8.993222591362098
1.7023821389414928,8.006777408637902
1.703378849795674,23.0067774086379
1.7043755606498554,34.0067774086379
1.7053722715040365,40.0067774086379
1.7063689823582178,28.0067774086379
1.7073656932123988,3.0067774086379018
1.7083624040665801,-8.993222591362098
1.7093591149207614,-4.993222591362098
1.7103558257749425,0.006777408637901772
1.7113525366291238,-5.993222591362098
1.7123492474833049,-6.993222591362098
1.7133459583374862,-4.993222591362098
1.7143426691916674,-8.993222591362098
1.7153393800458485,-4.993222591362098
1.7163360909000298,-6.993222591362098
1.7173328017542109,-7.993222591362098
1.7183295126083922,-7.993222591362098
1.7193262234625732,-4.993222591362098
1.7203229343167545,-3.9932225913620982
1.7213196451709358,-3.9932225913620982
1.722316356025117,1.0067774086379018
1.7233130668792982,1.0067774086379018
1.7243097777334793,3.0067774086379018
1.7253064885876606,4.006777408637902
1.7263031994418419,4.006777408637902
1.727299910296023,7.006777408637902
1.7282966211502042,8.006777408637902
1.7292933320043853,9.006777408637902
1.7302900428585666,6.006777408637902
1.7312867537127479,6.006777408637902
1.732283464566929,2.0067774086379018
1.7332801754211102,1.0067774086379018
1.7342768862752913,-1.9932225913620982
1.7352735971294726,-4.993222591362098
1.736270307983654,-5.993222591362098
1.737267018837835,-5.993222591362098
1.7382637296920163,-1.9932225913620982
1.7392604405461973,-1.9932225913620982
1.7402571514003786,-2.9932225913620982
1.7412538622545597,-0.9932225913620982
1.742250573108741,0.006777408637901772
1.7432472839629223,0.006777408637901772
1.7442439948171033,2.0067774086379018
1.7452407056712846,3.0067774086379018
1.7462374165254657,1.0067774086379018
1.747234127379647,7.006777408637902
1.7482308382338283,3.0067774086379018
1.7492275490880094,4.006777408637902
1.7502242599421907,3.0067774086379018
1.7512209707963717,2.0067774086379018
1.752217681650553,-0.9932225913620982
1.7532143925047343,-2.9932225913620982
1.7542111033589154,-3.9932225913620982
1.7552078142130967,-3.9932225913620982
1.7562045250672778,-6.993222591362098
1.757201235921459,-3.9932225913620982
1.7581979467756401,-5.993222591362098
1.7591946576298214,-4.993222591362098
1.7601913684840027,-2.9932225913620982
1.7611880793381838,-0.9932225913620982
1.762184790192365,-1.9932225913620982
1.7631815010465461,1.0067774086379018
1.7641782119007274,4.006777408637902
1.7651749227549087,4.006777408637902
1.7661716336090898,2.0067774086379018
1.767168344463271,6.006777408637902
1.7681650553174522,2.0067774086379018
1.7691617661716335,4.006777408637902
1.7701584770258147,1.0067774086379018
1.7711551878799958,0.006777408637901772
1.7721518987341771,-2.9932225913620982
1.7731486095883582,-2.9932225913620982
1.7741453204425395,-4.993222591362098
1.7751420312967208,-1.9932225913620982
1.7761387421509018,-2.9932225913620982
1.7771354530050831,-4.993222591362098
1.7781321638592642,-7.993222591362098
1.7791288747134455,-2.9932225913620982
1.7801255855676266,-1.9932225913620982
1.7811222964218079,-1.9932225913620982
1.7821190072759892,1.0067774086379018
1.7831157181301702,-0.9932225913620982
1.7841124289843515,0.006777408637901772
1.7851091398385326,4.006777408637902
1.7861058506927139,3.0067774086379018
1.7871025615468952,5.006777408637902
1.7880992724010762,5.006777408637902
1.7890959832552575,5.006777408637902
1.7900926941094386,4.006777408637902
1.79108940496362,2.0067774086379018
1.7920861158178012,3.0067774086379018
1.7930828266719823,1.0067774086379018
1.7940795375261636,-4.993222591362098
1.7950762483803446,-3.9932225913620982
1.796072959234526,-4.993222591362098
1.797069670088707,-3.9932225913620982
1.7980663809428883,-4.993222591362098
1.7990630917970696,-5.993222591362098
1.8000598026512507,-4.993222591362098
1.801056513505432,-3.9932225913620982
1.802053224359613,-3.9932225913620982
1.8030499352137943,-1.9932225913620982
1.8040466460679756,0.006777408637901772
1.8050433569221567,6.006777408637902
1.806040067776338,4.006777408637902
1.807036778630519,5.006777408637902
1.8080334894847003,7.006777408637902
1.8090302003388816,8.006777408637902
1.8100269111930627,5.006777408637902
1.811023622047244,4.006777408637902
1.812020332901425,5.006777408637902
1.8130170437556064,1.0067774086379018
1.8140137546097876,-3.9932225913620982
1.8150104654639687,-2.9932225913620982
1.81600717631815,-5.993222591362098
1.817003887172331,-3.9932225913620982
1.8180005980265124,-6.993222591362098
1.8189973088806934,-6.993222591362098
1.8199940197348747,-6.993222591362098
1.820990730589056,-4.993222591362098
1.821987441443237,-2.9932225913620982
1.8229841522974184,1.0067774086379018
1.8239808631515995,3.0067774086379018
1.8249775740057808,4.006777408637902
1.825974284859962,4.006777408637902
1.8269709957141431,6.006777408637902
1.8279677065683244,8.006777408637902
1.8289644174225055,7.006777408637902
1.8299611282766868,3.0067774086379018
1.830957839130868,4.006777408637902
1.8319545499850491,4.006777408637902
1.8329512608392304,0.006777408637901772
1.8339479716934115,4.006777408637902
1.8349446825475928,-0.9932225913620982
1.8359413934017739,0.006777408637901772
1.8369381042559552,-4.993222591362098
1.8379348151101365,-7.993222591362098
1.8389315259643175,-6.993222591362098
1.8399282368184988,-2.9932225913620982
1.84092494767268,-3.9932225913620982
1.8419216585268612,-2.9932225913620982
1.8429183693810425,-1.9932225913620982
1.8439150802352235,3.0067774086379018
1.8449117910894048,4.006777408637902
1.845908501943586,5.006777408637902
1.8469052127977672,7.006777408637902
1.8479019236519485,6.006777408637902
1.8488986345061296,8.006777408637902
1.8498953453603109,5.006777408637902
1.850892056214492,4.006777408637902
1.8518887670686732,4.006777408637902
1.8528854779228545,2.0067774086379018
1.8538821887770356,0.006777408637901772
1.8548788996312169,-4.993222591362098
1.855875610485398,-4.993222591362098
1.8568723213395792,-7.993222591362098
1.8578690321937603,-1.9932225913620982
1.8588657430479416,-6.993222591362098
1.859862453902123,-3.9932225913620982
1.860859164756304,-2.9932225913620982
1.8618558756104853,-1.9932225913620982
1.8628525864646663,-0.9932225913620982
1.8638492973188476,5.006777408637902
1.864846008173029,2.0067774086379018
1.86584271902721,2.0067774086379018
1.8668394298813913,5.006777408637902
1.8678361407355724,6.006777408637902
1.8688328515897537,5.006777408637902
1.869829562443935,4.006777408637902
1.870826273298116,4.006777408637902
1.8718229841522973,-1.9932225913620982
1.8728196950064784,-1.9932225913620982
1.8738164058606597,-2.9932225913620982
1.8748131167148407,-3.9932225913620982
1.875809827569022,-3.9932225913620982
1.8768065384232033,-6.993222591362098
1.8778032492773844,-4.993222591362098
1.8787999601315657,-2.9932225913620982
1.8797966709857468,-4.993222591362098
1.880793381839928,-1.9932225913620982
1.8817900926941094,1.0067774086379018
1.8827868035482904,0.006777408637901772
1.8837835144024717,1.0067774086379018
1.8847802252566528,0.006777408637901772
1.885776936110834,3.0067774086379018
1.8867736469650154,5.006777408637902
1.8877703578191964,5.006777408637902
1.8887670686733777,4.006777408637902
1.8897637795275588,4.006777408637902
1.89076049038174,5.006777408637902
1.8917572012359214,3.0067774086379018
1.8927539120901025,-1.9932225913620982
1.8937506229442838,0.006777408637901772
1.8947473337984648,-1.9932225913620982
1.8957440446526461,-4.993222591362098
1.8967407555068272,-2.9932225913620982
1.8977374663610085,-3.9932225913620982
1.8987341772151898,-3.9932225913620982
1.8997308880693708,-6.993222591362098
1.9007275989235521,-4.993222591362098
1.9017243097777332,-2.9932225913620982
1.9027210206319145,-1.9932225913620982
1.9037177314860958,2.0067774086379018
1.9047144423402769,4.006777408637902
1.9057111531944582,2.0067774086379018
1.9067078640486392,6.006777408637902
1.9077045749028205,7.006777408637902
1.9087012857570018,7.006777408637902
1.909697996611183,4.006777408637902
1.9106947074653642,3.0067774086379018
1.9116914183195453,2.0067774086379018
1.9126881291737265,3.0067774086379018
1.9136848400279076,1.0067774086379018
1.914681550882089,-7.993222591362098
1.9156782617362702,-4.993222591362098
1.9166749725904513,-4.993222591362098
1.9176716834446326,-7.993222591362098
1.9186683942988136,-7.993222591362098
1.919665105152995,-3.9932225913620982
1.9206618160071762,-4.993222591362098
1.9216585268613573,-2.9932225913620982
1.9226552377155386,-3.9932225913620982
1.9236519485697197,1.0067774086379018
1.924648659423901,1.0067774086379018
1.9256453702780822,4.006777408637902
1.9266420811322633,9.006777408637902
1.9276387919864446,6.006777408637902
1.9286355028406257,3.0067774086379018
1.929632213694807,7.006777408637902
1.9306289245489883,2.0067774086379018
1.9316256354031693,2.0067774086379018
1.9326223462573506,-0.9932225913620982
1.9336190571115317,-2.9932225913620982
1.934615767965713,-0.9932225913620982
1.935612478819894,-2.9932225913620982
1.9366091896740754,-2.9932225913620982
1.9376059005282567,-7.993222591362098
1.9386026113824377,-9.993222591362098
1.939599322236619,-6.993222591362098
1.9405960330908,-0.9932225913620982
1.9415927439449814,0.006777408637901772
1.9425894547991627,1.0067774086379018
1.9435861656533437,1.0067774086379018
1.944582876507525,2.0067774086379018
1.945579587361706,5.006777408637902
1.9465762982158874,8.006777408637902
1.9475730090700687,11.006777408637902
1.9485697199242498,5.006777408637902
1.949566430778431,8.006777408637902
1.9505631416326121,4.006777408637902
1.9515598524867934,2.0067774086379018
1.9525565633409747,1.0067774086379018
1.9535532741951558,0.006777408637901772
1.954549985049337,-4.993222591362098
1.9555466959035182,-3.9932225913620982
1.9565434067576994,-6.993222591362098
1.9575401176118805,-6.993222591362098
1.9585368284660618,-9.993222591362098
1.959533539320243,-6.993222591362098
1.9605302501744242,-2.9932225913620982
1.9615269610286055,2.0067774086379018
1.9625236718827865,0.006777408637901772
1.9635203827369678,3.0067774086379018
1.9645170935911491,5.006777408637902
1.9655138044453302,6.006777408637902
1.9665105152995115,10.006777408637902
1.9675072261536926,6.006777408637902
1.9685039370078738,6.006777408637902
1.9695006478620551,6.006777408637902
1.9704973587162362,3.0067774086379018
1.9714940695704175,4.006777408637902
1.9724907804245986,1.0067774086379018
1.9734874912787799,-1.9932225913620982
1.974484202132961,-6.993222591362098
1.9754809129871422,-3.9932225913620982
1.9764776238413235,-7.993222591362098
1.9774743346955046,-3.9932225913620982
1.978471045549686,-5.993222591362098
1.979467756403867,-1.9932225913620982
1.9804644672580483,-3.9932225913620982
1.9814611781122295,0.006777408637901772
1.9824578889664106,1.0067774086379018
1.983454599820592,3.0067774086379018
1.984451310674773,3.0067774086379018
1.9854480215289543,5.006777408637902
1.9864447323831356,5.006777408637902
1.9874414432373166,5.006777408637902
1.988438154091498,5.006777408637902
1.989434864945679,3.0067774086379018
1.9904315757998603,0.006777408637901772
1.9914282866540416,0.006777408637901772
1.9924249975082227,1.0067774086379018
1.993421708362404,0.006777408637901772
1.994418419216585,-3.9932225913620982
1.9954151300707663,-4.993222591362098
1.9964118409249474,-2.9932225913620982
1.9974085517791287,-7.993222591362098
1.99840526263331,-2.9932225913620982
1.999401973487491,-3.9932225913620982
2.0003986843416723,-2.9932225913620982
2.0013953951958534,-1.9932225913620982
2.0023921060500345,-1.9932225913620982
2.003388816904216,1.0067774086379018
2.004385527758397,2.0067774086379018
2.005382238612578,6.006777408637902
2.0063789494667597,7.006777408637902
2.0073756603209407,4.006777408637902
2.008372371175122,4.006777408637902
2.0093690820293033,4.006777408637902
2.0103657928834844,5.006777408637902
2.0113625037376655,5.006777408637902
2.0123592145918465,1.0067774086379018
2.013355925446028,-2.9932225913620982
2.014352636300209,-5.993222591362098
2.01534934715439,-3.9932225913620982
2.0163460580085717,-2.9932225913620982
2.0173427688627528,-4.993222591362098
2.018339479716934,-4.993222591362098
2.0193361905711154,-5.993222591362098
2.0203329014252964,-2.9932225913620982
2.0213296122794775,-2.9932225913620982
2.0223263231336586,-2.9932225913620982
2.02332303398784,1.0067774086379018
2.024319744842021,2.0067774086379018
2.0253164556962022,3.0067774086379018
2.0263131665503837,7.006777408637902
2.027309877404565,5.006777408637902
2.028306588258746,4.006777408637902
2.029303299112927,4.006777408637902
2.0303000099671085,5.006777408637902
2.0312967208212895,4.006777408637902
2.0322934316754706,3.0067774086379018
2.033290142529652,0.006777408637901772
2.034286853383833,-5.993222591362098
2.0352835642380143,-4.993222591362098
2.036280275092196,-8.993222591362098
2.037276985946377,-6.993222591362098
2.038273696800558,-9.993222591362098
2.039270407654739,-4.993222591362098
2.0402671185089205,-3.9932225913620982
2.0412638293631016,-2.9932225913620982
2.0422605402172826,-0.9932225913620982
2.043257251071464,2.0067774086379018
2.0442539619256452,2.0067774086379018
2.0452506727798263,4.006777408637902
2.0462473836340074,7.006777408637902
2.047244094488189,5.006777408637902
2.04824080534237,4.006777408637902
2.049237516196551,4.006777408637902
2.0502342270507325,5.006777408637902
2.0512309379049136,3.0067774086379018
2.0522276487590947,0.006777408637901772
2.053224359613276,-2.9932225913620982
2.0542210704674573,-2.9932225913620982
2.0552177813216383,-2.9932225913620982
2.0562144921758194,-2.9932225913620982
2.057211203030001,-6.993222591362098
2.058207913884182,-5.993222591362098
2.059204624738363,-3.9932225913620982
2.0602013355925446,-3.9932225913620982
2.0611980464467257,-0.9932225913620982
2.0621947573009067,-2.9932225913620982
2.063191468155088,5.006777408637902
2.0641881790092693,1.0067774086379018
2.0651848898634504,3.0067774086379018
2.0661816007176315,4.006777408637902
2.067178311571813,3.0067774086379018
2.068175022425994,5.006777408637902
2.069171733280175,6.006777408637902
2.0701684441343566,5.006777408637902
2.0711651549885377,4.006777408637902
2.0721618658427188,2.0067774086379018
2.0731585766969,4.006777408637902
2.0741552875510814,-0.9932225913620982
2.0751519984052624,-3.9932225913620982
2.0761487092594435,-4.993222591362098
2.077145420113625,-6.993222591362098
2.078142130967806,-6.993222591362098
2.079138841821987,-3.9932225913620982
2.0801355526761687,-5.993222591362098
2.0811322635303497,-2.9932225913620982
2.082128974384531,0.006777408637901772
2.083125685238712,4.006777408637902
2.0841223960928934,3.0067774086379018
2.0851191069470745,3.0067774086379018
2.0861158178012555,5.006777408637902
2.087112528655437,5.006777408637902
2.088109239509618,6.006777408637902
2.089105950363799,4.006777408637902
2.0901026612179803,1.0067774086379018
2.091099372072162,1.0067774086379018
2.092096082926343,1.0067774086379018
2.093092793780524,1.0067774086379018
2.0940895046347054,-2.9932225913620982
2.0950862154888865,-1.9932225913620982
2.0960829263430676,-3.9932225913620982
2.097079637197249,-5.993222591362098
2.09807634805143,-4.993222591362098
2.0990730589056112,-3.9932225913620982
2.1000697697597923,0.006777408637901772
2.101066480613974,-1.9932225913620982
2.102063191468155,-1.9932225913620982
2.103059902322336,2.0067774086379018
2.1040566131765175,2.0067774086379018
2.1050533240306986,4.006777408637902
2.1060500348848796,6.006777408637902
2.1070467457390607,5.006777408637902
2.108043456593242,4.006777408637902
2.1090401674474233,5.006777408637902
2.1100368783016044,3.0067774086379018
2.111033589155786,3.0067774086379018
2.112030300009967,1.0067774086379018
2.113027010864148,-0.9932225913620982
2.1140237217183295,-2.9932225913620982
2.1150204325725106,-1.9932225913620982
2.1160171434266917,-2.9932225913620982
2.1170138542808727,-6.993222591362098
2.1180105651350543,-6.993222591362098
2.1190072759892353,-5.993222591362098
2.1200039868434164,-2.9932225913620982
2.121000697697598,1.0067774086379018
2.121997408551779,-0.9932225913620982
2.12299411940596,2.0067774086379018
2.123990830260141,1.0067774086379018
2.1249875411143226,2.0067774086379018
2.1259842519685037,6.006777408637902
2.126980962822685,5.006777408637902
2.1279776736768663,6.006777408637902
2.1289743845310474,4.006777408637902
2.1299710953852284,4.006777408637902
2.13096780623941,2.0067774086379018
2.131964517093591,1.0067774086379018
2.132961227947772,-1.9932225913620982
2.133957938801953,-2.9932225913620982
2.1349546496561347,-6.993222591362098
2.1359513605103158,-6.993222591362098
2.136948071364497,-7.993222591362098
2.1379447822186783,-4.993222591362098
2.1389414930728594,-4.993222591362098
2.1399382039270405,-1.9932225913620982
2.1409349147812216,0.006777408637901772
2.141931625635403,2.0067774086379018
2.142928336489584,4.006777408637902
2.143925047343765,1.0067774086379018
2.1449217581979467,3.0067774086379018
2.145918469052128,5.006777408637902
2.146915179906309,3.0067774086379018
2.1479118907604904,6.006777408637902
2.1489086016146715,5.006777408637902
2.1499053124688525,4.006777408637902
2.1509020233230336,5.006777408637902
2.151898734177215,1.0067774086379018
2.152895445031396,-5.993222591362098
2.1538921558855773,-2.9932225913620982
2.1548888667397588,-4.993222591362098
2.15588557759394,-6.993222591362098
2.156882288448121,-7.993222591362098
2.1578789993023024,-5.993222591362098
2.1588757101564835,-6.993222591362098
2.1598724210106646,-1.9932225913620982
2.1608691318648456,1.0067774086379018
2.161865842719027,-2.9932225913620982
2.1628625535732082,4.006777408637902
2.1638592644273893,3.0067774086379018
2.164855975281571,4.006777408637902
2.165852686135752,5.006777408637902
2.166849396989933,6.006777408637902
2.167846107844114,4.006777408637902
2.1688428186982955,4.006777408637902
2.1698395295524766,1.0067774086379018
2.1708362404066577,1.0067774086379018
2.171832951260839,-3.9932225913620982
2.1728296621150203,-1.9932225913620982
2.1738263729692013,-1.9932225913620982
2.174823083823383,-2.9932225913620982
2.175819794677564,-3.9932225913620982
2.176816505531745,-4.993222591362098
2.177813216385926,-5.993222591362098
2.1788099272401076,-3.9932225913620982
2.1798066380942887,-3.9932225913620982
2.1808033489484697,-0.9932225913620982
2.1818000598026512,2.0067774086379018
2.1827967706568323,6.006777408637902
2.1837934815110134,1.0067774086379018
2.1847901923651945,4.006777408637902
2.185786903219376,4.006777408637902
2.186783614073557,5.006777408637902
2.187780324927738,5.006777408637902
2.1887770357819196,3.0067774086379018
2.1897737466361007,1.0067774086379018
2.1907704574902818,0.006777408637901772
2.1917671683444633,-0.9932225913620982
2.1927638791986444,1.0067774086379018
2.1937605900528254,-3.9932225913620982
2.1947573009070065,-4.993222591362098
2.195754011761188,-3.9932225913620982
2.196750722615369,-7.993222591362098
2.19774743346955,-2.9932225913620982
2.1987441443237317,-4.993222591362098
2.1997408551779127,1.0067774086379018
2.200737566032094,3.0067774086379018
2.201734276886275,4.006777408637902
2.2027309877404564,6.006777408637902
2.2037276985946375,3.0067774086379018
2.2047244094488185,4.006777408637902
2.205721120303,4.006777408637902
2.206717831157181,4.006777408637902
2.207714542011362,4.006777408637902
2.2087112528655437,4.006777408637902
2.2097079637197248,2.0067774086379018
2.210704674573906,1.0067774086379018
2.211701385428087,-0.9932225913620982
2.2126980962822684,1.0067774086379018
2.2136948071364495,-3.9932225913620982
2.2146915179906306,-2.9932225913620982
2.215688228844812,-3.9932225913620982
2.216684939698993,-2.9932225913620982
2.2176816505531742,-3.9932225913620982
2.2186783614073553,-3.9932225913620982
2.219675072261537,-2.9932225913620982
2.220671783115718,3.0067774086379018
2.221668493969899,1.0067774086379018
2.2226652048240805,1.0067774086379018
2.2236619156782615,4.006777408637902
2.2246586265324426,1.0067774086379018
2.225655337386624,4.006777408637902
2.226652048240805,4.006777408637902
2.2276487590949863,4.006777408637902
2.2286454699491673,4.006777408637902
2.229642180803349,2.0067774086379018
2.23063889165753,3.0067774086379018
2.231635602511711,0.006777408637901772
2.2326323133658925,-4.993222591362098
2.2336290242200736,-2.9932225913620982
2.2346257350742547,-0.9932225913620982
2.235622445928436,-3.9932225913620982
2.2366191567826172,-6.993222591362098
2.2376158676367983,-4.993222591362098
2.2386125784909794,-2.9932225913620982
2.239609289345161,-2.9932225913620982
2.240606000199342,-0.9932225913620982
2.241602711053523,1.0067774086379018
2.2425994219077046,3.0067774086379018
2.2435961327618856,5.006777408637902
2.2445928436160667,2.0067774086379018
2.2455895544702478,3.0067774086379018
2.2465862653244293,5.006777408637902
2.2475829761786104,7.006777408637902
2.2485796870327914,4.006777408637902
2.249576397886973,1.0067774086379018
2.250573108741154,2.0067774086379018
2.251569819595335,0.006777408637901772
2.2525665304495166,-0.9932225913620982
2.2535632413036977,-5.993222591362098
2.2545599521578787,-5.993222591362098
2.25555666301206,-5.993222591362098
2.2565533738662413,-6.993222591362098
2.2575500847204224,-3.9932225913620982
2.2585467955746035,-4.993222591362098
2.259543506428785,-1.9932225913620982
2.260540217282966,1.0067774086379018
2.261536928137147,-0.9932225913620982
2.262533638991328,4.006777408637902
2.2635303498455097,4.006777408637902
2.264527060699691,4.006777408637902
2.265523771553872,6.006777408637902
2.2665204824080534,6.006777408637902
2.2675171932622344,5.006777408637902
2.2685139041164155,1.0067774086379018
2.269510614970597,1.0067774086379018
2.270507325824778,1.0067774086379018
2.271504036678959,-1.9932225913620982
2.2725007475331402,-1.9932225913620982
2.2734974583873218,-2.9932225913620982
2.274494169241503,-3.9932225913620982
2.275490880095684,-3.9932225913620982
2.2764875909498654,-3.9932225913620982
2.2774843018040465,-3.9932225913620982
2.2784810126582276,-2.9932225913620982
2.2794777235124086,-1.9932225913620982
2.28047443436659,1.0067774086379018
2.281471145220771,1.0067774086379018
2.2824678560749523,0.006777408637901772
2.283464566929134,3.0067774086379018
2.284461277783315,3.0067774086379018
2.285457988637496,6.006777408637902
2.2864546994916775,5.006777408637902
2.2874514103458585,5.006777408637902
2.2884481212000396,2.0067774086379018
2.2894448320542207,2.0067774086379018
2.290441542908402,1.0067774086379018
2.2914382537625833,-0.9932225913620982
2.2924349646167643,-2.9932225913620982
2.293431675470946,-3.9932225913620982
2.294428386325127,-2.9932225913620982
2.295425097179308,-2.9932225913620982
2.2964218080334895,-6.993222591362098
2.2974185188876706,-6.993222591362098
2.2984152297418516,-1.9932225913620982
2.2994119405960327,-4.993222591362098
2.3004086514502142,-2.9932225913620982
2.3014053623043953,1.0067774086379018
2.3024020731585764,5.006777408637902
2.303398784012758,5.006777408637902
2.304395494866939,1.0067774086379018
2.30539220572112,5.006777408637902
2.306388916575301,4.006777408637902
2.3073856274294826,3.0067774086379018
2.3083823382836637,4.006777408637902
2.3093790491378448,1.0067774086379018
2.3103757599920263,3.0067774086379018
2.3113724708462073,-0.9932225913620982
2.3123691817003884,-1.9932225913620982
2.31336589255457,-1.9932225913620982
2.314362603408751,-2.9932225913620982
2.315359314262932,-3.9932225913620982
2.316356025117113,-4.993222591362098
2.3173527359712947,-7.993222591362098
2.3183494468254757,-4.993222591362098
2.319346157679657,-1.9932225913620982
2.3203428685338383,2.0067774086379018
2.3213395793880194,0.006777408637901772
2.3223362902422005,2.0067774086379018
2.3233330010963815,5.006777408637902
2.324329711950563,3.0067774086379018
2.325326422804744,4.006777408637902
2.326323133658925,3.0067774086379018
2.3273198445131067,5.006777408637902
2.3283165553672878,4.006777408637902
2.329313266221469,4.006777408637902
2.3303099770756504,4.006777408637902
2.3313066879298314,-0.9932225913620982
2.3323033987840125,-4.993222591362098
2.3333001096381936,-3.9932225913620982
2.334296820492375,-4.993222591362098
2.335293531346556,-3.9932225913620982
2.336290242200737,-6.993222591362098
2.3372869530549187,-3.9932225913620982
2.3382836639091,-0.9932225913620982
2.339280374763281,0.006777408637901772
2.340277085617462,-2.9932225913620982
2.3412737964716435,1.0067774086379018
2.3422705073258245,0.006777408637901772
2.3432672181800056,1.0067774086379018
2.344263929034187,3.0067774086379018
2.345260639888368,6.006777408637902
2.3462573507425493,6.006777408637902
2.347254061596731,5.006777408637902
2.348250772450912,3.0067774086379018
2.349247483305093,4.006777408637902
2.350244194159274,3.0067774086379018
2.3512409050134555,0.006777408637901772
2.3522376158676366,-0.9932225913620982
2.3532343267218176,-4.993222591362098
2.354231037575999,-5.993222591362098
2.3552277484301802,-3.9932225913620982
2.3562244592843613,-6.993222591362098
2.3572211701385424,-6.993222591362098
2.358217880992724,-5.993222591362098
2.359214591846905,-5.993222591362098
2.360211302701086,0.006777408637901772
2.3612080135552675,1.0067774086379018
2.3622047244094486,4.006777408637902
2.3632014352636297,2.0067774086379018
2.364198146117811,2.0067774086379018
2.3651948569719923,8.006777408637902
2.3661915678261733,4.006777408637902
2.3671882786803544,5.006777408637902
2.368184989534536,4.006777408637902
2.369181700388717,3.0067774086379018
2.370178411242898,3.0067774086379018
2.3711751220970796,-1.9932225913620982
2.3721718329512607,-3.9932225913620982
2.3731685438054417,-2.9932225913620982
2.3741652546596232,-3.9932225913620982
2.3751619655138043,-2.9932225913620982
2.3761586763679854,-6.993222591362098
2.3771553872221665,-5.993222591362098
2.378152098076348,-3.9932225913620982
2.379148808930529,-1.9932225913620982
2.38014551978471,1.0067774086379018
2.3811422306388916,-1.9932225913620982
2.3821389414930727,2.0067774086379018
2.3831356523472538,2.0067774086379018
2.384132363201435,3.0067774086379018
2.3851290740556164,5.006777408637902
2.3861257849097974,4.006777408637902
2.3871224957639785,3.0067774086379018
2.38811920661816,1.0067774086379018
2.389115917472341,3.0067774086379018
2.390112628326522,0.006777408637901772
2.3911093391807037,-1.9932225913620982
2.3921060500348847,-2.9932225913620982
2.393102760889066,-2.9932225913620982
2.394099471743247,-2.9932225913620982
2.3950961825974284,-2.9932225913620982
2.3960928934516095,-2.9932225913620982
2.3970896043057905,-4.993222591362098
2.398086315159972,-2.9932225913620982
2.399083026014153,-1.9932225913620982
2.400079736868334,-2.9932225913620982
2.4010764477225153,0.006777408637901772
2.402073158576697,3.0067774086379018
2.403069869430878,2.0067774086379018
2.404066580285059,6.006777408637902
2.4050632911392404,6.006777408637902
2.4060600019934215,6.006777408637902
2.4070567128476026,5.006777408637902
2.408053423701784,4.006777408637902
2.409050134555965,2.0067774086379018
2.4100468454101462,2.0067774086379018
2.4110435562643273,2.0067774086379018
2.412040267118509,-2.9932225913620982
2.41303697797269,-3.9932225913620982
2.414033688826871,0.006777408637901772
2.4150303996810525,-4.993222591362098
2.4160271105352336,-5.993222591362098
2.4170238213894146,-7.993222591362098
2.4180205322435957,-5.993222591362098
2.419017243097777,-3.9932225913620982
2.4200139539519583,-1.9932225913620982
2.4210106648061394,-0.9932225913620982
2.422007375660321,4.006777408637902
2.423004086514502,5.006777408637902
2.424000797368683,4.006777408637902
2.4249975082228645,6.006777408637902
2.4259942190770456,7.006777408637902
2.4269909299312267,6.006777408637902
2.4279876407854077,4.006777408637902
2.4289843516395893,4.006777408637902
2.4299810624937703,3.0067774086379018
2.4309777733479514,0.006777408637901772
2.431974484202133,-4.993222591362098
2.432971195056314,-3.9932225913620982
2.433967905910495,-3.9932225913620982
2.434964616764676,-5.993222591362098
2.4359613276188576,-5.993222591362098
2.4369580384730387,-4.993222591362098
2.43795474932722,-4.993222591362098
2.4389514601814013,-5.993222591362098
2.4399481710355824,-0.9932225913620982
2.4409448818897634,1.0067774086379018
2.441941592743945,3.0067774086379018
2.442938303598126,3.0067774086379018
2.443935014452307,4.006777408637902
2.444931725306488,7.006777408637902
2.4459284361606697,5.006777408637902
2.4469251470148508,6.006777408637902
2.447921857869032,5.006777408637902
2.4489185687232133,3.0067774086379018
2.4499152795773944,3.0067774086379018
2.4509119904315755,0.006777408637901772
2.451908701285757,-1.9932225913620982
2.452905412139938,-3.9932225913620982
2.453902122994119,-3.9932225913620982
2.4548988338483,-4.993222591362098
2.4558955447024817,-1.9932225913620982
2.456892255556663,-4.993222591362098
2.457888966410844,-4.993222591362098
2.4588856772650254,-3.9932225913620982
2.4598823881192065,-2.9932225913620982
2.4608790989733875,0.006777408637901772
2.4618758098275686,1.0067774086379018
2.46287252068175,4.006777408637902
2.463869231535931,3.0067774086379018
2.4648659423901123,3.0067774086379018
2.4658626532442938,5.006777408637902
2.466859364098475,1.0067774086379018
2.467856074952656,5.006777408637902
2.4688527858068374,6.006777408637902
2.4698494966610185,5.006777408637902
2.4708462075151996,0.006777408637901772
2.4718429183693806,0.006777408637901772
2.472839629223562,-3.9932225913620982
2.4738363400777432,-4.993222591362098
2.4748330509319243,-5.993222591362098
2.475829761786106,-3.9932225913620982
2.476826472640287,-2.9932225913620982
2.477823183494468,-6.993222591362098
2.478819894348649,-2.9932225913620982
2.4798166052028305,-0.9932225913620982
2.4808133160570116,0.006777408637901772
2.4818100269111927,1.0067774086379018
2.482806737765374,1.0067774086379018
2.4838034486195553,4.006777408637902
2.4848001594737363,3.0067774086379018
2.485796870327918,4.006777408637902
2.486793581182099,4.006777408637902
2.48779029203628,6.006777408637902
2.488787002890461,4.006777408637902
2.4897837137446426,4.006777408637902
2.4907804245988237,1.0067774086379018
2.4917771354530047,-0.9932225913620982
2.4927738463071862,-4.993222591362098
2.4937705571613673,-3.9932225913620982
2.4947672680155484,-3.9932225913620982
2.4957639788697294,-4.993222591362098
2.496760689723911,-3.9932225913620982
2.497757400578092,-5.993222591362098
2.498754111432273,-3.9932225913620982
2.4997508222864546,-1.9932225913620982
2.5007475331406357,0.006777408637901772
2.5017442439948168,-0.9932225913620982
2.5027409548489983,3.0067774086379018
2.5037376657031793,5.006777408637902
2.5047343765573604,6.006777408637902
2.5057310874115415,5.006777408637902
2.506727798265723,6.006777408637902
2.507724509119904,3.0067774086379018
2.508721219974085,4.006777408637902
2.5097179308282667,3.0067774086379018
2.5107146416824477,1.0067774086379018
2.511711352536629,-0.9932225913620982
2.51270806339081,-2.9932225913620982
2.5137047742449914,-3.9932225913620982
2.5147014850991725,-5.993222591362098
2.5156981959533535,-6.993222591362098
2.516694906807535,-6.993222591362098
2.517691617661716,-6.993222591362098
2.518688328515897,-2.9932225913620982
2.5196850393700787,-2.9932225913620982
2.5206817502242598,-0.9932225913620982
2.521678461078441,1.0067774086379018
2.522675171932622,4.006777408637902
2.5236718827868034,3.0067774086379018
2.5246685936409845,4.006777408637902
2.5256653044951656,6.006777408637902
2.526662015349347,6.006777408637902
2.527658726203528,5.006777408637902
2.5286554370577092,3.0067774086379018
2.5296521479118907,4.006777408637902
2.530648858766072,1.0067774086379018
2.531645569620253,-0.9932225913620982
2.532642280474434,-3.9932225913620982
2.5336389913286155,0.006777408637901772
2.5346357021827965,-6.993222591362098
2.5356324130369776,-6.993222591362098
2.536629123891159,-6.993222591362098
2.53762583474534,-7.993222591362098
2.5386225455995213,-4.993222591362098
2.5396192564537023,-2.9932225913620982
2.540615967307884,-0.9932225913620982
2.541612678162065,4.006777408637902
2.542609389016246,3.0067774086379018
2.5436060998704275,6.006777408637902
2.5446028107246086,5.006777408637902
2.5455995215787897,2.0067774086379018
2.546596232432971,5.006777408637902
2.5475929432871522,5.006777408637902
2.5485896541413333,4.006777408637902
2.5495863649955144,5.006777408637902
2.550583075849696,0.006777408637901772
2.551579786703877,-1.9932225913620982
2.552576497558058,-1.9932225913620982
2.5535732084122396,-3.9932225913620982
2.5545699192664206,-5.993222591362098
2.5555666301206017,-4.993222591362098
2.5565633409747828,-7.993222591362098
2.5575600518289643,-7.993222591362098
2.5585567626831454,-3.9932225913620982
2.5595534735373264,-0.9932225913620982
2.560550184391508,1.0067774086379018
2.561546895245689,1.0067774086379018
2.56254360609987,3.0067774086379018
2.5635403169540516,5.006777408637902
2.5645370278082327,5.006777408637902
2.5655337386624137,8.006777408637902
2.566530449516595,6.006777408637902
2.5675271603707763,5.006777408637902
2.5685238712249574,5.006777408637902
2.5695205820791385,3.0067774086379018
2.57051729293332,0.006777408637901772
2.571514003787501,-0.9932225913620982
2.572510714641682,-0.9932225913620982
2.573507425495863,-2.9932225913620982
2.5745041363500447,-5.993222591362098
2.575500847204226,-7.993222591362098
2.576497558058407,-4.993222591362098
2.5774942689125884,-4.993222591362098
2.5784909797667694,-3.9932225913620982
2.5794876906209505,-2.9932225913620982
2.580484401475132,-1.9932225913620982
2.581481112329313,2.0067774086379018
2.582477823183494,2.0067774086379018
2.5834745340376752,2.0067774086379018
2.5844712448918568,6.006777408637902
2.585467955746038,4.006777408637902
2.586464666600219,9.006777408637902
2.5874613774544004,5.006777408637902
2.5884580883085815,3.0067774086379018
2.5894547991627626,0.006777408637901772
2.590451510016944,1.0067774086379018
2.591448220871125,0.006777408637901772
2.592444931725306,-2.9932225913620982
2.5934416425794873,-3.9932225913620982
2.594438353433669,-5.993222591362098
2.59543506428785,-4.993222591362098
2.596431775142031,-6.993222591362098
2.5974284859962125,-5.993222591362098
2.5984251968503935,-4.993222591362098
2.5994219077045746,-0.9932225913620982
2.6004186185587557,-1.9932225913620982
2.601415329412937,0.006777408637901772
2.6024120402671183,1.0067774086379018
2.6034087511212993,4.006777408637902
2.604405461975481,8.006777408637902
2.605402172829662,7.006777408637902
2.606398883683843,6.006777408637902
2.6073955945380245,7.006777408637902
2.6083923053922056,4.006777408637902
2.6093890162463866,4.006777408637902
2.6103857271005677,-0.9932225913620982
2.6113824379547492,1.0067774086379018
2.6123791488089303,-2.9932225913620982
2.6133758596631114,-2.9932225913620982
2.614372570517293,-4.993222591362098
2.615369281371474,-6.993222591362098
2.616365992225655,-4.993222591362098
2.617362703079836,-3.9932225913620982
2.6183594139340176,-2.9932225913620982
2.6193561247881987,0.006777408637901772
2.6203528356423798,-1.9932225913620982
2.6213495464965613,1.0067774086379018
2.6223462573507423,1.0067774086379018
2.6233429682049234,4.006777408637902
2.624339679059105,8.006777408637902
2.625336389913286,4.006777408637902
2.626333100767467,6.006777408637902
2.627329811621648,6.006777408637902
2.6283265224758297,6.006777408637902
2.6293232333300107,2.0067774086379018
2.630319944184192,-1.9932225913620982
2.6313166550383733,0.006777408637901772
2.6323133658925544,-3.9932225913620982
2.6333100767467355,-2.9932225913620982
2.6343067876009165,-4.993222591362098
2.635303498455098,-3.9932225913620982
2.636300209309279,-4.993222591362098
2.63729692016346,-7.993222591362098
2.6382936310176417,-6.993222591362098
2.6392903418718228,-2.9932225913620982
2.640287052726004,-1.9932225913620982
2.6412837635801854,4.006777408637902
2.6422804744343664,3.0067774086379018
2.6432771852885475,5.006777408637902
2.6442738961427286,6.006777408637902
2.64527060699691,6.006777408637902
2.646267317851091,6.006777408637902
2.647264028705272,4.006777408637902
2.6482607395594537,4.006777408637902
2.649257450413635,3.0067774086379018
2.650254161267816,1.0067774086379018
2.651250872121997,-2.9932225913620982
2.6522475829761785,-3.9932225913620982
2.6532442938303595,-5.993222591362098
2.6542410046845406,-7.993222591362098
2.655237715538722,-8.993222591362098
2.656234426392903,-6.993222591362098
2.6572311372470843,-0.9932225913620982
2.6582278481012658,-2.9932225913620982
2.659224558955447,-1.9932225913620982
2.660221269809628,0.006777408637901772
2.661217980663809,2.0067774086379018
2.6622146915179905,4.006777408637902
2.6632114023721716,4.006777408637902
2.6642081132263526,8.006777408637902
2.665204824080534,6.006777408637902
2.6662015349347152,5.006777408637902
2.6671982457888963,4.006777408637902
2.668194956643078,5.006777408637902
2.669191667497259,1.0067774086379018
2.67018837835144,-0.9932225913620982
2.671185089205621,-1.9932225913620982
2.6721818000598025,-1.9932225913620982
2.6731785109139836,-2.9932225913620982
2.6741752217681647,-7.993222591362098
2.675171932622346,-7.993222591362098
2.6761686434765273,-7.993222591362098
2.6771653543307083,-2.9932225913620982
2.6781620651848894,-1.9932225913620982
2.679158776039071,0.006777408637901772
2.680155486893252,0.006777408637901772
2.681152197747433,1.0067774086379018
2.6821489086016146,4.006777408637902
2.6831456194557957,4.006777408637902
2.6841423303099767,4.006777408637902
2.6851390411641582,8.006777408637902
2.6861357520183393,7.006777408637902
2.6871324628725204,7.006777408637902
2.6881291737267015,3.0067774086379018
2.689125884580883,4.006777408637902
2.690122595435064,0.006777408637901772
2.691119306289245,-1.9932225913620982
2.6921160171434266,-2.9932225913620982
2.6931127279976077,-6.993222591362098
2.6941094388517888,-5.993222591362098
2.69510614970597,-4.993222591362098
2.6961028605601514,-4.993222591362098
2.6970995714143324,-3.9932225913620982
2.6980962822685135,-1.9932225913620982
2.699092993122695,-1.9932225913620982
2.700089703976876,-3.9932225913620982
2.701086414831057,2.0067774086379018
2.7020831256852387,1.0067774086379018
2.7030798365394197,5.006777408637902
2.704076547393601,7.006777408637902
2.705073258247782,8.006777408637902
2.7060699691019634,3.0067774086379018
2.7070666799561445,4.006777408637902
2.7080633908103255,5.006777408637902
2.709060101664507,4.006777408637902
2.710056812518688,1.0067774086379018
2.711053523372869,-0.9932225913620982
2.7120502342270503,-1.9932225913620982
2.713046945081232,-2.9932225913620982
2.714043655935413,-4.993222591362098
2.715040366789594,-7.993222591362098
2.7160370776437754,-4.993222591362098
2.7170337884979565,-5.993222591362098
2.7180304993521376,-5.993222591362098
2.719027210206319,-2.9932225913620982
2.7200239210605,-1.9932225913620982
2.7210206319146812,1.0067774086379018
2.7220173427688623,3.0067774086379018
2.723014053623044,5.006777408637902
2.724010764477225,5.006777408637902
2.725007475331406,4.006777408637902
2.7260041861855875,5.006777408637902
2.7270008970397686,6.006777408637902
2.7279976078939496,5.006777408637902
2.7289943187481307,3.0067774086379018
2.729991029602312,2.0067774086379018
2.7309877404564933,-1.9932225913620982
2.7319844513106744,-2.9932225913620982
2.732981162164856,-2.9932225913620982
2.733977873019037,-4.993222591362098
2.734974583873218,-5.993222591362098
2.7359712947273995,-3.9932225913620982
2.7369680055815806,-4.993222591362098
2.7379647164357617,-5.993222591362098
2.7389614272899427,-1.9932225913620982
2.7399581381441243,-2.9932225913620982
2.7409548489983053,2.0067774086379018
2.7419515598524864,4.006777408637902
2.742948270706668,3.0067774086379018
2.743944981560849,4.006777408637902
2.74494169241503,6.006777408637902
2.7459384032692116,7.006777408637902
2.7469351141233926,7.006777408637902
2.7479318249775737,4.006777408637902
2.748928535831755,3.0067774086379018
2.7499252466859363,-0.9932225913620982
2.7509219575401174,-2.9932225913620982
2.7519186683942984,-4.993222591362098
2.75291537924848,-5.993222591362098
2.753912090102661,-7.993222591362098
2.754908800956842,-4.993222591362098
2.755905511811023,-4.993222591362098
2.7569022226652047,-5.993222591362098
2.7578989335193858,-3.9932225913620982
2.758895644373567,-1.9932225913620982
2.7598923552277483,3.0067774086379018
2.7608890660819294,4.006777408637902
2.7618857769361105,3.0067774086379018
2.762882487790292,4.006777408637902
2.763879198644473,7.006777408637902
2.764875909498654,5.006777408637902
2.765872620352835,4.006777408637902
2.7668693312070167,5.006777408637902
2.767866042061198,4.006777408637902
2.768862752915379,5.006777408637902
2.7698594637695604,3.0067774086379018
2.7708561746237415,0.006777408637901772
2.7718528854779225,-5.993222591362098
2.7728495963321036,-3.9932225913620982
2.773846307186285,-4.993222591362098
2.774843018040466,-6.993222591362098
2.7758397288946473,-3.9932225913620982
2.7768364397488288,-7.993222591362098
2.77783315060301,-3.9932225913620982
2.778829861457191,-3.9932225913620982
2.7798265723113724,-0.9932225913620982
2.7808232831655535,0.006777408637901772
2.7818199940197346,4.006777408637902
2.7828167048739156,6.006777408637902
2.783813415728097,5.006777408637902
2.7848101265822782,4.006777408637902
2.7858068374364593,5.006777408637902
2.786803548290641,6.006777408637902
2.787800259144822,2.0067774086379018
2.788796969999003,4.006777408637902
2.789793680853184,3.0067774086379018
2.7907903917073655,-1.9932225913620982
2.7917871025615466,-4.993222591362098
2.7927838134157277,-2.9932225913620982
2.793780524269909,-5.993222591362098
2.7947772351240903,-7.993222591362098
2.7957739459782713,-4.993222591362098
2.796770656832453,-3.9932225913620982
2.797767367686634,-1.9932225913620982
2.798764078540815,-1.9932225913620982
2.799760789394996,-1.9932225913620982
2.8007575002491776,1.0067774086379018
2.8017542111033586,4.006777408637902
2.8027509219575397,5.006777408637902
2.8037476328117212,6.006777408637902
2.8047443436659023,6.006777408637902
2.8057410545200834,4.006777408637902
2.8067377653742644,5.006777408637902
2.807734476228446,3.0067774086379018
2.808731187082627,2.0067774086379018
2.809727897936808,0.006777408637901772
2.8107246087909896,-3.9932225913620982
2.8117213196451707,-2.9932225913620982
2.8127180304993518,-3.9932225913620982
2.8137147413535333,-6.993222591362098
2.8147114522077143,-8.993222591362098
2.8157081630618954,-6.993222591362098
2.8167048739160765,-2.9932225913620982
2.817701584770258,0.006777408637901772
2.818698295624439,0.006777408637901772
2.81969500647862,2.0067774086379018
2.8206917173328017,3.0067774086379018
2.8216884281869827,2.0067774086379018
2.822685139041164,4.006777408637902
2.8236818498953453,3.0067774086379018
2.8246785607495264,4.006777408637902
2.8256752716037075,4.006777408637902
2.8266719824578885,5.006777408637902
2.82766869331207,6.006777408637902
2.828665404166251,2.0067774086379018
2.829662115020432,0.006777408637901772
2.8306588258746137,1.0067774086379018
2.8316555367287948,-3.9932225913620982
2.832652247582976,-3.9932225913620982
2.833648958437157,-2.9932225913620982
2.8346456692913384,-5.993222591362098
2.8356423801455195,-3.9932225913620982
2.8366390909997006,-5.993222591362098
2.837635801853882,-1.9932225913620982
2.838632512708063,-2.9932225913620982
2.8396292235622442,-0.9932225913620982
2.8406259344164257,2.0067774086379018
2.841622645270607,2.0067774086379018
2.842619356124788,5.006777408637902
2.843616066978969,5.006777408637902
2.8446127778331505,6.006777408637902
2.8456094886873315,5.006777408637902
2.8466061995415126,3.0067774086379018
2.847602910395694,3.0067774086379018
2.848599621249875,1.0067774086379018
2.8495963321040563,-1.9932225913620982
2.8505930429582373,-3.9932225913620982
2.851589753812419,0.006777408637901772
2.8525864646666,-2.9932225913620982
2.853583175520781,-4.993222591362098
2.8545798863749625,-4.993222591362098
2.8555765972291436,-5.993222591362098
2.8565733080833247,-4.993222591362098
2.857570018937506,-2.9932225913620982
2.8585667297916872,-2.9932225913620982
2.8595634406458683,1.0067774086379018
2.8605601515000494,4.006777408637902
2.861556862354231,0.006777408637901772
2.862553573208412,4.006777408637902
2.863550284062593,5.006777408637902
2.8645469949167746,4.006777408637902
2.8655437057709556,3.0067774086379018
2.8665404166251367,6.006777408637902
2.8675371274793178,4.006777408637902
2.8685338383334993,2.0067774086379018
2.8695305491876804,0.006777408637901772
2.8705272600418614,-2.9932225913620982
2.871523970896043,-2.9932225913620982
2.872520681750224,-2.9932225913620982
2.873517392604405,-4.993222591362098
2.8745141034585866,-6.993222591362098
2.8755108143127677,-5.993222591362098
2.8765075251669487,-1.9932225913620982
2.87750423602113,-1.9932225913620982
2.8785009468753113,0.006777408637901772
2.8794976577294924,1.0067774086379018
2.8804943685836735,1.0067774086379018
2.881491079437855,1.0067774086379018
2.882487790292036,4.006777408637902
2.883484501146217,8.006777408637902
2.8844812120003986,4.006777408637902
2.8854779228545797,4.006777408637902
2.886474633708761,3.0067774086379018
2.887471344562942,3.0067774086379018
2.8884680554171234,1.0067774086379018
2.8894647662713044,-1.9932225913620982
2.8904614771254855,0.006777408637901772
2.891458187979667,-3.9932225913620982
2.892454898833848,-1.9932225913620982
2.893451609688029,-4.993222591362098
2.8944483205422102,-5.993222591362098
2.8954450313963918,-6.993222591362098
2.896441742250573,-3.9932225913620982
2.897438453104754,-0.9932225913620982
2.8984351639589354,0.006777408637901772
2.8994318748131165,0.006777408637901772
2.9004285856672976,3.0067774086379018
2.901425296521479,3.0067774086379018
2.90242200737566,1.0067774086379018
2.903418718229841,4.006777408637902
2.9044154290840223,6.006777408637902
2.905412139938204,7.006777408637902
2.906408850792385,4.006777408637902
2.907405561646566,3.0067774086379018
2.9084022725007475,2.0067774086379018
2.9093989833549285,1.0067774086379018
2.9103956942091096,-1.9932225913620982
2.9113924050632907,-2.9932225913620982
2.912389115917472,-3.9932225913620982
2.9133858267716533,-4.993222591362098
2.9143825376258343,-5.993222591362098
2.915379248480016,-5.993222591362098
2.916375959334197,-4.993222591362098
2.917372670188378,-1.9932225913620982
2.9183693810425595,-1.9932225913620982
2.9193660918967406,1.0067774086379018
2.9203628027509216,3.0067774086379018
2.9213595136051027,2.0067774086379018
2.9223562244592842,6.006777408637902
2.9233529353134653,8.006777408637902
2.9243496461676464,3.0067774086379018
2.925346357021828,5.006777408637902
2.926343067876009,4.006777408637902
2.92733977873019,2.0067774086379018
2.928336489584371,3.0067774086379018
2.9293332004385526,1.0067774086379018
2.9303299112927337,-1.9932225913620982
2.9313266221469148,-1.9932225913620982
2.9323233330010963,-4.993222591362098
2.9333200438552773,-3.9932225913620982
2.9343167547094584,-5.993222591362098
2.93531346556364,-3.9932225913620982
2.936310176417821,-4.993222591362098
2.937306887272002,-2.9932225913620982
2.938303598126183,0.006777408637901772
2.9393003089803647,0.006777408637901772
2.9402970198345457,2.0067774086379018
2.941293730688727,1.0067774086379018
2.9422904415429083,5.006777408637902
2.9432871523970894,6.006777408637902
2.9442838632512704,5.006777408637902
2.9452805741054515,3.0067774086379018
2.946277284959633,3.0067774086379018
2.947273995813814,2.0067774086379018
2.948270706667995,2.0067774086379018
2.9492674175221767,-2.9932225913620982
2.9502641283763578,-0.9932225913620982
2.951260839230539,-2.9932225913620982
2.9522575500847204,-2.9932225913620982
2.9532542609389014,-6.993222591362098
2.9542509717930825,-6.993222591362098
2.9552476826472636,-5.993222591362098
2.956244393501445,-5.993222591362098
2.957241104355626,-3.9932225913620982
2.958237815209807,-0.9932225913620982
2.9592345260639887,1.0067774086379018
2.96023123691817,1.0067774086379018
2.961227947772351,0.006777408637901772
2.9622246586265324,3.0067774086379018
2.9632213694807135,5.006777408637902
2.9642180803348945,5.006777408637902
2.9652147911890756,8.006777408637902
2.966211502043257,3.0067774086379018
2.967208212897438,2.0067774086379018
2.9682049237516193,1.0067774086379018
2.9692016346058008,-1.9932225913620982
2.970198345459982,0.006777408637901772
2.971195056314163,-2.9932225913620982
2.972191767168344,-2.9932225913620982
2.9731884780225255,-3.9932225913620982
2.9741851888767066,-3.9932225913620982
2.9751818997308876,-3.9932225913620982
2.976178610585069,-4.993222591362098
2.9771753214392502,-3.9932225913620982
2.9781720322934313,-0.9932225913620982
2.979168743147613,0.006777408637901772
2.980165454001794,1.0067774086379018
2.981162164855975,5.006777408637902
2.982158875710156,3.0067774086379018
2.9831555865643375,2.0067774086379018
2.9841522974185186,2.0067774086379018
2.9851490082726997,5.006777408637902
2.986145719126881,7.006777408637902
2.9871424299810623,2.0067774086379018
2.9881391408352433,4.006777408637902
2.9891358516894244,-2.9932225913620982
2.990132562543606,-2.9932225913620982
2.991129273397787,-2.9932225913620982
2.992125984251968,-3.9932225913620982
2.9931226951061496,-2.9932225913620982
2.9941194059603307,-4.993222591362098
2.9951161168145117,-3.9932225913620982
2.9961128276686932,-1.9932225913620982
2.9971095385228743,-1.9932225913620982
2.9981062493770554,0.006777408637901772
2.9991029602312365,3.0067774086379018
3.000099671085418,0.006777408637901772
3.001096381939599,0.006777408637901772
3.00209309279378,0.006777408637901772
3.0030898036479616,4.006777408637902
3.0040865145021427,6.006777408637902
3.0050832253563238,3.0067774086379018
3.006079936210505,3.0067774086379018
3.0070766470646864,1.0067774086379018
3.0080733579188674,2.0067774086379018
3.0090700687730485,0.006777408637901772
3.01006677962723,-1.9932225913620982
3.011063490481411,-1.9932225913620982
3.012060201335592,-2.9932225913620982
3.0130569121897737,-3.9932225913620982
3.0140536230439547,-4.993222591362098
3.015050333898136,-3.9932225913620982
3.016047044752317,-3.9932225913620982
3.0170437556064984,-3.9932225913620982
3.0180404664606795,-0.9932225913620982
3.0190371773148605,0.006777408637901772
3.020033888169042,3.0067774086379018
3.021030599023223,4.006777408637902
3.022027309877404,3.0067774086379018
3.0230240207315853,5.006777408637902
3.024020731585767,3.0067774086379018
3.025017442439948,3.0067774086379018
3.026014153294129,3.0067774086379018
3.0270108641483104,4.006777408637902
3.0280075750024915,4.006777408637902
3.0290042858566726,2.0067774086379018
3.030000996710854,-1.9932225913620982
3.030997707565035,-1.9932225913620982
3.0319944184192162,-3.9932225913620982
3.0329911292733973,-4.993222591362098
3.033987840127579,-4.993222591362098
3.03498455098176,-6.993222591362098
3.035981261835941,-6.993222591362098
3.0369779726901225,-2.9932225913620982
3.0379746835443036,0.006777408637901772
3.0389713943984846,-0.9932225913620982
3.039968105252666,2.0067774086379018
3.040964816106847,3.0067774086379018
3.0419615269610283,3.0067774086379018
3.0429582378152094,5.006777408637902
3.043954948669391,5.006777408637902
3.044951659523572,7.006777408637902
3.045948370377753,2.0067774086379018
3.0469450812319345,6.006777408637902
3.0479417920861156,1.0067774086379018
3.0489385029402967,1.0067774086379018
3.0499352137944777,-1.9932225913620982
3.0509319246486593,-0.9932225913620982
3.0519286355028403,-2.9932225913620982
3.0529253463570214,-4.993222591362098
3.053922057211203,-6.993222591362098
3.054918768065384,-8.993222591362098
3.055915478919565,-3.9932225913620982
3.0569121897737466,-1.9932225913620982
3.0579089006279276,-1.9932225913620982
3.0589056114821087,-2.9932225913620982
3.05990232233629,4.006777408637902
3.0608990331904713,3.0067774086379018
3.0618957440446524,4.006777408637902
3.0628924548988334,4.006777408637902
3.063889165753015,6.006777408637902
3.064885876607196,5.006777408637902
3.065882587461377,5.006777408637902
3.066879298315558,4.006777408637902
3.0678760091697397,4.006777408637902
3.0688727200239208,0.006777408637901772
3.069869430878102,-0.9932225913620982
3.0708661417322833,-2.9932225913620982
3.0718628525864644,-2.9932225913620982
3.0728595634406455,-3.9932225913620982
3.073856274294827,-4.993222591362098
3.074852985149008,-4.993222591362098
3.075849696003189,-2.9932225913620982
3.07684640685737,-4.993222591362098
3.0778431177115517,-0.9932225913620982
3.078839828565733,0.006777408637901772
3.079836539419914,1.0067774086379018
3.0808332502740954,3.0067774086379018
3.0818299611282765,4.006777408637902
3.0828266719824575,4.006777408637902
3.0838233828366386,5.006777408637902
3.08482009369082,6.006777408637902
3.085816804545001,5.006777408637902
3.0868135153991823,4.006777408637902
3.0878102262533638,4.006777408637902
3.088806937107545,0.006777408637901772
3.089803647961726,-2.9932225913620982
3.0908003588159074,-3.9932225913620982
3.0917970696700885,-3.9932225913620982
3.0927937805242696,-4.993222591362098
3.0937904913784506,-6.993222591362098
3.094787202232632,-4.993222591362098
3.095783913086813,-3.9932225913620982
3.0967806239409943,-2.9932225913620982
3.097777334795176,0.006777408637901772
3.098774045649357,0.006777408637901772
3.099770756503538,1.0067774086379018
3.1007674673577195,4.006777408637902
3.1017641782119005,1.0067774086379018
3.1027608890660816,4.006777408637902
3.1037575999202627,7.006777408637902
3.104754310774444,5.006777408637902
3.1057510216286253,4.006777408637902
3.1067477324828063,3.0067774086379018
3.107744443336988,4.006777408637902
3.108741154191169,-1.9932225913620982
3.10973786504535,-0.9932225913620982
3.110734575899531,-4.993222591362098
3.1117312867537126,-3.9932225913620982
3.1127279976078936,-4.993222591362098
3.1137247084620747,-3.9932225913620982
3.1147214193162562,-4.993222591362098
3.1157181301704373,-3.9932225913620982
3.1167148410246184,-2.9932225913620982
3.1177115518788,-0.9932225913620982
3.118708262732981,3.0067774086379018
3.119704973587162,-0.9932225913620982
3.120701684441343,2.0067774086379018
3.1216983952955246,3.0067774086379018
3.1226951061497057,4.006777408637902
3.1236918170038868,4.006777408637902
3.1246885278580683,6.006777408637902
3.1256852387122493,6.006777408637902
3.1266819495664304,5.006777408637902
3.1276786604206115,4.006777408637902
3.128675371274793,-1.9932225913620982
3.129672082128974,-2.9932225913620982
3.130668792983155,-1.9932225913620982
3.1316655038373367,-0.9932225913620982
3.1326622146915177,-3.9932225913620982
3.133658925545699,-6.993222591362098
3.1346556363998803,-5.993222591362098
3.1356523472540614,-7.993222591362098
3.1366490581082425,-5.993222591362098
3.1376457689624235,0.006777408637901772
3.138642479816605,1.0067774086379018
3.139639190670786,4.006777408637902
3.140635901524967,2.0067774086379018
3.1416326123791487,3.0067774086379018
3.1426293232333298,5.006777408637902
3.143626034087511,4.006777408637902
3.144622744941692,5.006777408637902
3.1456194557958734,6.006777408637902
3.1466161666500545,5.006777408637902
3.1476128775042356,3.0067774086379018
3.148609588358417,1.0067774086379018
3.149606299212598,-3.9932225913620982
3.1506030100667792,-3.9932225913620982
3.1515997209209607,-2.9932225913620982
3.152596431775142,-4.993222591362098
3.153593142629323,-6.993222591362098
3.154589853483504,-6.993222591362098
3.1555865643376855,-4.993222591362098
3.1565832751918665,-2.9932225913620982
3.1575799860460476,-1.9932225913620982
3.158576696900229,0.006777408637901772
3.15957340775441,2.0067774086379018
