Time,EMG
0.0,1.0161129568106162
0.000996710854181202,-0.9838870431893838
0.001993421708362404,-1.9838870431893838
0.002990132562543606,0.016112956810616197
0.003986843416724808,-2.983887043189384
0.00498355427090601,-2.983887043189384
0.005980265125087212,-2.983887043189384
0.006976975979268414,-3.983887043189384
0.007973686833449616,-2.983887043189384
0.008970397687630818,-1.9838870431893838
0.00996710854181202,-2.983887043189384
0.01096381939599322,0.016112956810616197
0.011960530250174423,1.0161129568106162
0.012957241104355626,4.016112956810616
0.013953951958536827,3.016112956810616
0.014950662812718028,6.016112956810616
0.01594737366689923,6.016112956810616
0.016944084521080434,4.016112956810616
0.017940795375261637,5.016112956810616
0.018937506229442836,0.016112956810616197
0.01993421708362404,1.0161129568106162
0.02093092793780524,-1.9838870431893838
0.02192763879198644,-2.983887043189384
0.022924349646167644,-1.9838870431893838
0.023921060500348847,-3.983887043189384
0.02491777135453005,-4.983887043189384
0.025914482208711252,-4.983887043189384
0.02691119306289245,-7.983887043189384
0.027907903917073654,-2.983887043189384
0.028904614771254857,-2.983887043189384
0.029901325625436057,-0.9838870431893838
0.03089803647961726,-0.9838870431893838
0.03189474733379846,4.016112956810616
0.032891458187979665,6.016112956810616
0.03388816904216087,3.016112956810616
0.03488487989634207,5.016112956810616
0.03588159075052327,5.016112956810616
0.03687830160470447,4.016112956810616
0.03787501245888567,4.016112956810616
0.038871723313066875,1.0161129568106162
0.03986843416724808,0.016112956810616197
0.04086514502142928,-2.983887043189384
0.04186185587561048,-5.983887043189384
0.042858566729791686,-1.9838870431893838
0.04385527758397288,-3.983887043189384
0.044851988438154085,-4.983887043189384
0.04584869929233529,-5.983887043189384
0.04684541014651649,-2.983887043189384
0.04784212100069769,-2.983887043189384
0.048838831854878896,-2.983887043189384
0.0498355427090601,-0.9838870431893838
0.0508322535632413,1.0161129568106162
0.051828964417422504,4.016112956810616
0.0528256752716037,5.016112956810616
0.0538223861257849,4.016112956810616
0.054819096979966106,7.016112956810616
0.05581580783414731,3.016112956810616
0.05681251868832851,3.016112956810616
0.057809229542509714,5.016112956810616
0.05880594039669092,2.016112956810616
0.05980265125087211,1.0161129568106162
0.060799362105053316,1.0161129568106162
0.06179607295923452,-1.9838870431893838
0.06279278381341573,-1.9838870431893838
0.06378949466759692,-3.983887043189384
0.06478620552177812,-6.983887043189384
0.06578291637595933,-5.983887043189384
0.06677962723014053,-4.983887043189384
0.06777633808432174,-2.983887043189384
0.06877304893850293,-0.9838870431893838
0.06976975979268414,1.0161129568106162
0.07076647064686534,3.016112956810616
0.07176318150104655,2.016112956810616
0.07275989235522774,2.016112956810616
0.07375660320940894,2.016112956810616
0.07475331406359015,6.016112956810616
0.07575002491777134,4.016112956810616
0.07674673577195255,1.0161129568106162
0.07774344662613375,5.016112956810616
0.07874015748031496,0.016112956810616197
0.07973686833449616,3.016112956810616
0.08073357918867735,0.016112956810616197
0.08173029004285856,1.0161129568106162
0.08272700089703976,-2.983887043189384
0.08372371175122097,-3.983887043189384
0.08472042260540216,-2.983887043189384
0.08571713345958337,-4.983887043189384
0.08671384431376457,-7.983887043189384
0.08771055516794576,-3.983887043189384
0.08870726602212697,-2.983887043189384
0.08970397687630817,-0.9838870431893838
0.09070068773048938,2.016112956810616
0.09169739858467058,4.016112956810616
0.09269410943885178,4.016112956810616
0.09369082029303298,3.016112956810616
0.09468753114721419,6.016112956810616
0.09568424200139539,3.016112956810616
0.09668095285557658,1.0161129568106162
0.09767766370975779,5.016112956810616
0.09867437456393899,5.016112956810616
0.0996710854181202,3.016112956810616
0.1006677962723014,-1.9838870431893838
0.1016645071264826,-1.9838870431893838
0.1026612179806638,-2.983887043189384
0.10365792883484501,-4.983887043189384
0.1046546396890262,-4.983887043189384
0.1056513505432074,-7.983887043189384
0.10664806139738861,-2.983887043189384
0.1076447722515698,-2.983887043189384
0.10864148310575102,-3.983887043189384
0.10963819395993221,0.016112956810616197
0.11063490481411342,4.016112956810616
0.11163161566829462,4.016112956810616
0.11262832652247581,6.016112956810616
0.11362503737665702,5.016112956810616
0.11462174823083822,4.016112956810616
0.11561845908501943,4.016112956810616
0.11661516993920062,6.016112956810616
0.11761188079338183,3.016112956810616
0.11860859164756303,-0.9838870431893838
0.11960530250174423,1.0161129568106162
0.12060201335592544,1.0161129568106162
0.12159872421010663,-2.983887043189384
0.12259543506428784,-3.983887043189384
0.12359214591846904,-4.983887043189384
0.12458885677265025,-4.983887043189384
0.12558556762683146,-3.983887043189384
0.12658227848101264,-3.983887043189384
0.12757898933519385,-2.983887043189384
0.12857570018937506,-4.983887043189384
0.12957241104355624,1.0161129568106162
0.13056912189773745,2.016112956810616
0.13156583275191866,4.016112956810616
0.13256254360609987,4.016112956810616
0.13355925446028105,5.016112956810616
0.13455596531446226,4.016112956810616
0.13555267616864347,8.016112956810616
0.13654938702282465,2.016112956810616
0.13754609787700586,2.016112956810616
0.13854280873118707,0.016112956810616197
0.13953951958536828,-0.9838870431893838
0.14053623043954946,-1.9838870431893838
0.14153294129373067,-1.9838870431893838
0.14252965214791188,-3.983887043189384
0.1435263630020931,-1.9838870431893838
0.14452307385627428,-5.983887043189384
0.14551978471045549,-5.983887043189384
0.1465164955646367,-5.983887043189384
0.14751320641881788,-2.983887043189384
0.1485099172729991,-0.9838870431893838
0.1495066281271803,1.0161129568106162
0.1505033389813615,3.016112956810616
0.1515000498355427,2.016112956810616
0.1524967606897239,3.016112956810616
0.1534934715439051,2.016112956810616
0.1544901823980863,8.016112956810616
0.1554868932522675,7.016112956810616
0.1564836041064487,5.016112956810616
0.15748031496062992,5.016112956810616
0.1584770258148111,4.016112956810616
0.1594737366689923,1.0161129568106162
0.16047044752317352,1.0161129568106162
0.1614671583773547,-2.983887043189384
0.1624638692315359,-2.983887043189384
0.16346058008571712,-3.983887043189384
0.16445729093989833,-4.983887043189384
0.1654540017940795,-5.983887043189384
0.16645071264826072,-7.983887043189384
0.16744742350244193,-3.983887043189384
0.16844413435662312,-1.9838870431893838
0.16944084521080433,-1.9838870431893838
0.17043755606498553,1.0161129568106162
0.17143426691916674,4.016112956810616
0.17243097777334793,5.016112956810616
0.17342768862752914,2.016112956810616
0.17442439948171035,7.016112956810616
0.17542111033589153,7.016112956810616
0.17641782119007274,4.016112956810616
0.17741453204425395,5.016112956810616
0.17841124289843516,1.0161129568106162
0.17940795375261634,0.016112956810616197
0.18040466460679755,-3.983887043189384
0.18140137546097876,-2.983887043189384
0.18239808631515997,-3.983887043189384
0.18339479716934115,-3.983887043189384
0.18439150802352236,-5.983887043189384
0.18538821887770357,-6.983887043189384
0.18638492973188475,-2.983887043189384
0.18738164058606596,-2.983887043189384
0.18837835144024717,-3.983887043189384
0.18937506229442838,0.016112956810616197
0.19037177314860956,1.0161129568106162
0.19136848400279077,1.0161129568106162
0.19236519485697198,1.0161129568106162
0.19336190571115316,0.016112956810616197
0.19435861656533437,5.016112956810616
0.19535532741951558,6.016112956810616
0.1963520382736968,5.016112956810616
0.19734874912787798,5.016112956810616
0.19834545998205919,3.016112956810616
0.1993421708362404,4.016112956810616
0.20033888169042158,-0.9838870431893838
0.2013355925446028,-1.9838870431893838
0.202332303398784,1.0161129568106162
0.2033290142529652,-2.983887043189384
0.2043257251071464,-1.9838870431893838
0.2053224359613276,-6.983887043189384
0.2063191468155088,-3.983887043189384
0.20731585766969002,-2.983887043189384
0.2083125685238712,0.016112956810616197
0.2093092793780524,0.016112956810616197
0.21030599023223362,1.0161129568106162
0.2113027010864148,1.0161129568106162
0.212299411940596,2.016112956810616
0.21329612279477722,1.0161129568106162
0.21429283364895843,4.016112956810616
0.2152895445031396,3.016112956810616
0.21628625535732082,3.016112956810616
0.21728296621150203,5.016112956810616
0.21827967706568321,2.016112956810616
0.21927638791986442,1.0161129568106162
0.22027309877404563,0.016112956810616197
0.22126980962822684,-3.983887043189384
0.22226652048240803,-0.9838870431893838
0.22326323133658924,-3.983887043189384
0.22425994219077044,-4.983887043189384
0.22525665304495163,-3.983887043189384
0.22625336389913284,-3.983887043189384
0.22725007475331405,-2.983887043189384
0.22824678560749526,-0.9838870431893838
0.22924349646167644,1.0161129568106162
0.23024020731585765,1.0161129568106162
0.23123691817003886,3.016112956810616
0.23223362902422004,5.016112956810616
0.23323033987840125,2.016112956810616
0.23422705073258246,6.016112956810616
0.23522376158676367,1.0161129568106162
0.23622047244094485,5.016112956810616
0.23721718329512606,6.016112956810616
0.23821389414930727,4.016112956810616
0.23921060500348845,1.0161129568106162
0.24020731585766966,0.016112956810616197
0.24120402671185087,-0.9838870431893838
0.24220073756603208,-1.9838870431893838
0.24319744842021326,-6.983887043189384
0.24419415927439447,-6.983887043189384
0.24519087012857568,-6.983887043189384
0.2461875809827569,-0.9838870431893838
0.24718429183693807,-2.983887043189384
0.24818100269111928,-2.983887043189384
0.2491777135453005,0.016112956810616197
0.2501744243994817,-0.9838870431893838
0.2511711352536629,3.016112956810616
0.2521678461078441,5.016112956810616
0.2531645569620253,4.016112956810616
0.2541612678162065,5.016112956810616
0.2551579786703877,4.016112956810616
0.2561546895245689,4.016112956810616
0.2571514003787501,3.016112956810616
0.2581481112329313,3.016112956810616
0.2591448220871125,2.016112956810616
0.2601415329412937,-1.9838870431893838
0.2611382437954749,-3.983887043189384
0.26213495464965614,0.016112956810616197
0.2631316655038373,-2.983887043189384
0.2641283763580185,-3.983887043189384
0.26512508721219974,-5.983887043189384
0.2661217980663809,-3.983887043189384
0.2671185089205621,-2.983887043189384
0.26811521977474334,-3.983887043189384
0.2691119306289245,-0.9838870431893838
0.2701086414831057,1.0161129568106162
0.27110535233728694,1.0161129568106162
0.2721020631914681,0.016112956810616197
0.2730987740456493,0.016112956810616197
0.27409548489983054,6.016112956810616
0.2750921957540117,4.016112956810616
0.27608890660819296,6.016112956810616
0.27708561746237415,6.016112956810616
0.2780823283165553,1.0161129568106162
0.27907903917073656,-1.9838870431893838
0.28007575002491775,-0.9838870431893838
0.28107246087909893,-3.983887043189384
0.28206917173328017,-0.9838870431893838
0.28306588258746135,-4.983887043189384
0.28406259344164253,-7.983887043189384
0.28505930429582377,-3.983887043189384
0.28605601515000495,-4.983887043189384
0.2870527260041862,-2.983887043189384
0.28804943685836737,-0.9838870431893838
0.28904614771254855,-0.9838870431893838
0.2900428585667298,-0.9838870431893838
0.29103956942091097,0.016112956810616197
0.29203628027509215,6.016112956810616
0.2930329911292734,4.016112956810616
0.29402970198345457,4.016112956810616
0.29502641283763575,5.016112956810616
0.296023123691817,5.016112956810616
0.2970198345459982,5.016112956810616
0.29801654540017936,3.016112956810616
0.2990132562543606,1.0161129568106162
0.3000099671085418,-1.9838870431893838
0.301006677962723,-4.983887043189384
0.3020033888169042,-1.9838870431893838
0.3030000996710854,-5.983887043189384
0.3039968105252666,-5.983887043189384
0.3049935213794478,-5.983887043189384
0.305990232233629,-3.983887043189384
0.3069869430878102,-1.9838870431893838
0.3079836539419914,-2.983887043189384
0.3089803647961726,-0.9838870431893838
0.3099770756503538,-1.9838870431893838
0.310973786504535,1.0161129568106162
0.3119704973587162,5.016112956810616
0.3129672082128974,3.016112956810616
0.3139639190670786,4.016112956810616
0.31496062992125984,5.016112956810616
0.315957340775441,6.016112956810616
0.3169540516296222,4.016112956810616
0.31795076248380344,3.016112956810616
0.3189474733379846,2.016112956810616
0.3199441841921658,-1.9838870431893838
0.32094089504634704,-1.9838870431893838
0.3219376059005282,0.016112956810616197
0.3229343167547094,-2.983887043189384
0.32393102760889064,-7.983887043189384
0.3249277384630718,-4.983887043189384
0.32592444931725306,-1.9838870431893838
0.32692116017143424,-2.983887043189384
0.3279178710256154,-2.983887043189384
0.32891458187979666,1.0161129568106162
0.32991129273397785,0.016112956810616197
0.330908003588159,2.016112956810616
0.33190471444234027,5.016112956810616
0.33290142529652145,4.016112956810616
0.33389813615070263,5.016112956810616
0.33489484700488387,3.016112956810616
0.33589155785906505,4.016112956810616
0.33688826871324623,3.016112956810616
0.33788497956742747,0.016112956810616197
0.33888169042160865,4.016112956810616
0.3398784012757899,1.0161129568106162
0.34087511212997107,-2.983887043189384
0.34187182298415225,-4.983887043189384
0.3428685338383335,-5.983887043189384
0.34386524469251467,-2.983887043189384
0.34486195554669585,-2.983887043189384
0.3458586664008771,-5.983887043189384
0.3468553772550583,-0.9838870431893838
0.34785208810923945,-4.983887043189384
0.3488487989634207,-1.9838870431893838
0.3498455098176019,1.0161129568106162
0.35084222067178306,3.016112956810616
0.3518389315259643,3.016112956810616
0.3528356423801455,5.016112956810616
0.3538323532343267,5.016112956810616
0.3548290640885079,3.016112956810616
0.3558257749426891,4.016112956810616
0.3568224857968703,5.016112956810616
0.3578191966510515,3.016112956810616
0.3588159075052327,1.0161129568106162
0.3598126183594139,0.016112956810616197
0.3608093292135951,-2.983887043189384
0.3618060400677763,-4.983887043189384
0.3628027509219575,-4.983887043189384
0.3637994617761387,-3.983887043189384
0.36479617263031994,-5.983887043189384
0.3657928834845011,-3.983887043189384
0.3667895943386823,1.0161129568106162
0.36778630519286354,1.0161129568106162
0.3687830160470447,-1.9838870431893838
0.3697797269012259,1.0161129568106162
0.37077643775540714,3.016112956810616
0.3717731486095883,3.016112956810616
0.3727698594637695,4.016112956810616
0.37376657031795074,4.016112956810616
0.3747632811721319,3.016112956810616
0.3757599920263131,5.016112956810616
0.37675670288049434,5.016112956810616
0.3777534137346755,1.0161129568106162
0.37875012458885676,-0.9838870431893838
0.37974683544303794,-0.9838870431893838
0.3807435462972191,-2.983887043189384
0.38174025715140036,-2.983887043189384
0.38273696800558155,-6.983887043189384
0.38373367885976273,-5.983887043189384
0.38473038971394397,-5.983887043189384
0.38572710056812515,-5.983887043189384
0.38672381142230633,0.016112956810616197
0.38772052227648757,-1.9838870431893838
0.38871723313066875,0.016112956810616197
0.38971394398485,0.016112956810616197
0.39071065483903117,2.016112956810616
0.39170736569321235,4.016112956810616
0.3927040765473936,5.016112956810616
0.39370078740157477,6.016112956810616
0.39469749825575595,4.016112956810616
0.3956942091099372,4.016112956810616
0.39669091996411837,1.0161129568106162
0.39768763081829955,3.016112956810616
0.3986843416724808,2.016112956810616
0.399681052526662,-0.9838870431893838
0.40067776338084315,-3.983887043189384
0.4016744742350244,-2.983887043189384
0.4026711850892056,-2.983887043189384
0.4036678959433868,-6.983887043189384
0.404664606797568,-5.983887043189384
0.4056613176517492,-2.983887043189384
0.4066580285059304,-1.9838870431893838
0.4076547393601116,-1.9838870431893838
0.4086514502142928,-1.9838870431893838
0.409648161068474,-1.9838870431893838
0.4106448719226552,2.016112956810616
0.4116415827768364,5.016112956810616
0.4126382936310176,5.016112956810616
0.4136350044851988,5.016112956810616
0.41463171533938004,4.016112956810616
0.4156284261935612,3.016112956810616
0.4166251370477424,2.016112956810616
0.41762184790192364,4.016112956810616
0.4186185587561048,1.0161129568106162
0.419615269610286,0.016112956810616197
0.42061198046446724,-2.983887043189384
0.4216086913186484,-2.983887043189384
0.4226054021728296,-1.9838870431893838
0.42360211302701084,-7.983887043189384
0.424598823881192,-5.983887043189384
0.4255955347353732,-2.983887043189384
0.42659224558955444,-2.983887043189384
0.4275889564437356,-0.9838870431893838
0.42858566729791686,-0.9838870431893838
0.42958237815209804,-1.9838870431893838
0.4305790890062792,3.016112956810616
0.43157579986046046,6.016112956810616
0.43257251071464164,3.016112956810616
0.4335692215688228,3.016112956810616
0.43456593242300406,8.016112956810616
0.43556264327718525,5.016112956810616
0.43655935413136643,4.016112956810616
0.43755606498554767,1.0161129568106162
0.43855277583972885,2.016112956810616
0.43954948669391003,0.016112956810616197
0.44054619754809127,-4.983887043189384
0.44154290840227245,-4.983887043189384
0.4425396192564537,-4.983887043189384
0.44353633011063487,-7.983887043189384
0.44453304096481605,-4.983887043189384
0.4455297518189973,-2.983887043189384
0.44652646267317847,-3.983887043189384
0.44752317352735965,-1.9838870431893838
0.4485198843815409,1.0161129568106162
0.44951659523572207,2.016112956810616
0.45051330608990325,1.0161129568106162
0.4515100169440845,5.016112956810616
0.4525067277982657,5.016112956810616
0.4535034386524469,5.016112956810616
0.4545001495066281,2.016112956810616
0.4554968603608093,6.016112956810616
0.4564935712149905,8.016112956810616
0.4574902820691717,1.0161129568106162
0.4584869929233529,3.016112956810616
0.4594837037775341,1.0161129568106162
0.4604804146317153,-1.9838870431893838
0.4614771254858965,-2.983887043189384
0.4624738363400777,-5.983887043189384
0.4634705471942589,-4.983887043189384
0.4644672580484401,-5.983887043189384
0.4654639689026213,-8.983887043189384
0.4664606797568025,-2.983887043189384
0.46745739061098374,-3.983887043189384
0.4684541014651649,-1.9838870431893838
0.4694508123193461,-2.983887043189384
0.47044752317352734,1.0161129568106162
0.4714442340277085,4.016112956810616
0.4724409448818897,8.016112956810616
0.47343765573607094,4.016112956810616
0.4744343665902521,5.016112956810616
0.4754310774444333,5.016112956810616
0.47642778829861454,6.016112956810616
0.4774244991527957,1.0161129568106162
0.4784212100069769,1.0161129568106162
0.47941792086115814,-0.9838870431893838
0.4804146317153393,-2.983887043189384
0.48141134256952056,-1.9838870431893838
0.48240805342370174,-3.983887043189384
0.4834047642778829,-6.983887043189384
0.48440147513206416,-6.983887043189384
0.48539818598624535,-4.983887043189384
0.4863948968404265,-2.983887043189384
0.48739160769460776,-2.983887043189384
0.48838831854878895,-1.9838870431893838
0.48938502940297013,1.0161129568106162
0.49038174025715137,1.0161129568106162
0.49137845111133255,2.016112956810616
0.4923751619655138,4.016112956810616
0.49337187281969497,6.016112956810616
0.49436858367387615,3.016112956810616
0.4953652945280574,4.016112956810616
0.49636200538223857,7.016112956810616
0.49735871623641975,2.016112956810616
0.498355427090601,4.016112956810616
0.49935213794478217,-1.9838870431893838
0.5003488487989634,-2.983887043189384
0.5013455596531445,-0.9838870431893838
0.5023422705073258,-3.983887043189384
0.503338981361507,-3.983887043189384
0.5043356922156882,-4.983887043189384
0.5053324030698694,-3.983887043189384
0.5063291139240506,-0.9838870431893838
0.5073258247782317,-1.9838870431893838
0.508322535632413,1.0161129568106162
0.5093192464865942,3.016112956810616
0.5103159573407754,2.016112956810616
0.5113126681949566,3.016112956810616
0.5123093790491378,3.016112956810616
0.513306089903319,4.016112956810616
0.5143028007575002,3.016112956810616
0.5152995116116814,4.016112956810616
0.5162962224658626,5.016112956810616
0.5172929333200438,4.016112956810616
0.518289644174225,0.016112956810616197
0.5192863550284063,-1.9838870431893838
0.5202830658825874,-0.9838870431893838
0.5212797767367686,-2.983887043189384
0.5222764875909498,-4.983887043189384
0.523273198445131,-4.983887043189384
0.5242699092993123,-5.983887043189384
0.5252666201534935,-6.983887043189384
0.5262633310076746,-2.983887043189384
0.5272600418618558,0.016112956810616197
0.528256752716037,0.016112956810616197
0.5292534635702182,3.016112956810616
0.5302501744243995,4.016112956810616
0.5312468852785807,4.016112956810616
0.5322435961327618,3.016112956810616
0.533240306986943,4.016112956810616
0.5342370178411242,5.016112956810616
0.5352337286953054,6.016112956810616
0.5362304395494867,4.016112956810616
0.5372271504036679,0.016112956810616197
0.538223861257849,1.0161129568106162
0.5392205721120302,-2.983887043189384
0.5402172829662114,-2.983887043189384
0.5412139938203927,-2.983887043189384
0.5422107046745739,-3.983887043189384
0.5432074155287551,-2.983887043189384
0.5442041263829362,-7.983887043189384
0.5452008372371174,-2.983887043189384
0.5461975480912986,-2.983887043189384
0.5471942589454799,-5.983887043189384
0.5481909697996611,-2.983887043189384
0.5491876806538423,0.016112956810616197
0.5501843915080235,4.016112956810616
0.5511811023622046,3.016112956810616
0.5521778132163859,7.016112956810616
0.5531745240705671,6.016112956810616
0.5541712349247483,5.016112956810616
0.5551679457789295,5.016112956810616
0.5561646566331107,3.016112956810616
0.5571613674872918,0.016112956810616197
0.5581580783414731,2.016112956810616
0.5591547891956543,-1.9838870431893838
0.5601515000498355,-2.983887043189384
0.5611482109040167,-0.9838870431893838
0.5621449217581979,-1.9838870431893838
0.5631416326123792,-3.983887043189384
0.5641383434665603,-9.983887043189384
0.5651350543207415,-9.983887043189384
0.5661317651749227,-2.983887043189384
0.5671284760291039,-2.983887043189384
0.5681251868832851,0.016112956810616197
0.5691218977374664,3.016112956810616
0.5701186085916475,3.016112956810616
0.5711153194458287,5.016112956810616
0.5721120303000099,4.016112956810616
0.5731087411541911,5.016112956810616
0.5741054520083724,5.016112956810616
0.5751021628625536,5.016112956810616
0.5760988737167347,5.016112956810616
0.5770955845709159,3.016112956810616
0.5780922954250971,3.016112956810616
0.5790890062792783,0.016112956810616197
0.5800857171334596,-2.983887043189384
0.5810824279876408,-1.9838870431893838
0.5820791388418219,-3.983887043189384
0.5830758496960031,-5.983887043189384
0.5840725605501843,-6.983887043189384
0.5850692714043655,-5.983887043189384
0.5860659822585468,-0.9838870431893838
0.587062693112728,-2.983887043189384
0.5880594039669091,-1.9838870431893838
0.5890561148210903,2.016112956810616
0.5900528256752715,4.016112956810616
0.5910495365294528,4.016112956810616
0.592046247383634,3.016112956810616
0.5930429582378152,5.016112956810616
0.5940396690919963,4.016112956810616
0.5950363799461775,6.016112956810616
0.5960330908003587,5.016112956810616
0.59702980165454,4.016112956810616
0.5980265125087212,1.0161129568106162
0.5990232233629024,-1.9838870431893838
0.6000199342170836,-5.983887043189384
0.6010166450712647,-3.983887043189384
0.602013355925446,-4.983887043189384
0.6030100667796272,-6.983887043189384
0.6040067776338084,-3.983887043189384
0.6050034884879896,-3.983887043189384
0.6060001993421708,-2.983887043189384
0.6069969101963519,-1.9838870431893838
0.6079936210505332,0.016112956810616197
0.6089903319047144,0.016112956810616197
0.6099870427588956,3.016112956810616
0.6109837536130768,4.016112956810616
0.611980464467258,1.0161129568106162
0.6129771753214392,4.016112956810616
0.6139738861756204,3.016112956810616
0.6149705970298016,7.016112956810616
0.6159673078839828,6.016112956810616
0.616964018738164,5.016112956810616
0.6179607295923452,2.016112956810616
0.6189574404465265,0.016112956810616197
0.6199541513007076,-3.983887043189384
0.6209508621548888,-3.983887043189384
0.62194757300907,-4.983887043189384
0.6229442838632512,-2.983887043189384
0.6239409947174324,-6.983887043189384
0.6249377055716137,-4.983887043189384
0.6259344164257948,-4.983887043189384
0.626931127279976,-1.9838870431893838
0.6279278381341572,0.016112956810616197
0.6289245489883384,1.0161129568106162
0.6299212598425197,5.016112956810616
0.6309179706967009,3.016112956810616
0.631914681550882,3.016112956810616
0.6329113924050632,5.016112956810616
0.6339081032592444,4.016112956810616
0.6349048141134256,4.016112956810616
0.6359015249676069,6.016112956810616
0.6368982358217881,-0.9838870431893838
0.6378949466759692,0.016112956810616197
0.6388916575301504,0.016112956810616197
0.6398883683843316,-3.983887043189384
0.6408850792385129,-2.983887043189384
0.6418817900926941,-6.983887043189384
0.6428785009468753,-8.983887043189384
0.6438752118010564,-3.983887043189384
0.6448719226552376,-2.983887043189384
0.6458686335094188,-1.9838870431893838
0.6468653443636001,-1.9838870431893838
0.6478620552177813,1.0161129568106162
0.6488587660719625,-0.9838870431893838
0.6498554769261436,0.016112956810616197
0.6508521877803248,2.016112956810616
0.6518488986345061,7.016112956810616
0.6528456094886873,5.016112956810616
0.6538423203428685,5.016112956810616
0.6548390311970497,4.016112956810616
0.6558357420512309,3.016112956810616
0.656832452905412,3.016112956810616
0.6578291637595933,1.0161129568106162
0.6588258746137745,1.0161129568106162
0.6598225854679557,-4.983887043189384
0.6608192963221369,-1.9838870431893838
0.661816007176318,-3.983887043189384
0.6628127180304992,-6.983887043189384
0.6638094288846805,-7.983887043189384
0.6648061397388617,-2.983887043189384
0.6658028505930429,-1.9838870431893838
0.6667995614472241,1.0161129568106162
0.6677962723014053,2.016112956810616
0.6687929831555866,2.016112956810616
0.6697896940097677,1.0161129568106162
0.6707864048639489,3.016112956810616
0.6717831157181301,4.016112956810616
0.6727798265723113,4.016112956810616
0.6737765374264925,3.016112956810616
0.6747732482806738,2.016112956810616
0.6757699591348549,6.016112956810616
0.6767666699890361,3.016112956810616
0.6777633808432173,1.0161129568106162
0.6787600916973985,-0.9838870431893838
0.6797568025515798,-2.983887043189384
0.680753513405761,-1.9838870431893838
0.6817502242599421,-6.983887043189384
0.6827469351141233,-6.983887043189384
0.6837436459683045,-3.983887043189384
0.6847403568224857,-4.983887043189384
0.685737067676667,-5.983887043189384
0.6867337785308482,-0.9838870431893838
0.6877304893850293,-1.9838870431893838
0.6887272002392105,-1.9838870431893838
0.6897239110933917,1.0161129568106162
0.690720621947573,4.016112956810616
0.6917173328017542,5.016112956810616
0.6927140436559354,5.016112956810616
0.6937107545101165,4.016112956810616
0.6947074653642977,3.016112956810616
0.6957041762184789,5.016112956810616
0.6967008870726602,4.016112956810616
0.6976975979268414,3.016112956810616
0.6986943087810226,-1.9838870431893838
0.6996910196352037,-0.9838870431893838
0.7006877304893849,-1.9838870431893838
0.7016844413435661,-3.983887043189384
0.7026811521977474,-5.983887043189384
0.7036778630519286,-7.983887043189384
0.7046745739061098,-5.983887043189384
0.705671284760291,-2.983887043189384
0.7066679956144721,-2.983887043189384
0.7076647064686534,-0.9838870431893838
0.7086614173228346,1.0161129568106162
0.7096581281770158,2.016112956810616
0.710654839031197,4.016112956810616
0.7116515498853782,4.016112956810616
0.7126482607395593,6.016112956810616
0.7136449715937406,5.016112956810616
0.7146416824479218,5.016112956810616
0.715638393302103,5.016112956810616
0.7166351041562842,3.016112956810616
0.7176318150104654,3.016112956810616
0.7186285258646467,1.0161129568106162
0.7196252367188278,-1.9838870431893838
0.720621947573009,-3.983887043189384
0.7216186584271902,-5.983887043189384
0.7226153692813714,-6.983887043189384
0.7236120801355526,-7.983887043189384
0.7246087909897339,-4.983887043189384
0.725605501843915,-1.9838870431893838
0.7266022126980962,-0.9838870431893838
0.7275989235522774,2.016112956810616
0.7285956344064586,-0.9838870431893838
0.7295923452606399,1.0161129568106162
0.7305890561148211,5.016112956810616
0.7315857669690022,3.016112956810616
0.7325824778231834,3.016112956810616
0.7335791886773646,4.016112956810616
0.7345758995315458,3.016112956810616
0.7355726103857271,5.016112956810616
0.7365693212399083,-0.9838870431893838
0.7375660320940894,4.016112956810616
0.7385627429482706,-0.9838870431893838
0.7395594538024518,-2.983887043189384
0.7405561646566331,-1.9838870431893838
0.7415528755108143,-2.983887043189384
0.7425495863649955,-5.983887043189384
0.7435462972191766,-4.983887043189384
0.7445430080733578,-3.983887043189384
0.745539718927539,-3.983887043189384
0.7465364297817203,-0.9838870431893838
0.7475331406359015,-1.9838870431893838
0.7485298514900827,1.0161129568106162
0.7495265623442638,2.016112956810616
0.750523273198445,1.0161129568106162
0.7515199840526262,3.016112956810616
0.7525166949068075,7.016112956810616
0.7535134057609887,7.016112956810616
0.7545101166151699,5.016112956810616
0.755506827469351,5.016112956810616
0.7565035383235322,-0.9838870431893838
0.7575002491777135,0.016112956810616197
0.7584969600318947,0.016112956810616197
0.7594936708860759,-2.983887043189384
0.7604903817402571,-0.9838870431893838
0.7614870925944383,-5.983887043189384
0.7624838034486194,-4.983887043189384
0.7634805143028007,-3.983887043189384
0.7644772251569819,-5.983887043189384
0.7654739360111631,0.016112956810616197
0.7664706468653443,0.016112956810616197
0.7674673577195255,3.016112956810616
0.7684640685737067,1.0161129568106162
0.7694607794278879,1.0161129568106162
0.7704574902820691,3.016112956810616
0.7714542011362503,1.0161129568106162
0.7724509119904315,2.016112956810616
0.7734476228446127,3.016112956810616
0.774444333698794,4.016112956810616
0.7754410445529751,5.016112956810616
0.7764377554071563,2.016112956810616
0.7774344662613375,1.0161129568106162
0.7784311771155187,3.016112956810616
0.7794278879697,-1.9838870431893838
0.7804245988238812,0.016112956810616197
0.7814213096780623,-4.983887043189384
0.7824180205322435,-6.983887043189384
0.7834147313864247,-2.983887043189384
0.7844114422406059,-3.983887043189384
0.7854081530947872,-3.983887043189384
0.7864048639489684,-1.9838870431893838
0.7874015748031495,-2.983887043189384
0.7883982856573307,-0.9838870431893838
0.7893949965115119,4.016112956810616
0.7903917073656931,4.016112956810616
0.7913884182198744,3.016112956810616
0.7923851290740556,4.016112956810616
0.7933818399282367,5.016112956810616
0.7943785507824179,1.0161129568106162
0.7953752616365991,2.016112956810616
0.7963719724907804,0.016112956810616197
0.7973686833449616,1.0161129568106162
0.7983653941991428,-0.9838870431893838
0.799362105053324,-2.983887043189384
0.8003588159075051,-0.9838870431893838
0.8013555267616863,-3.983887043189384
0.8023522376158676,-7.983887043189384
0.8033489484700488,-6.983887043189384
0.80434565932423,-2.983887043189384
0.8053423701784111,-2.983887043189384
0.8063390810325923,-3.983887043189384
0.8073357918867736,2.016112956810616
0.8083325027409548,1.0161129568106162
0.809329213595136,3.016112956810616
0.8103259244493172,3.016112956810616
0.8113226353034984,4.016112956810616
0.8123193461576795,3.016112956810616
0.8133160570118608,1.0161129568106162
0.814312767866042,5.016112956810616
0.8153094787202232,9.016112956810616
0.8163061895744044,2.016112956810616
0.8173029004285856,1.0161129568106162
0.8182996112827668,-0.9838870431893838
0.819296322136948,-2.983887043189384
0.8202930329911292,-3.983887043189384
0.8212897438453104,-2.983887043189384
0.8222864546994916,-3.983887043189384
0.8232831655536728,-5.983887043189384
0.824279876407854,-3.983887043189384
0.8252765872620352,-0.9838870431893838
0.8262732981162164,-2.983887043189384
0.8272700089703976,-2.983887043189384
0.8282667198245788,1.0161129568106162
0.8292634306787601,4.016112956810616
0.8302601415329413,3.016112956810616
0.8312568523871224,1.0161129568106162
0.8322535632413036,3.016112956810616
0.8332502740954848,5.016112956810616
0.834246984949666,5.016112956810616
0.8352436958038473,5.016112956810616
0.8362404066580285,1.0161129568106162
0.8372371175122096,0.016112956810616197
0.8382338283663908,-4.983887043189384
0.839230539220572,-0.9838870431893838
0.8402272500747532,1.0161129568106162
0.8412239609289345,-4.983887043189384
0.8422206717831157,-3.983887043189384
0.8432173826372968,-3.983887043189384
0.844214093491478,-4.983887043189384
0.8452108043456592,-0.9838870431893838
0.8462075151998405,-2.983887043189384
0.8472042260540217,1.0161129568106162
0.8482009369082029,1.0161129568106162
0.849197647762384,2.016112956810616
0.8501943586165652,3.016112956810616
0.8511910694707464,3.016112956810616
0.8521877803249277,6.016112956810616
0.8531844911791089,5.016112956810616
0.8541812020332901,2.016112956810616
0.8551779128874712,4.016112956810616
0.8561746237416524,2.016112956810616
0.8571713345958337,1.0161129568106162
0.8581680454500149,-1.9838870431893838
0.8591647563041961,-4.983887043189384
0.8601614671583773,-5.983887043189384
0.8611581780125585,-3.983887043189384
0.8621548888667396,-7.983887043189384
0.8631515997209209,-6.983887043189384
0.8641483105751021,-3.983887043189384
0.8651450214292833,-1.9838870431893838
0.8661417322834645,-1.9838870431893838
0.8671384431376457,-0.9838870431893838
0.868135153991827,2.016112956810616
0.8691318648460081,4.016112956810616
0.8701285757001893,5.016112956810616
0.8711252865543705,4.016112956810616
0.8721219974085517,3.016112956810616
0.8731187082627329,4.016112956810616
0.8741154191169141,5.016112956810616
0.8751121299710953,3.016112956810616
0.8761088408252765,1.0161129568106162
0.8771055516794577,1.0161129568106162
0.8781022625336389,-0.9838870431893838
0.8790989733878201,-1.9838870431893838
0.8800956842420014,-2.983887043189384
0.8810923950961825,-4.983887043189384
0.8820891059503637,-4.983887043189384
0.8830858168045449,-1.9838870431893838
0.8840825276587261,-1.9838870431893838
0.8850792385129074,-2.983887043189384
0.8860759493670886,-1.9838870431893838
0.8870726602212697,-0.9838870431893838
0.8880693710754509,0.016112956810616197
0.8890660819296321,3.016112956810616
0.8900627927838133,3.016112956810616
0.8910595036379946,4.016112956810616
0.8920562144921758,2.016112956810616
0.8930529253463569,2.016112956810616
0.8940496362005381,5.016112956810616
0.8950463470547193,8.016112956810616
0.8960430579089006,5.016112956810616
0.8970397687630818,3.016112956810616
0.898036479617263,-0.9838870431893838
0.8990331904714441,-4.983887043189384
0.9000299013256253,-2.983887043189384
0.9010266121798065,-5.983887043189384
0.9020233230339878,-5.983887043189384
0.903020033888169,-6.983887043189384
0.9040167447423502,-2.983887043189384
0.9050134555965313,-4.983887043189384
0.9060101664507125,-2.983887043189384
0.9070068773048938,-2.983887043189384
0.908003588159075,1.0161129568106162
0.9090002990132562,2.016112956810616
0.9099970098674374,5.016112956810616
0.9109937207216185,3.016112956810616
0.9119904315757997,5.016112956810616
0.912987142429981,7.016112956810616
0.9139838532841622,5.016112956810616
0.9149805641383434,3.016112956810616
0.9159772749925246,4.016112956810616
0.9169739858467058,0.016112956810616197
0.9179706967008869,-0.9838870431893838
0.9189674075550682,-0.9838870431893838
0.9199641184092494,-2.983887043189384
0.9209608292634306,-1.9838870431893838
0.9219575401176118,-3.983887043189384
0.922954250971793,-5.983887043189384
0.9239509618259742,-3.983887043189384
0.9249476726801554,-3.983887043189384
0.9259443835343366,-4.983887043189384
0.9269410943885178,0.016112956810616197
0.927937805242699,2.016112956810616
0.9289345160968802,4.016112956810616
0.9299312269510615,5.016112956810616
0.9309279378052426,3.016112956810616
0.9319246486594238,3.016112956810616
0.932921359513605,5.016112956810616
0.9339180703677862,3.016112956810616
0.9349147812219675,4.016112956810616
0.9359114920761487,0.016112956810616197
0.9369082029303298,1.0161129568106162
0.937904913784511,-2.983887043189384
0.9389016246386922,-2.983887043189384
0.9398983354928734,-3.983887043189384
0.9408950463470547,-3.983887043189384
0.9418917572012359,-3.983887043189384
0.942888468055417,-2.983887043189384
0.9438851789095982,-6.983887043189384
0.9448818897637794,-3.983887043189384
0.9458786006179607,1.0161129568106162
0.9468753114721419,2.016112956810616
0.9478720223263231,1.0161129568106162
0.9488687331805042,4.016112956810616
0.9498654440346854,3.016112956810616
0.9508621548888666,3.016112956810616
0.9518588657430479,6.016112956810616
0.9528555765972291,4.016112956810616
0.9538522874514103,2.016112956810616
0.9548489983055914,7.016112956810616
0.9558457091597726,3.016112956810616
0.9568424200139538,0.016112956810616197
0.9578391308681351,-2.983887043189384
0.9588358417223163,-2.983887043189384
0.9598325525764975,-1.9838870431893838
0.9608292634306786,-3.983887043189384
0.9618259742848598,-2.983887043189384
0.9628226851390411,-5.983887043189384
0.9638193959932223,-4.983887043189384
0.9648161068474035,-4.983887043189384
0.9658128177015847,0.016112956810616197
0.9668095285557659,-1.9838870431893838
0.967806239409947,2.016112956810616
0.9688029502641283,3.016112956810616
0.9697996611183095,4.016112956810616
0.9707963719724907,5.016112956810616
0.9717930828266719,4.016112956810616
0.972789793680853,3.016112956810616
0.9737865045350343,4.016112956810616
0.9747832153892155,4.016112956810616
0.9757799262433967,0.016112956810616197
0.9767766370975779,1.0161129568106162
0.9777733479517591,0.016112956810616197
0.9787700588059403,-3.983887043189384
0.9797667696601216,-1.9838870431893838
0.9807634805143027,-4.983887043189384
0.9817601913684839,-5.983887043189384
0.9827569022226651,-3.983887043189384
0.9837536130768463,-3.983887043189384
0.9847503239310276,-3.983887043189384
0.9857470347852088,-3.983887043189384
0.9867437456393899,0.016112956810616197
0.9877404564935711,1.0161129568106162
0.9887371673477523,2.016112956810616
0.9897338782019335,5.016112956810616
0.9907305890561148,4.016112956810616
0.991727299910296,4.016112956810616
0.9927240107644771,4.016112956810616
0.9937207216186583,5.016112956810616
0.9947174324728395,4.016112956810616
0.9957141433270208,5.016112956810616
0.996710854181202,2.016112956810616
0.9977075650353832,-2.983887043189384
0.9987042758895643,-2.983887043189384
0.9997009867437455,-3.983887043189384
1.0006976975979267,-5.983887043189384
1.001694408452108,-4.983887043189384
1.002691119306289,-5.983887043189384
1.0036878301604704,-3.983887043189384
1.0046845410146517,-1.9838870431893838
1.0056812518688327,-2.983887043189384
1.006677962723014,1.0161129568106162
1.007674673577195,1.0161129568106162
1.0086713844313764,1.0161129568106162
1.0096680952855577,4.016112956810616
1.0106648061397387,3.016112956810616
1.01166151699392,6.016112956810616
1.0126582278481011,4.016112956810616
1.0136549387022824,4.016112956810616
1.0146516495564635,7.016112956810616
1.0156483604106448,1.0161129568106162
1.016645071264826,5.016112956810616
1.0176417821190071,-1.9838870431893838
1.0186384929731884,-1.9838870431893838
1.0196352038273695,-5.983887043189384
1.0206319146815508,-3.983887043189384
1.021628625535732,-4.983887043189384
1.0226253363899132,-6.983887043189384
1.0236220472440944,-4.983887043189384
1.0246187580982755,-3.983887043189384
1.0256154689524568,-3.983887043189384
1.026612179806638,-0.9838870431893838
1.0276088906608192,0.016112956810616197
1.0286056015150005,4.016112956810616
1.0296023123691815,2.016112956810616
1.0305990232233628,4.016112956810616
1.031595734077544,5.016112956810616
1.0325924449317252,5.016112956810616
1.0335891557859065,4.016112956810616
1.0345858666400876,4.016112956810616
1.0355825774942689,-0.9838870431893838
1.03657928834845,2.016112956810616
1.0375759992026312,-0.9838870431893838
1.0385727100568125,-2.983887043189384
1.0395694209109936,-1.9838870431893838
1.0405661317651749,-1.9838870431893838
1.041562842619356,-4.983887043189384
1.0425595534735372,-4.983887043189384
1.0435562643277185,-3.983887043189384
1.0445529751818996,-2.983887043189384
1.045549686036081,-1.9838870431893838
1.046546396890262,0.016112956810616197
1.0475431077444433,2.016112956810616
1.0485398185986246,2.016112956810616
1.0495365294528056,3.016112956810616
1.050533240306987,6.016112956810616
1.051529951161168,7.016112956810616
1.0525266620153493,4.016112956810616
1.0535233728695304,5.016112956810616
1.0545200837237116,4.016112956810616
1.055516794577893,1.0161129568106162
1.056513505432074,1.0161129568106162
1.0575102162862553,-1.9838870431893838
1.0585069271404364,-2.983887043189384
1.0595036379946177,-4.983887043189384
1.060500348848799,-3.983887043189384
1.06149705970298,-5.983887043189384
1.0624937705571613,-7.983887043189384
1.0634904814113424,-3.983887043189384
1.0644871922655237,-2.983887043189384
1.065483903119705,-2.983887043189384
1.066480613973886,0.016112956810616197
1.0674773248280673,-0.9838870431893838
1.0684740356822484,3.016112956810616
1.0694707465364297,6.016112956810616
1.0704674573906108,4.016112956810616
1.071464168244792,7.016112956810616
1.0724608790989734,4.016112956810616
1.0734575899531544,4.016112956810616
1.0744543008073357,4.016112956810616
1.0754510116615168,2.016112956810616
1.076447722515698,3.016112956810616
1.0774444333698794,-1.9838870431893838
1.0784411442240605,-4.983887043189384
1.0794378550782417,-3.983887043189384
1.0804345659324228,-3.983887043189384
1.0814312767866041,-3.983887043189384
1.0824279876407854,-6.983887043189384
1.0834246984949665,-2.983887043189384
1.0844214093491478,-2.983887043189384
1.0854181202033288,-3.983887043189384
1.0864148310575101,0.016112956810616197
1.0874115419116914,1.0161129568106162
1.0884082527658725,1.0161129568106162
1.0894049636200538,1.0161129568106162
1.0904016744742349,4.016112956810616
1.0913983853284162,6.016112956810616
1.0923950961825972,5.016112956810616
1.0933918070367785,4.016112956810616
1.0943885178909598,6.016112956810616
1.0953852287451409,1.0161129568106162
1.0963819395993222,2.016112956810616
1.0973786504535032,1.0161129568106162
1.0983753613076845,-2.983887043189384
1.0993720721618658,-2.983887043189384
1.100368783016047,-4.983887043189384
1.1013654938702282,-6.983887043189384
1.1023622047244093,-3.983887043189384
1.1033589155785906,-4.983887043189384
1.1043556264327719,-3.983887043189384
1.105352337286953,-4.983887043189384
1.1063490481411342,-2.983887043189384
1.1073457589953153,2.016112956810616
1.1083424698494966,2.016112956810616
1.1093391807036777,3.016112956810616
1.110335891557859,3.016112956810616
1.1113326024120402,2.016112956810616
1.1123293132662213,3.016112956810616
1.1133260241204026,3.016112956810616
1.1143227349745837,5.016112956810616
1.115319445828765,3.016112956810616
1.1163161566829463,2.016112956810616
1.1173128675371273,1.0161129568106162
1.1183095783913086,-3.983887043189384
1.1193062892454897,-1.9838870431893838
1.120303000099671,-4.983887043189384
1.1212997109538523,-8.983887043189384
1.1222964218080334,-3.983887043189384
1.1232931326622146,-6.983887043189384
1.1242898435163957,0.016112956810616197
1.125286554370577,0.016112956810616197
1.1262832652247583,1.0161129568106162
1.1272799760789394,1.0161129568106162
1.1282766869331207,3.016112956810616
1.1292733977873017,5.016112956810616
1.130270108641483,2.016112956810616
1.131266819495664,6.016112956810616
1.1322635303498454,5.016112956810616
1.1332602412040267,6.016112956810616
1.1342569520582078,5.016112956810616
1.135253662912389,3.016112956810616
1.1362503737665701,2.016112956810616
1.1372470846207514,-0.9838870431893838
1.1382437954749327,-2.983887043189384
1.1392405063291138,-2.983887043189384
1.140237217183295,-4.983887043189384
1.1412339280374761,-3.983887043189384
1.1422306388916574,-7.983887043189384
1.1432273497458387,-5.983887043189384
1.1442240606000198,-2.983887043189384
1.145220771454201,0.016112956810616197
1.1462174823083822,0.016112956810616197
1.1472141931625635,-1.9838870431893838
1.1482109040167447,3.016112956810616
1.1492076148709258,6.016112956810616
1.1502043257251071,2.016112956810616
1.1512010365792882,6.016112956810616
1.1521977474334695,4.016112956810616
1.1531944582876505,1.0161129568106162
1.1541911691418318,3.016112956810616
1.1551878799960131,4.016112956810616
1.1561845908501942,3.016112956810616
1.1571813017043755,-1.9838870431893838
1.1581780125585566,-2.983887043189384
1.1591747234127379,-2.983887043189384
1.1601714342669192,-2.983887043189384
1.1611681451211002,-4.983887043189384
1.1621648559752815,-4.983887043189384
1.1631615668294626,-6.983887043189384
1.1641582776836439,-4.983887043189384
1.1651549885378252,-2.983887043189384
1.1661516993920062,-1.9838870431893838
1.1671484102461875,-2.983887043189384
1.1681451211003686,2.016112956810616
1.16914183195455,4.016112956810616
1.170138542808731,4.016112956810616
1.1711352536629123,4.016112956810616
1.1721319645170936,5.016112956810616
1.1731286753712746,3.016112956810616
1.174125386225456,2.016112956810616
1.175122097079637,0.016112956810616197
1.1761188079338183,2.016112956810616
1.1771155187879996,-0.9838870431893838
1.1781122296421807,-1.9838870431893838
1.179108940496362,-1.9838870431893838
1.180105651350543,-6.983887043189384
1.1811023622047243,-3.983887043189384
1.1820990730589056,-4.983887043189384
1.1830957839130867,-4.983887043189384
1.184092494767268,-1.9838870431893838
1.185089205621449,-2.983887043189384
1.1860859164756303,-1.9838870431893838
1.1870826273298116,1.0161129568106162
1.1880793381839927,4.016112956810616
1.189076049038174,1.0161129568106162
1.190072759892355,3.016112956810616
1.1910694707465364,6.016112956810616
1.1920661816007174,8.016112956810616
1.1930628924548987,8.016112956810616
1.19405960330908,7.016112956810616
1.195056314163261,-0.9838870431893838
1.1960530250174424,3.016112956810616
1.1970497358716234,0.016112956810616197
1.1980464467258047,-0.9838870431893838
1.199043157579986,-4.983887043189384
1.200039868434167,-7.983887043189384
1.2010365792883484,-6.983887043189384
1.2020332901425295,-5.983887043189384
1.2030300009967108,-5.983887043189384
1.204026711850892,-2.983887043189384
1.2050234227050731,-0.9838870431893838
1.2060201335592544,-0.9838870431893838
1.2070168444134355,1.0161129568106162
1.2080135552676168,0.016112956810616197
1.2090102661217978,5.016112956810616
1.2100069769759791,4.016112956810616
1.2110036878301604,5.016112956810616
1.2120003986843415,3.016112956810616
1.2129971095385228,3.016112956810616
1.2139938203927039,2.016112956810616
1.2149905312468852,3.016112956810616
1.2159872421010665,2.016112956810616
1.2169839529552475,-1.9838870431893838
1.2179806638094288,-2.983887043189384
1.21897737466361,1.0161129568106162
1.2199740855177912,-4.983887043189384
1.2209707963719725,-4.983887043189384
1.2219675072261535,-7.983887043189384
1.2229642180803348,-3.983887043189384
1.223960928934516,-4.983887043189384
1.2249576397886972,-2.983887043189384
1.2259543506428785,4.016112956810616
1.2269510614970596,2.016112956810616
1.2279477723512409,5.016112956810616
1.228944483205422,6.016112956810616
1.2299411940596032,6.016112956810616
1.2309379049137843,4.016112956810616
1.2319346157679656,5.016112956810616
1.2329313266221469,4.016112956810616
1.233928037476328,5.016112956810616
1.2349247483305092,2.016112956810616
1.2359214591846903,-0.9838870431893838
1.2369181700388716,-1.9838870431893838
1.237914880893053,-3.983887043189384
1.238911591747234,-2.983887043189384
1.2399083026014153,-3.983887043189384
1.2409050134555963,-6.983887043189384
1.2419017243097776,-6.983887043189384
1.242898435163959,-5.983887043189384
1.24389514601814,-2.983887043189384
1.2448918568723213,-0.9838870431893838
1.2458885677265024,-0.9838870431893838
1.2468852785806837,0.016112956810616197
1.2478819894348647,2.016112956810616
1.248878700289046,6.016112956810616
1.2498754111432273,5.016112956810616
1.2508721219974084,6.016112956810616
1.2518688328515897,5.016112956810616
1.2528655437057707,3.016112956810616
1.253862254559952,5.016112956810616
1.2548589654141333,2.016112956810616
1.2558556762683144,1.0161129568106162
1.2568523871224957,0.016112956810616197
1.2578490979766768,-4.983887043189384
1.258845808830858,-2.983887043189384
1.2598425196850394,-4.983887043189384
1.2608392305392204,-4.983887043189384
1.2618359413934017,-8.983887043189384
1.2628326522475828,-3.983887043189384
1.263829363101764,-4.983887043189384
1.2648260739559454,-3.983887043189384
1.2658227848101264,1.0161129568106162
1.2668194956643077,-0.9838870431893838
1.2678162065184888,4.016112956810616
1.26881291737267,5.016112956810616
1.2698096282268512,6.016112956810616
1.2708063390810325,5.016112956810616
1.2718030499352138,3.016112956810616
1.2727997607893948,6.016112956810616
1.2737964716435761,5.016112956810616
1.2747931824977572,6.016112956810616
1.2757898933519385,4.016112956810616
1.2767866042061198,1.0161129568106162
1.2777833150603009,-0.9838870431893838
1.2787800259144821,-3.983887043189384
1.2797767367686632,-7.983887043189384
1.2807734476228445,-8.983887043189384
1.2817701584770258,-6.983887043189384
1.2827668693312069,-5.983887043189384
1.2837635801853882,-4.983887043189384
1.2847602910395692,-2.983887043189384
1.2857570018937505,-2.983887043189384
1.2867537127479316,0.016112956810616197
1.287750423602113,2.016112956810616
1.2887471344562942,3.016112956810616
1.2897438453104753,3.016112956810616
1.2907405561646565,5.016112956810616
1.2917372670188376,5.016112956810616
1.292733977873019,5.016112956810616
1.2937306887272002,5.016112956810616
1.2947273995813813,4.016112956810616
1.2957241104355626,0.016112956810616197
1.2967208212897436,-1.9838870431893838
1.297717532143925,0.016112956810616197
1.2987142429981062,-1.9838870431893838
1.2997109538522873,-3.983887043189384
1.3007076647064686,-6.983887043189384
1.3017043755606497,-6.983887043189384
1.302701086414831,-2.983887043189384
1.3036977972690122,1.0161129568106162
1.3046945081231933,-1.9838870431893838
1.3056912189773746,-0.9838870431893838
1.3066879298315557,1.0161129568106162
1.307684640685737,3.016112956810616
1.308681351539918,5.016112956810616
1.3096780623940993,4.016112956810616
1.3106747732482806,6.016112956810616
1.3116714841024617,4.016112956810616
1.312668194956643,3.016112956810616
1.313664905810824,2.016112956810616
1.3146616166650054,2.016112956810616
1.3156583275191867,1.0161129568106162
1.3166550383733677,-2.983887043189384
1.317651749227549,-3.983887043189384
1.31864846008173,-4.983887043189384
1.3196451709359114,-5.983887043189384
1.3206418817900927,-4.983887043189384
1.3216385926442737,-6.983887043189384
1.322635303498455,-3.983887043189384
1.323632014352636,-4.983887043189384
1.3246287252068174,1.0161129568106162
1.3256254360609985,2.016112956810616
1.3266221469151798,1.0161129568106162
1.327618857769361,2.016112956810616
1.3286155686235421,3.016112956810616
1.3296122794777234,4.016112956810616
1.3306089903319045,5.016112956810616
1.3316057011860858,5.016112956810616
1.332602412040267,8.016112956810616
1.3335991228944482,5.016112956810616
1.3345958337486294,4.016112956810616
1.3355925446028105,1.0161129568106162
1.3365892554569918,-1.9838870431893838
1.337585966311173,0.016112956810616197
1.3385826771653542,-2.983887043189384
1.3395793880195355,-4.983887043189384
1.3405760988737165,-7.983887043189384
1.3415728097278978,-5.983887043189384
1.3425695205820791,-4.983887043189384
1.3435662314362602,-4.983887043189384
1.3445629422904415,-2.983887043189384
1.3455596531446226,0.016112956810616197
1.3465563639988039,3.016112956810616
1.347553074852985,1.0161129568106162
1.3485497857071662,4.016112956810616
1.3495464965613475,0.016112956810616197
1.3505432074155286,2.016112956810616
1.3515399182697099,4.016112956810616
1.352536629123891,6.016112956810616
1.3535333399780722,6.016112956810616
1.3545300508322535,4.016112956810616
1.3555267616864346,-1.9838870431893838
1.356523472540616,-1.9838870431893838
1.357520183394797,-0.9838870431893838
1.3585168942489783,-2.983887043189384
1.3595136051031596,-3.983887043189384
1.3605103159573406,-2.983887043189384
1.361507026811522,-1.9838870431893838
1.362503737665703,-3.983887043189384
1.3635004485198843,-2.983887043189384
1.3644971593740653,1.0161129568106162
1.3654938702282466,-2.983887043189384
1.366490581082428,0.016112956810616197
1.367487291936609,2.016112956810616
1.3684840027907903,3.016112956810616
1.3694807136449714,4.016112956810616
1.3704774244991527,6.016112956810616
1.371474135353334,4.016112956810616
1.372470846207515,2.016112956810616
1.3734675570616963,3.016112956810616
1.3744642679158774,2.016112956810616
1.3754609787700587,0.016112956810616197
1.37645768962424,-2.983887043189384
1.377454400478421,-1.9838870431893838
1.3784511113326023,-1.9838870431893838
1.3794478221867834,-4.983887043189384
1.3804445330409647,-4.983887043189384
1.381441243895146,-3.983887043189384
1.382437954749327,-1.9838870431893838
1.3834346656035084,1.0161129568106162
1.3844313764576894,0.016112956810616197
1.3854280873118707,1.0161129568106162
1.3864247981660518,0.016112956810616197
1.387421509020233,1.0161129568106162
1.3884182198744144,2.016112956810616
1.3894149307285955,2.016112956810616
1.3904116415827767,3.016112956810616
1.3914083524369578,4.016112956810616
1.3924050632911391,6.016112956810616
1.3934017741453204,5.016112956810616
1.3943984849995015,1.0161129568106162
1.3953951958536828,0.016112956810616197
1.3963919067078638,1.0161129568106162
1.3973886175620451,-2.983887043189384
1.3983853284162264,-2.983887043189384
1.3993820392704075,-5.983887043189384
1.4003787501245888,-7.983887043189384
1.4013754609787699,-4.983887043189384
1.4023721718329512,-3.983887043189384
1.4033688826871322,-2.983887043189384
1.4043655935413135,0.016112956810616197
1.4053623043954948,3.016112956810616
1.4063590152496759,1.0161129568106162
1.4073557261038572,3.016112956810616
1.4083524369580382,3.016112956810616
1.4093491478122195,5.016112956810616
1.4103458586664008,5.016112956810616
1.411342569520582,6.016112956810616
1.4123392803747632,5.016112956810616
1.4133359912289443,5.016112956810616
1.4143327020831256,4.016112956810616
1.4153294129373069,0.016112956810616197
1.416326123791488,-4.983887043189384
1.4173228346456692,-4.983887043189384
1.4183195454998503,-2.983887043189384
1.4193162563540316,-3.983887043189384
1.4203129672082129,-4.983887043189384
1.421309678062394,-3.983887043189384
1.4223063889165752,-3.983887043189384
1.4233030997707563,-3.983887043189384
1.4242998106249376,0.016112956810616197
1.4252965214791187,1.0161129568106162
1.4262932323333,-0.9838870431893838
1.4272899431874813,2.016112956810616
1.4282866540416623,4.016112956810616
1.4292833648958436,0.016112956810616197
1.4302800757500247,4.016112956810616
1.431276786604206,4.016112956810616
1.4322734974583873,4.016112956810616
1.4332702083125684,4.016112956810616
1.4342669191667496,4.016112956810616
1.4352636300209307,0.016112956810616197
1.436260340875112,-1.9838870431893838
1.4372570517292933,-2.983887043189384
1.4382537625834744,-2.983887043189384
1.4392504734376557,-4.983887043189384
1.4402471842918367,-3.983887043189384
1.441243895146018,-4.983887043189384
1.4422406060001993,-1.9838870431893838
1.4432373168543804,-3.983887043189384
1.4442340277085617,-1.9838870431893838
1.4452307385627428,1.0161129568106162
1.446227449416924,-0.9838870431893838
1.4472241602711051,3.016112956810616
1.4482208711252864,4.016112956810616
1.4492175819794677,3.016112956810616
1.4502142928336488,6.016112956810616
1.45121100368783,5.016112956810616
1.4522077145420111,4.016112956810616
1.4532044253961924,4.016112956810616
1.4542011362503737,1.0161129568106162
1.4551978471045548,0.016112956810616197
1.456194557958736,0.016112956810616197
1.4571912688129172,-1.9838870431893838
1.4581879796670985,-2.983887043189384
1.4591846905212797,-6.983887043189384
1.4601814013754608,-4.983887043189384
1.4611781122296421,-4.983887043189384
1.4621748230838232,-7.983887043189384
1.4631715339380045,-2.983887043189384
1.4641682447921855,0.016112956810616197
1.4651649556463668,1.0161129568106162
1.4661616665005481,3.016112956810616
1.4671583773547292,1.0161129568106162
1.4681550882089105,2.016112956810616
1.4691517990630916,4.016112956810616
1.4701485099172729,4.016112956810616
1.4711452207714542,3.016112956810616
1.4721419316256352,4.016112956810616
1.4731386424798165,6.016112956810616
1.4741353533339976,0.016112956810616197
1.4751320641881789,2.016112956810616
1.4761287750423602,-0.9838870431893838
1.4771254858965412,-1.9838870431893838
1.4781221967507225,-2.983887043189384
1.4791189076049036,-4.983887043189384
1.480115618459085,-6.983887043189384
1.4811123293132662,-3.983887043189384
1.4821090401674473,-2.983887043189384
1.4831057510216286,-1.9838870431893838
1.4841024618758096,-3.983887043189384
1.485099172729991,0.016112956810616197
1.486095883584172,0.016112956810616197
1.4870925944383533,3.016112956810616
1.4880893052925346,4.016112956810616
1.4890860161467157,2.016112956810616
1.490082727000897,4.016112956810616
1.491079437855078,5.016112956810616
1.4920761487092593,7.016112956810616
1.4930728595634406,5.016112956810616
1.4940695704176217,3.016112956810616
1.495066281271803,3.016112956810616
1.496062992125984,-0.9838870431893838
1.4970597029801653,-1.9838870431893838
1.4980564138343466,-1.9838870431893838
1.4990531246885277,-5.983887043189384
1.500049835542709,-3.983887043189384
1.50104654639689,-3.983887043189384
1.5020432572510714,-1.9838870431893838
1.5030399681052524,-4.983887043189384
1.5040366789594337,-2.983887043189384
1.505033389813615,0.016112956810616197
1.506030100667796,-0.9838870431893838
1.5070268115219774,2.016112956810616
1.5080235223761584,6.016112956810616
1.5090202332303397,4.016112956810616
1.510016944084521,5.016112956810616
1.511013654938702,5.016112956810616
1.5120103657928834,5.016112956810616
1.5130070766470645,4.016112956810616
1.5140037875012458,1.0161129568106162
1.515000498355427,0.016112956810616197
1.5159972092096081,-3.983887043189384
1.5169939200637894,-0.9838870431893838
1.5179906309179705,-2.983887043189384
1.5189873417721518,-2.983887043189384
1.519984052626333,-3.983887043189384
1.5209807634805141,-3.983887043189384
1.5219774743346954,-3.983887043189384
1.5229741851888765,-1.9838870431893838
1.5239708960430578,-1.9838870431893838
1.5249676068972389,0.016112956810616197
1.5259643177514202,1.0161129568106162
1.5269610286056015,5.016112956810616
1.5279577394597825,4.016112956810616
1.5289544503139638,1.0161129568106162
1.529951161168145,4.016112956810616
1.5309478720223262,3.016112956810616
1.5319445828765075,1.0161129568106162
1.5329412937306885,4.016112956810616
1.5339380045848698,4.016112956810616
1.534934715439051,-1.9838870431893838
1.5359314262932322,1.0161129568106162
1.5369281371474135,-2.983887043189384
1.5379248480015946,-1.9838870431893838
1.5389215588557759,-4.983887043189384
1.539918269709957,-4.983887043189384
1.5409149805641382,-2.983887043189384
1.5419116914183193,-5.983887043189384
1.5429084022725006,-3.983887043189384
1.5439051131266819,-1.9838870431893838
1.544901823980863,1.0161129568106162
1.5458985348350442,0.016112956810616197
1.5468952456892253,3.016112956810616
1.5478919565434066,4.016112956810616
1.548888667397588,3.016112956810616
1.549885378251769,4.016112956810616
1.5508820891059503,4.016112956810616
1.5518787999601313,2.016112956810616
1.5528755108143126,5.016112956810616
1.553872221668494,5.016112956810616
1.554868932522675,0.016112956810616197
1.5558656433768563,-1.9838870431893838
1.5568623542310374,-2.983887043189384
1.5578590650852187,-2.983887043189384
1.5588557759394,-3.983887043189384
1.559852486793581,-2.983887043189384
1.5608491976477623,-5.983887043189384
1.5618459085019434,-2.983887043189384
1.5628426193561247,0.016112956810616197
1.5638393302103057,1.0161129568106162
1.564836041064487,1.0161129568106162
1.5658327519186683,1.0161129568106162
1.5668294627728494,4.016112956810616
1.5678261736270307,1.0161129568106162
1.5688228844812118,3.016112956810616
1.569819595335393,4.016112956810616
1.5708163061895744,4.016112956810616
1.5718130170437554,4.016112956810616
1.5728097278979367,5.016112956810616
1.5738064387521178,0.016112956810616197
1.574803149606299,1.0161129568106162
1.5757998604604804,-0.9838870431893838
1.5767965713146614,-2.983887043189384
1.5777932821688427,-4.983887043189384
1.5787899930230238,-4.983887043189384
1.579786703877205,-6.983887043189384
1.5807834147313862,-4.983887043189384
1.5817801255855675,-3.983887043189384
1.5827768364397488,-1.9838870431893838
1.5837735472939298,0.016112956810616197
1.5847702581481111,-0.9838870431893838
1.5857669690022922,3.016112956810616
1.5867636798564735,0.016112956810616197
1.5877603907106548,3.016112956810616
1.5887571015648358,4.016112956810616
1.5897538124190171,6.016112956810616
1.5907505232731982,4.016112956810616
1.5917472341273795,3.016112956810616
1.5927439449815608,5.016112956810616
1.5937406558357419,3.016112956810616
1.5947373666899232,1.0161129568106162
1.5957340775441042,0.016112956810616197
1.5967307883982855,-0.9838870431893838
1.5977274992524668,-2.983887043189384
1.598724210106648,-3.983887043189384
1.5997209209608292,-3.983887043189384
1.6007176318150103,-4.983887043189384
1.6017143426691915,-6.983887043189384
1.6027110535233726,-3.983887043189384
1.603707764377554,-1.9838870431893838
1.6047044752317352,0.016112956810616197
1.6057011860859163,0.016112956810616197
1.6066978969400976,3.016112956810616
1.6076946077942786,4.016112956810616
1.60869131864846,4.016112956810616
1.6096880295026412,4.016112956810616
1.6106847403568223,5.016112956810616
1.6116814512110036,5.016112956810616
1.6126781620651847,2.016112956810616
1.613674872919366,3.016112956810616
1.6146715837735472,1.0161129568106162
1.6156682946277283,-1.9838870431893838
1.6166650054819096,-0.9838870431893838
1.6176617163360907,-4.983887043189384
1.618658427190272,-4.983887043189384
1.619655138044453,-5.983887043189384
1.6206518488986343,-4.983887043189384
1.6216485597528156,-5.983887043189384
1.6226452706069967,-1.9838870431893838
1.623641981461178,1.0161129568106162
1.624638692315359,-0.9838870431893838
1.6256354031695404,0.016112956810616197
1.6266321140237217,2.016112956810616
1.6276288248779027,2.016112956810616
1.628625535732084,6.016112956810616
1.629622246586265,5.016112956810616
1.6306189574404464,5.016112956810616
1.6316156682946277,3.016112956810616
1.6326123791488087,5.016112956810616
1.63360909000299,2.016112956810616
1.634605800857171,0.016112956810616197
1.6356025117113524,-0.9838870431893838
1.6365992225655337,-2.983887043189384
1.6375959334197148,-1.9838870431893838
1.638592644273896,-3.983887043189384
1.6395893551280771,-3.983887043189384
1.6405860659822584,-3.983887043189384
1.6415827768364395,-4.983887043189384
1.6425794876906208,-1.9838870431893838
1.643576198544802,-2.983887043189384
1.6445729093989832,-0.9838870431893838
1.6455696202531644,2.016112956810616
1.6465663311073455,3.016112956810616
1.6475630419615268,4.016112956810616
1.648559752815708,5.016112956810616
1.6495564636698892,7.016112956810616
1.6505531745240705,6.016112956810616
1.6515498853782515,4.016112956810616
1.6525465962324328,4.016112956810616
1.6535433070866141,1.0161129568106162
1.6545400179407952,1.0161129568106162
1.6555367287949765,0.016112956810616197
1.6565334396491576,-3.983887043189384
1.6575301505033389,-4.983887043189384
1.6585268613575201,-4.983887043189384
1.6595235722117012,-4.983887043189384
1.6605202830658825,-4.983887043189384
1.6615169939200636,-4.983887043189384
1.6625137047742449,-2.983887043189384
1.663510415628426,-1.9838870431893838
1.6645071264826072,-1.9838870431893838
1.6655038373367885,1.0161129568106162
1.6665005481909696,4.016112956810616
1.667497259045151,3.016112956810616
1.668493969899332,1.0161129568106162
1.6694906807535133,6.016112956810616
1.6704873916076945,5.016112956810616
1.6714841024618756,3.016112956810616
1.672480813316057,4.016112956810616
1.673477524170238,2.016112956810616
1.6744742350244193,1.0161129568106162
1.6754709458786006,-1.9838870431893838
1.6764676567327816,-1.9838870431893838
1.677464367586963,-1.9838870431893838
1.678461078441144,-4.983887043189384
1.6794577892953253,-6.983887043189384
1.6804545001495064,-4.983887043189384
1.6814512110036877,-4.983887043189384
1.682447921857869,-0.9838870431893838
1.68344463271205,0.016112956810616197
1.6844413435662313,0.016112956810616197
1.6854380544204124,-1.9838870431893838
1.6864347652745937,2.016112956810616
1.687431476128775,3.016112956810616
1.688428186982956,4.016112956810616
1.6894248978371373,5.016112956810616
1.6904216086913184,4.016112956810616
1.6914183195454997,4.016112956810616
1.692415030399681,4.016112956810616
1.693411741253862,4.016112956810616
1.6944084521080434,2.016112956810616
1.6954051629622244,-0.9838870431893838
1.6964018738164057,-3.983887043189384
1.697398584670587,-3.983887043189384
1.698395295524768,-3.983887043189384
1.6993920063789494,-5.983887043189384
1.7003887172331305,-6.983887043189384
1.7013854280873117,-3.983887043189384
1.7023821389414928,-2.983887043189384
1.703378849795674,-0.9838870431893838
1.7043755606498554,0.016112956810616197
1.7053722715040365,1.0161129568106162
1.7063689823582178,1.0161129568106162
1.7073656932123988,4.016112956810616
1.7083624040665801,1.0161129568106162
1.7093591149207614,3.016112956810616
1.7103558257749425,2.016112956810616
1.7113525366291238,5.016112956810616
1.7123492474833049,6.016112956810616
1.7133459583374862,4.016112956810616
1.7143426691916674,3.016112956810616
1.7153393800458485,1.0161129568106162
1.7163360909000298,-0.9838870431893838
1.7173328017542109,-0.9838870431893838
1.7183295126083922,-4.983887043189384
1.7193262234625732,-4.983887043189384
1.7203229343167545,-3.983887043189384
1.7213196451709358,-5.983887043189384
1.722316356025117,-2.983887043189384
1.7233130668792982,1.0161129568106162
1.7243097777334793,-2.983887043189384
1.7253064885876606,-0.9838870431893838
1.7263031994418419,4.016112956810616
1.727299910296023,5.016112956810616
1.7282966211502042,2.016112956810616
1.7292933320043853,0.016112956810616197
1.7302900428585666,6.016112956810616
1.7312867537127479,3.016112956810616
1.732283464566929,1.0161129568106162
1.7332801754211102,4.016112956810616
1.7342768862752913,1.0161129568106162
1.7352735971294726,-0.9838870431893838
1.736270307983654,0.016112956810616197
1.737267018837835,-4.983887043189384
1.7382637296920163,-6.983887043189384
1.7392604405461973,-7.983887043189384
1.7402571514003786,-6.983887043189384
1.7412538622545597,-4.983887043189384
1.742250573108741,-4.983887043189384
1.7432472839629223,-4.983887043189384
1.7442439948171033,-1.9838870431893838
1.7452407056712846,1.0161129568106162
1.7462374165254657,5.016112956810616
1.747234127379647,9.016112956810616
1.7482308382338283,5.016112956810616
1.7492275490880094,11.016112956810616
1.7502242599421907,10.016112956810616
1.7512209707963717,5.016112956810616
1.752217681650553,7.016112956810616
1.7532143925047343,3.016112956810616
1.7542111033589154,1.0161129568106162
1.7552078142130967,-4.983887043189384
1.7562045250672778,-2.983887043189384
1.757201235921459,1.0161129568106162
1.7581979467756401,0.016112956810616197
1.7591946576298214,-4.983887043189384
1.7601913684840027,-10.983887043189384
1.7611880793381838,-7.983887043189384
1.762184790192365,-7.983887043189384
1.7631815010465461,-4.983887043189384
1.7641782119007274,-4.983887043189384
1.7651749227549087,-4.983887043189384
1.7661716336090898,-3.983887043189384
1.767168344463271,-2.983887043189384
1.7681650553174522,4.016112956810616
1.7691617661716335,4.016112956810616
1.7701584770258147,4.016112956810616
1.7711551878799958,2.016112956810616
1.7721518987341771,6.016112956810616
1.7731486095883582,8.016112956810616
1.7741453204425395,8.016112956810616
1.7751420312967208,13.016112956810616
1.7761387421509018,17.016112956810616
1.7771354530050831,12.016112956810616
1.7781321638592642,3.016112956810616
1.7791288747134455,-11.983887043189384
1.7801255855676266,-15.983887043189384
1.7811222964218079,-11.983887043189384
1.7821190072759892,0.016112956810616197
1.7831157181301702,0.016112956810616197
1.7841124289843515,-7.983887043189384
1.7851091398385326,-9.983887043189384
1.7861058506927139,-5.983887043189384
1.7871025615468952,-4.983887043189384
1.7880992724010762,-8.983887043189384
1.7890959832552575,-5.983887043189384
1.7900926941094386,-6.983887043189384
1.79108940496362,1.0161129568106162
1.7920861158178012,4.016112956810616
1.7930828266719823,2.016112956810616
1.7940795375261636,12.016112956810616
1.7950762483803446,6.016112956810616
1.796072959234526,1.0161129568106162
1.797069670088707,0.016112956810616197
1.7980663809428883,2.016112956810616
1.7990630917970696,12.016112956810616
1.8000598026512507,18.016112956810616
1.801056513505432,-0.9838870431893838
1.802053224359613,-4.983887043189384
1.8030499352137943,-3.983887043189384
1.8040466460679756,-15.983887043189384
1.8050433569221567,-30.983887043189384
1.806040067776338,-23.983887043189384
1.807036778630519,-15.983887043189384
1.8080334894847003,-3.983887043189384
1.8090302003388816,2.016112956810616
1.8100269111930627,11.016112956810616
1.811023622047244,27.016112956810616
1.812020332901425,40.016112956810616
1.8130170437556064,30.016112956810616
1.8140137546097876,5.016112956810616
1.8150104654639687,-8.983887043189384
1.81600717631815,-30.983887043189384
1.817003887172331,-39.983887043189384
1.8180005980265124,-40.983887043189384
1.8189973088806934,-26.983887043189384
1.8199940197348747,-2.983887043189384
1.820990730589056,41.016112956810616
1.821987441443237,63.016112956810616
1.8229841522974184,59.016112956810616
1.8239808631515995,48.016112956810616
1.8249775740057808,24.016112956810616
1.825974284859962,-1.9838870431893838
1.8269709957141431,-20.983887043189384
1.8279677065683244,-33.983887043189384
1.8289644174225055,-26.983887043189384
1.8299611282766868,-20.983887043189384
1.830957839130868,-12.983887043189384
1.8319545499850491,-5.983887043189384
1.8329512608392304,-9.983887043189384
1.8339479716934115,-7.983887043189384
1.8349446825475928,-14.983887043189384
1.8359413934017739,4.016112956810616
1.8369381042559552,13.016112956810616
1.8379348151101365,0.016112956810616197
1.8389315259643175,-2.983887043189384
1.8399282368184988,-17.983887043189384
1.84092494767268,-20.983887043189384
1.8419216585268612,-27.983887043189384
1.8429183693810425,-31.983887043189384
1.8439150802352235,13.016112956810616
1.8449117910894048,45.016112956810616
1.845908501943586,48.016112956810616
1.8469052127977672,71.01611295681062
1.8479019236519485,73.01611295681062
1.8488986345061296,48.016112956810616
1.8498953453603109,4.016112956810616
1.850892056214492,-27.983887043189384
1.8518887670686732,-0.9838870431893838
1.8528854779228545,8.016112956810616
1.8538821887770356,-19.983887043189384
1.8548788996312169,-33.983887043189384
1.855875610485398,-46.983887043189384
1.8568723213395792,-52.983887043189384
1.8578690321937603,-48.983887043189384
1.8588657430479416,-40.983887043189384
1.859862453902123,-41.983887043189384
1.860859164756304,-46.983887043189384
1.8618558756104853,-55.983887043189384
1.8628525864646663,-10.983887043189384
1.8638492973188476,43.016112956810616
1.864846008173029,70.01611295681062
1.86584271902721,118.01611295681062
1.8668394298813913,120.01611295681062
1.8678361407355724,66.01611295681062
1.8688328515897537,20.016112956810616
1.869829562443935,-28.983887043189384
1.870826273298116,-36.983887043189384
1.8718229841522973,-5.983887043189384
1.8728196950064784,28.016112956810616
1.8738164058606597,-19.983887043189384
1.8748131167148407,-42.983887043189384
1.875809827569022,-6.983887043189384
1.8768065384232033,-38.983887043189384
1.8778032492773844,-67.98388704318938
1.8787999601315657,-70.98388704318938
1.8797966709857468,-70.98388704318938
1.880793381839928,-34.983887043189384
1.8817900926941094,-3.983887043189384
1.8827868035482904,7.016112956810616
1.8837835144024717,26.016112956810616
1.8847802252566528,14.016112956810616
1.885776936110834,10.016112956810616
1.8867736469650154,26.016112956810616
1.8877703578191964,44.016112956810616
1.8887670686733777,50.016112956810616
1.8897637795275588,120.01611295681062
1.89076049038174,97.01611295681062
1.8917572012359214,42.016112956810616
1.8927539120901025,47.016112956810616
1.8937506229442838,16.016112956810616
1.8947473337984648,-12.983887043189384
1.8957440446526461,-56.983887043189384
1.8967407555068272,-54.983887043189384
1.8977374663610085,-44.983887043189384
1.8987341772151898,-62.983887043189384
1.8997308880693708,-71.98388704318938
1.9007275989235521,-88.98388704318938
1.9017243097777332,-68.98388704318938
1.9027210206319145,-34.983887043189384
1.9037177314860958,20.016112956810616
1.9047144423402769,45.016112956810616
1.9057111531944582,50.016112956810616
1.9067078640486392,105.01611295681062
1.9077045749028205,89.01611295681062
1.9087012857570018,47.016112956810616
1.909697996611183,5.016112956810616
1.9106947074653642,21.016112956810616
1.9116914183195453,-14.983887043189384
1.9126881291737265,-32.983887043189384
1.9136848400279076,-56.983887043189384
1.914681550882089,-62.983887043189384
1.9156782617362702,-19.983887043189384
1.9166749725904513,3.016112956810616
1.9176716834446326,-41.983887043189384
1.9186683942988136,-86.98388704318938
1.919665105152995,-58.983887043189384
1.9206618160071762,-10.983887043189384
1.9216585268613573,5.016112956810616
1.9226552377155386,-5.983887043189384
1.9236519485697197,28.016112956810616
1.924648659423901,117.01611295681062
1.9256453702780822,144.01611295681062
1.9266420811322633,77.01611295681062
1.9276387919864446,36.016112956810616
1.9286355028406257,-29.983887043189384
1.929632213694807,-63.983887043189384
1.9306289245489883,-66.98388704318938
1.9316256354031693,-35.983887043189384
1.9326223462573506,-12.983887043189384
1.9336190571115317,21.016112956810616
1.934615767965713,28.016112956810616
1.935612478819894,30.016112956810616
1.9366091896740754,3.016112956810616
1.9376059005282567,11.016112956810616
1.9386026113824377,-8.983887043189384
1.939599322236619,-85.98388704318938
1.9405960330908,-100.98388704318938
1.9415927439449814,-93.98388704318938
1.9425894547991627,-36.983887043189384
1.9435861656533437,52.016112956810616
1.944582876507525,109.01611295681062
1.945579587361706,87.01611295681062
1.9465762982158874,44.016112956810616
1.9475730090700687,-9.983887043189384
1.9485697199242498,5.016112956810616
1.949566430778431,23.016112956810616
1.9505631416326121,65.01611295681062
1.9515598524867934,33.016112956810616
1.9525565633409747,-10.983887043189384
1.9535532741951558,-42.983887043189384
1.954549985049337,-41.983887043189384
1.9555466959035182,-13.983887043189384
1.9565434067576994,-10.983887043189384
1.9575401176118805,-18.983887043189384
1.9585368284660618,-24.983887043189384
1.959533539320243,-27.983887043189384
1.9605302501744242,-35.983887043189384
1.9615269610286055,-57.983887043189384
1.9625236718827865,-29.983887043189384
1.9635203827369678,-5.983887043189384
1.9645170935911491,44.016112956810616
1.9655138044453302,54.016112956810616
1.9665105152995115,8.016112956810616
1.9675072261536926,-45.983887043189384
1.9685039370078738,-37.983887043189384
1.9695006478620551,58.016112956810616
1.9704973587162362,118.01611295681062
1.9714940695704175,105.01611295681062
1.9724907804245986,90.01611295681062
1.9734874912787799,45.016112956810616
1.974484202132961,-30.983887043189384
1.9754809129871422,-105.98388704318938
1.9764776238413235,-99.98388704318938
1.9774743346955046,-84.98388704318938
1.978471045549686,-52.983887043189384
1.979467756403867,-41.983887043189384
1.9804644672580483,-2.983887043189384
1.9814611781122295,13.016112956810616
1.9824578889664106,5.016112956810616
1.983454599820592,27.016112956810616
1.984451310674773,39.016112956810616
1.9854480215289543,28.016112956810616
1.9864447323831356,30.016112956810616
1.9874414432373166,33.016112956810616
1.988438154091498,41.016112956810616
1.989434864945679,53.016112956810616
1.9904315757998603,53.016112956810616
1.9914282866540416,6.016112956810616
1.9924249975082227,-44.983887043189384
1.993421708362404,-18.983887043189384
1.994418419216585,8.016112956810616
1.9954151300707663,-10.983887043189384
1.9964118409249474,-57.983887043189384
1.9974085517791287,-89.98388704318938
1.99840526263331,-105.98388704318938
1.999401973487491,-58.983887043189384
2.0003986843416723,-10.983887043189384
2.0013953951958534,3.016112956810616
2.0023921060500345,33.016112956810616
2.003388816904216,104.01611295681062
2.004385527758397,114.01611295681062
2.005382238612578,53.016112956810616
2.0063789494667597,-5.983887043189384
2.0073756603209407,-51.983887043189384
2.008372371175122,-75.98388704318938
2.0093690820293033,-12.983887043189384
2.0103657928834844,88.01611295681062
2.0113625037376655,55.016112956810616
2.0123592145918465,0.016112956810616197
2.013355925446028,-52.983887043189384
2.014352636300209,-91.98388704318938
2.01534934715439,-47.983887043189384
2.0163460580085717,-22.983887043189384
2.0173427688627528,8.016112956810616
2.018339479716934,56.016112956810616
2.0193361905711154,52.016112956810616
2.0203329014252964,72.01611295681062
2.0213296122794775,7.016112956810616
2.0223263231336586,2.016112956810616
2.02332303398784,12.016112956810616
2.024319744842021,16.016112956810616
2.0253164556962022,3.016112956810616
2.0263131665503837,-21.983887043189384
2.027309877404565,-33.983887043189384
2.028306588258746,-47.983887043189384
2.029303299112927,-64.98388704318938
2.0303000099671085,-62.983887043189384
2.0312967208212895,-31.983887043189384
2.0322934316754706,22.016112956810616
2.033290142529652,47.016112956810616
2.034286853383833,12.016112956810616
2.0352835642380143,55.016112956810616
2.036280275092196,53.016112956810616
2.037276985946377,20.016112956810616
2.038273696800558,-54.983887043189384
2.039270407654739,-72.98388704318938
2.0402671185089205,-28.983887043189384
2.0412638293631016,17.016112956810616
2.0422605402172826,22.016112956810616
2.043257251071464,19.016112956810616
2.0442539619256452,-10.983887043189384
2.0452506727798263,17.016112956810616
2.0462473836340074,28.016112956810616
2.047244094488189,65.01611295681062
2.04824080534237,96.01611295681062
2.049237516196551,42.016112956810616
2.0502342270507325,-83.98388704318938
2.0512309379049136,-107.98388704318938
2.0522276487590947,-102.98388704318938
2.053224359613276,-39.983887043189384
2.0542210704674573,43.016112956810616
2.0552177813216383,47.016112956810616
2.0562144921758194,-8.983887043189384
2.057211203030001,-4.983887043189384
2.058207913884182,-19.983887043189384
2.059204624738363,-21.983887043189384
2.0602013355925446,-39.983887043189384
2.0611980464467257,-11.983887043189384
2.0621947573009067,61.016112956810616
2.063191468155088,81.01611295681062
2.0641881790092693,67.01611295681062
2.0651848898634504,26.016112956810616
2.0661816007176315,-9.983887043189384
2.067178311571813,-9.983887043189384
2.068175022425994,-40.983887043189384
2.069171733280175,-65.98388704318938
2.0701684441343566,-27.983887043189384
2.0711651549885377,48.016112956810616
2.0721618658427188,63.016112956810616
2.0731585766969,49.016112956810616
2.0741552875510814,51.016112956810616
2.0751519984052624,-12.983887043189384
2.0761487092594435,-42.983887043189384
2.077145420113625,-49.983887043189384
2.078142130967806,-45.983887043189384
2.079138841821987,-52.983887043189384
2.0801355526761687,-39.983887043189384
2.0811322635303497,-17.983887043189384
2.082128974384531,-10.983887043189384
2.083125685238712,14.016112956810616
2.0841223960928934,38.016112956810616
2.0851191069470745,14.016112956810616
2.0861158178012555,13.016112956810616
2.087112528655437,19.016112956810616
2.088109239509618,28.016112956810616
2.089105950363799,10.016112956810616
2.0901026612179803,-9.983887043189384
2.091099372072162,-4.983887043189384
2.092096082926343,-19.983887043189384
2.093092793780524,-17.983887043189384
2.0940895046347054,-23.983887043189384
2.0950862154888865,22.016112956810616
2.0960829263430676,44.016112956810616
2.097079637197249,36.016112956810616
2.09807634805143,62.016112956810616
2.0990730589056112,34.016112956810616
2.1000697697597923,-36.983887043189384
2.101066480613974,-96.98388704318938
2.102063191468155,-126.98388704318938
2.103059902322336,-87.98388704318938
2.1040566131765175,-29.983887043189384
2.1050533240306986,59.016112956810616
2.1060500348848796,107.01611295681062
2.1070467457390607,119.01611295681062
2.108043456593242,83.01611295681062
2.1090401674474233,11.016112956810616
2.1100368783016044,-31.983887043189384
2.111033589155786,-27.983887043189384
2.112030300009967,-14.983887043189384
2.113027010864148,-22.983887043189384
2.1140237217183295,-16.983887043189384
2.1150204325725106,-7.983887043189384
2.1160171434266917,-5.983887043189384
2.1170138542808727,0.016112956810616197
2.1180105651350543,-1.9838870431893838
2.1190072759892353,-10.983887043189384
2.1200039868434164,-10.983887043189384
2.121000697697598,-10.983887043189384
2.121997408551779,-8.983887043189384
2.12299411940596,-9.983887043189384
2.123990830260141,0.016112956810616197
2.1249875411143226,3.016112956810616
2.1259842519685037,3.016112956810616
2.126980962822685,2.016112956810616
2.1279776736768663,11.016112956810616
2.1289743845310474,10.016112956810616
2.1299710953852284,0.016112956810616197
2.13096780623941,-1.9838870431893838
2.131964517093591,4.016112956810616
2.132961227947772,8.016112956810616
2.133957938801953,7.016112956810616
2.1349546496561347,6.016112956810616
2.1359513605103158,2.016112956810616
2.136948071364497,-2.983887043189384
2.1379447822186783,-7.983887043189384
2.1389414930728594,-2.983887043189384
2.1399382039270405,-1.9838870431893838
2.1409349147812216,-4.983887043189384
2.141931625635403,-3.983887043189384
2.142928336489584,0.016112956810616197
2.143925047343765,0.016112956810616197
2.1449217581979467,1.0161129568106162
2.145918469052128,4.016112956810616
2.146915179906309,6.016112956810616
2.1479118907604904,4.016112956810616
2.1489086016146715,2.016112956810616
2.1499053124688525,2.016112956810616
2.1509020233230336,1.0161129568106162
2.151898734177215,0.016112956810616197
2.152895445031396,-2.983887043189384
2.1538921558855773,-2.983887043189384
2.1548888667397588,-6.983887043189384
2.15588557759394,-6.983887043189384
2.156882288448121,-9.983887043189384
2.1578789993023024,-17.983887043189384
2.1588757101564835,-4.983887043189384
2.1598724210106646,9.016112956810616
2.1608691318648456,15.016112956810616
2.161865842719027,-1.9838870431893838
2.1628625535732082,-11.983887043189384
2.1638592644273893,4.016112956810616
2.164855975281571,27.016112956810616
2.165852686135752,17.016112956810616
2.166849396989933,11.016112956810616
2.167846107844114,12.016112956810616
2.1688428186982955,-1.9838870431893838
2.1698395295524766,-17.983887043189384
2.1708362404066577,-13.983887043189384
2.171832951260839,-7.983887043189384
2.1728296621150203,-1.9838870431893838
2.1738263729692013,-0.9838870431893838
2.174823083823383,-3.983887043189384
2.175819794677564,-3.983887043189384
2.176816505531745,-2.983887043189384
2.177813216385926,-1.9838870431893838
2.1788099272401076,-3.983887043189384
2.1798066380942887,-4.983887043189384
2.1808033489484697,-4.983887043189384
2.1818000598026512,-7.983887043189384
2.1827967706568323,-1.9838870431893838
2.1837934815110134,-2.983887043189384
2.1847901923651945,-3.983887043189384
2.185786903219376,3.016112956810616
2.186783614073557,6.016112956810616
2.187780324927738,20.016112956810616
2.1887770357819196,24.016112956810616
2.1897737466361007,24.016112956810616
2.1907704574902818,14.016112956810616
2.1917671683444633,1.0161129568106162
2.1927638791986444,-6.983887043189384
2.1937605900528254,-10.983887043189384
2.1947573009070065,-7.983887043189384
2.195754011761188,-6.983887043189384
2.196750722615369,-5.983887043189384
2.19774743346955,-8.983887043189384
2.1987441443237317,-10.983887043189384
2.1997408551779127,-2.983887043189384
2.200737566032094,-3.983887043189384
2.201734276886275,-1.9838870431893838
2.2027309877404564,-2.983887043189384
2.2037276985946375,-3.983887043189384
2.2047244094488185,-12.983887043189384
2.205721120303,-14.983887043189384
2.206717831157181,1.0161129568106162
2.207714542011362,19.016112956810616
2.2087112528655437,24.016112956810616
2.2097079637197248,27.016112956810616
2.210704674573906,21.016112956810616
2.211701385428087,3.016112956810616
2.2126980962822684,-3.983887043189384
2.2136948071364495,0.016112956810616197
2.2146915179906306,-1.9838870431893838
2.215688228844812,-0.9838870431893838
2.216684939698993,-8.983887043189384
2.2176816505531742,-13.983887043189384
2.2186783614073553,-12.983887043189384
2.219675072261537,-7.983887043189384
2.220671783115718,-8.983887043189384
2.221668493969899,-3.983887043189384
2.2226652048240805,-1.9838870431893838
2.2236619156782615,-0.9838870431893838
2.2246586265324426,4.016112956810616
2.225655337386624,5.016112956810616
2.226652048240805,1.0161129568106162
2.2276487590949863,-3.983887043189384
2.2286454699491673,-3.983887043189384
2.229642180803349,-7.983887043189384
2.23063889165753,-2.983887043189384
2.231635602511711,0.016112956810616197
2.2326323133658925,-1.9838870431893838
2.2336290242200736,4.016112956810616
2.2346257350742547,22.016112956810616
2.235622445928436,22.016112956810616
2.2366191567826172,25.016112956810616
2.2376158676367983,40.016112956810616
2.2386125784909794,5.016112956810616
2.239609289345161,-23.983887043189384
2.240606000199342,-19.983887043189384
2.241602711053523,-21.983887043189384
2.2425994219077046,-19.983887043189384
2.2435961327618856,-11.983887043189384
2.2445928436160667,-3.983887043189384
2.2455895544702478,1.0161129568106162
2.2465862653244293,1.0161129568106162
2.2475829761786104,4.016112956810616
2.2485796870327914,4.016112956810616
2.249576397886973,5.016112956810616
2.250573108741154,4.016112956810616
2.251569819595335,0.016112956810616197
2.2525665304495166,-2.983887043189384
2.2535632413036977,2.016112956810616
2.2545599521578787,-1.9838870431893838
2.25555666301206,4.016112956810616
2.2565533738662413,2.016112956810616
2.2575500847204224,-3.983887043189384
2.2585467955746035,-6.983887043189384
2.259543506428785,-1.9838870431893838
2.260540217282966,6.016112956810616
2.261536928137147,4.016112956810616
2.262533638991328,4.016112956810616
2.2635303498455097,3.016112956810616
2.264527060699691,4.016112956810616
2.265523771553872,-3.983887043189384
2.2665204824080534,-2.983887043189384
2.2675171932622344,6.016112956810616
2.2685139041164155,6.016112956810616
2.269510614970597,4.016112956810616
2.270507325824778,4.016112956810616
2.271504036678959,-2.983887043189384
2.2725007475331402,-2.983887043189384
2.2734974583873218,-3.983887043189384
2.274494169241503,-4.983887043189384
2.275490880095684,-3.983887043189384
2.2764875909498654,-8.983887043189384
2.2774843018040465,-11.983887043189384
2.2784810126582276,-10.983887043189384
2.2794777235124086,1.0161129568106162
2.28047443436659,22.016112956810616
2.281471145220771,21.016112956810616
2.2824678560749523,-1.9838870431893838
2.283464566929134,-13.983887043189384
2.284461277783315,-6.983887043189384
2.285457988637496,0.016112956810616197
2.2864546994916775,6.016112956810616
2.2874514103458585,9.016112956810616
2.2884481212000396,3.016112956810616
2.2894448320542207,8.016112956810616
2.290441542908402,0.016112956810616197
2.2914382537625833,-15.983887043189384
2.2924349646167643,-17.983887043189384
2.293431675470946,-1.9838870431893838
2.294428386325127,20.016112956810616
2.295425097179308,20.016112956810616
2.2964218080334895,7.016112956810616
2.2974185188876706,1.0161129568106162
2.2984152297418516,-4.983887043189384
2.2994119405960327,-6.983887043189384
2.3004086514502142,-15.983887043189384
2.3014053623043953,-13.983887043189384
2.3024020731585764,-10.983887043189384
2.303398784012758,-6.983887043189384
2.304395494866939,0.016112956810616197
2.30539220572112,1.0161129568106162
2.306388916575301,4.016112956810616
2.3073856274294826,4.016112956810616
2.3083823382836637,4.016112956810616
2.3093790491378448,0.016112956810616197
2.3103757599920263,-0.9838870431893838
2.3113724708462073,-6.983887043189384
2.3123691817003884,-7.983887043189384
2.31336589255457,-8.983887043189384
2.314362603408751,-5.983887043189384
2.315359314262932,16.016112956810616
2.316356025117113,36.016112956810616
2.3173527359712947,26.016112956810616
2.3183494468254757,-5.983887043189384
2.319346157679657,-19.983887043189384
2.3203428685338383,-11.983887043189384
2.3213395793880194,-3.983887043189384
2.3223362902422005,-1.9838870431893838
2.3233330010963815,-5.983887043189384
2.324329711950563,-8.983887043189384
2.325326422804744,-1.9838870431893838
2.326323133658925,2.016112956810616
2.3273198445131067,9.016112956810616
2.3283165553672878,7.016112956810616
2.329313266221469,5.016112956810616
2.3303099770756504,3.016112956810616
2.3313066879298314,3.016112956810616
2.3323033987840125,-1.9838870431893838
2.3333001096381936,-7.983887043189384
2.334296820492375,-11.983887043189384
2.335293531346556,-14.983887043189384
2.336290242200737,-0.9838870431893838
2.3372869530549187,-2.983887043189384
2.3382836639091,-8.983887043189384
2.339280374763281,1.0161129568106162
2.340277085617462,7.016112956810616
2.3412737964716435,0.016112956810616197
2.3422705073258245,1.0161129568106162
2.3432672181800056,5.016112956810616
2.344263929034187,30.016112956810616
2.345260639888368,25.016112956810616
2.3462573507425493,10.016112956810616
2.347254061596731,10.016112956810616
2.348250772450912,14.016112956810616
2.349247483305093,5.016112956810616
2.350244194159274,-5.983887043189384
2.3512409050134555,-9.983887043189384
2.3522376158676366,-9.983887043189384
2.3532343267218176,-8.983887043189384
2.354231037575999,-9.983887043189384
2.3552277484301802,-7.983887043189384
2.3562244592843613,-10.983887043189384
2.3572211701385424,-10.983887043189384
2.358217880992724,-9.983887043189384
2.359214591846905,-6.983887043189384
2.360211302701086,-4.983887043189384
2.3612080135552675,-6.983887043189384
2.3622047244094486,2.016112956810616
2.3632014352636297,4.016112956810616
2.364198146117811,13.016112956810616
2.3651948569719923,13.016112956810616
2.3661915678261733,8.016112956810616
2.3671882786803544,2.016112956810616
2.368184989534536,3.016112956810616
2.369181700388717,4.016112956810616
2.370178411242898,4.016112956810616
2.3711751220970796,-0.9838870431893838
2.3721718329512607,-0.9838870431893838
2.3731685438054417,-1.9838870431893838
2.3741652546596232,-4.983887043189384
2.3751619655138043,-4.983887043189384
2.3761586763679854,-3.983887043189384
2.3771553872221665,-4.983887043189384
2.378152098076348,-4.983887043189384
2.379148808930529,-1.9838870431893838
2.38014551978471,-0.9838870431893838
2.3811422306388916,-1.9838870431893838
2.3821389414930727,4.016112956810616
2.3831356523472538,2.016112956810616
2.384132363201435,3.016112956810616
2.3851290740556164,3.016112956810616
2.3861257849097974,2.016112956810616
2.3871224957639785,6.016112956810616
2.38811920661816,6.016112956810616
2.389115917472341,5.016112956810616
2.390112628326522,2.016112956810616
2.3911093391807037,1.0161129568106162
2.3921060500348847,1.0161129568106162
2.393102760889066,-0.9838870431893838
2.394099471743247,-4.983887043189384
2.3950961825974284,-3.983887043189384
2.3960928934516095,-4.983887043189384
2.3970896043057905,-5.983887043189384
2.398086315159972,-4.983887043189384
2.399083026014153,-4.983887043189384
2.400079736868334,-2.983887043189384
2.4010764477225153,-2.983887043189384
2.402073158576697,-0.9838870431893838
2.403069869430878,2.016112956810616
2.404066580285059,-1.9838870431893838
2.4050632911392404,1.0161129568106162
2.4060600019934215,-1.9838870431893838
2.4070567128476026,-0.9838870431893838
2.408053423701784,2.016112956810616
2.409050134555965,8.016112956810616
2.4100468454101462,15.016112956810616
2.4110435562643273,10.016112956810616
2.412040267118509,4.016112956810616
2.41303697797269,5.016112956810616
2.414033688826871,1.0161129568106162
2.4150303996810525,-2.983887043189384
2.4160271105352336,-7.983887043189384
2.4170238213894146,-6.983887043189384
2.4180205322435957,-7.983887043189384
2.419017243097777,-7.983887043189384
2.4200139539519583,-4.983887043189384
2.4210106648061394,-5.983887043189384
2.422007375660321,-1.9838870431893838
2.423004086514502,0.016112956810616197
2.424000797368683,4.016112956810616
2.4249975082228645,4.016112956810616
2.4259942190770456,5.016112956810616
2.4269909299312267,6.016112956810616
2.4279876407854077,6.016112956810616
2.4289843516395893,3.016112956810616
2.4299810624937703,3.016112956810616
2.4309777733479514,1.0161129568106162
2.431974484202133,3.016112956810616
2.432971195056314,0.016112956810616197
2.433967905910495,-4.983887043189384
2.434964616764676,-5.983887043189384
2.4359613276188576,-5.983887043189384
2.4369580384730387,-2.983887043189384
2.43795474932722,-3.983887043189384
2.4389514601814013,-4.983887043189384
2.4399481710355824,-1.9838870431893838
2.4409448818897634,-2.983887043189384
2.441941592743945,1.0161129568106162
2.442938303598126,0.016112956810616197
2.443935014452307,2.016112956810616
2.444931725306488,5.016112956810616
2.4459284361606697,4.016112956810616
2.4469251470148508,6.016112956810616
2.447921857869032,5.016112956810616
2.4489185687232133,4.016112956810616
2.4499152795773944,7.016112956810616
2.4509119904315755,3.016112956810616
2.451908701285757,0.016112956810616197
2.452905412139938,-1.9838870431893838
2.453902122994119,-2.983887043189384
2.4548988338483,-2.983887043189384
2.4558955447024817,-3.983887043189384
2.456892255556663,-7.983887043189384
2.457888966410844,-4.983887043189384
2.4588856772650254,-3.983887043189384
2.4598823881192065,-2.983887043189384
2.4608790989733875,-0.9838870431893838
2.4618758098275686,1.0161129568106162
2.46287252068175,2.016112956810616
2.463869231535931,3.016112956810616
2.4648659423901123,3.016112956810616
2.4658626532442938,3.016112956810616
2.466859364098475,6.016112956810616
2.467856074952656,6.016112956810616
2.4688527858068374,2.016112956810616
2.4698494966610185,5.016112956810616
2.4708462075151996,4.016112956810616
2.4718429183693806,2.016112956810616
2.472839629223562,2.016112956810616
2.4738363400777432,-1.9838870431893838
2.4748330509319243,-2.983887043189384
2.475829761786106,-5.983887043189384
2.476826472640287,-3.983887043189384
2.477823183494468,-2.983887043189384
2.478819894348649,-4.983887043189384
2.4798166052028305,-2.983887043189384
2.4808133160570116,-2.983887043189384
2.4818100269111927,0.016112956810616197
2.482806737765374,0.016112956810616197
2.4838034486195553,3.016112956810616
2.4848001594737363,4.016112956810616
2.485796870327918,6.016112956810616
2.486793581182099,3.016112956810616
2.48779029203628,5.016112956810616
2.488787002890461,6.016112956810616
2.4897837137446426,3.016112956810616
2.4907804245988237,1.0161129568106162
2.4917771354530047,1.0161129568106162
2.4927738463071862,-1.9838870431893838
2.4937705571613673,-1.9838870431893838
2.4947672680155484,-2.983887043189384
2.4957639788697294,-3.983887043189384
2.496760689723911,-7.983887043189384
2.497757400578092,-6.983887043189384
2.498754111432273,-2.983887043189384
2.4997508222864546,-2.983887043189384
2.5007475331406357,-2.983887043189384
2.5017442439948168,-1.9838870431893838
2.5027409548489983,0.016112956810616197
2.5037376657031793,-1.9838870431893838
2.5047343765573604,2.016112956810616
2.5057310874115415,4.016112956810616
2.506727798265723,4.016112956810616
2.507724509119904,4.016112956810616
2.508721219974085,3.016112956810616
2.5097179308282667,3.016112956810616
2.5107146416824477,2.016112956810616
2.511711352536629,-2.983887043189384
2.51270806339081,-0.9838870431893838
2.5137047742449914,-1.9838870431893838
2.5147014850991725,-3.983887043189384
2.5156981959533535,-5.983887043189384
2.516694906807535,-6.983887043189384
2.517691617661716,-4.983887043189384
2.518688328515897,-5.983887043189384
2.5196850393700787,-0.9838870431893838
2.5206817502242598,-0.9838870431893838
2.521678461078441,1.0161129568106162
2.522675171932622,1.0161129568106162
2.5236718827868034,3.016112956810616
2.5246685936409845,4.016112956810616
2.5256653044951656,2.016112956810616
2.526662015349347,3.016112956810616
2.527658726203528,5.016112956810616
2.5286554370577092,6.016112956810616
2.5296521479118907,4.016112956810616
2.530648858766072,1.0161129568106162
2.531645569620253,1.0161129568106162
2.532642280474434,0.016112956810616197
2.5336389913286155,-2.983887043189384
2.5346357021827965,-3.983887043189384
2.5356324130369776,-3.983887043189384
2.536629123891159,-5.983887043189384
2.53762583474534,-6.983887043189384
2.5386225455995213,-4.983887043189384
2.5396192564537023,-1.9838870431893838
2.540615967307884,0.016112956810616197
2.541612678162065,-2.983887043189384
2.542609389016246,1.0161129568106162
2.5436060998704275,2.016112956810616
2.5446028107246086,2.016112956810616
2.5455995215787897,4.016112956810616
2.546596232432971,6.016112956810616
2.5475929432871522,5.016112956810616
2.5485896541413333,4.016112956810616
2.5495863649955144,5.016112956810616
2.550583075849696,2.016112956810616
2.551579786703877,4.016112956810616
2.552576497558058,1.0161129568106162
2.5535732084122396,-0.9838870431893838
2.5545699192664206,-2.983887043189384
2.5555666301206017,-1.9838870431893838
2.5565633409747828,-6.983887043189384
2.5575600518289643,-4.983887043189384
2.5585567626831454,-6.983887043189384
2.5595534735373264,-7.983887043189384
2.560550184391508,-1.9838870431893838
2.561546895245689,-1.9838870431893838
2.56254360609987,1.0161129568106162
2.5635403169540516,1.0161129568106162
2.5645370278082327,2.016112956810616
2.5655337386624137,4.016112956810616
2.566530449516595,6.016112956810616
2.5675271603707763,7.016112956810616
2.5685238712249574,6.016112956810616
2.5695205820791385,3.016112956810616
2.57051729293332,3.016112956810616
2.571514003787501,4.016112956810616
2.572510714641682,-2.983887043189384
2.573507425495863,0.016112956810616197
2.5745041363500447,-0.9838870431893838
2.575500847204226,-4.983887043189384
2.576497558058407,-4.983887043189384
2.5774942689125884,-6.983887043189384
2.5784909797667694,-4.983887043189384
2.5794876906209505,-3.983887043189384
2.580484401475132,-2.983887043189384
2.581481112329313,-0.9838870431893838
2.582477823183494,1.0161129568106162
2.5834745340376752,2.016112956810616
2.5844712448918568,4.016112956810616
2.585467955746038,6.016112956810616
2.586464666600219,6.016112956810616
2.5874613774544004,4.016112956810616
2.5884580883085815,4.016112956810616
2.5894547991627626,4.016112956810616
2.590451510016944,3.016112956810616
2.591448220871125,1.0161129568106162
2.592444931725306,-3.983887043189384
2.5934416425794873,-2.983887043189384
2.594438353433669,-3.983887043189384
2.59543506428785,-3.983887043189384
2.596431775142031,-5.983887043189384
2.5974284859962125,-3.983887043189384
2.5984251968503935,-3.983887043189384
2.5994219077045746,0.016112956810616197
2.6004186185587557,-2.983887043189384
2.601415329412937,-0.9838870431893838
2.6024120402671183,2.016112956810616
2.6034087511212993,1.0161129568106162
2.604405461975481,1.0161129568106162
2.605402172829662,3.016112956810616
2.606398883683843,4.016112956810616
2.6073955945380245,4.016112956810616
2.6083923053922056,4.016112956810616
2.6093890162463866,6.016112956810616
2.6103857271005677,4.016112956810616
2.6113824379547492,0.016112956810616197
2.6123791488089303,0.016112956810616197
2.6133758596631114,-0.9838870431893838
2.614372570517293,-3.983887043189384
2.615369281371474,-7.983887043189384
2.616365992225655,-3.983887043189384
2.617362703079836,-4.983887043189384
2.6183594139340176,-3.983887043189384
2.6193561247881987,-0.9838870431893838
2.6203528356423798,-1.9838870431893838
2.6213495464965613,0.016112956810616197
2.6223462573507423,1.0161129568106162
2.6233429682049234,1.0161129568106162
2.624339679059105,5.016112956810616
2.625336389913286,1.0161129568106162
2.626333100767467,5.016112956810616
2.627329811621648,4.016112956810616
2.6283265224758297,5.016112956810616
2.6293232333300107,3.016112956810616
2.630319944184192,2.016112956810616
2.6313166550383733,1.0161129568106162
2.6323133658925544,-1.9838870431893838
2.6333100767467355,-4.983887043189384
2.6343067876009165,-2.983887043189384
2.635303498455098,-5.983887043189384
2.636300209309279,-2.983887043189384
2.63729692016346,-4.983887043189384
2.6382936310176417,-3.983887043189384
2.6392903418718228,-4.983887043189384
2.640287052726004,-1.9838870431893838
2.6412837635801854,-0.9838870431893838
2.6422804744343664,-1.9838870431893838
2.6432771852885475,1.0161129568106162
2.6442738961427286,1.0161129568106162
2.64527060699691,2.016112956810616
2.646267317851091,6.016112956810616
2.647264028705272,6.016112956810616
2.6482607395594537,6.016112956810616
2.649257450413635,5.016112956810616
2.650254161267816,2.016112956810616
2.651250872121997,1.0161129568106162
2.6522475829761785,-2.983887043189384
2.6532442938303595,-3.983887043189384
2.6542410046845406,-1.9838870431893838
2.655237715538722,-3.983887043189384
2.656234426392903,-3.983887043189384
2.6572311372470843,-5.983887043189384
2.6582278481012658,-3.983887043189384
2.659224558955447,-5.983887043189384
2.660221269809628,-1.9838870431893838
2.661217980663809,-1.9838870431893838
2.6622146915179905,-1.9838870431893838
2.6632114023721716,2.016112956810616
2.6642081132263526,2.016112956810616
2.665204824080534,6.016112956810616
2.6662015349347152,4.016112956810616
2.6671982457888963,5.016112956810616
2.668194956643078,5.016112956810616
2.669191667497259,8.016112956810616
2.67018837835144,4.016112956810616
2.671185089205621,2.016112956810616
2.6721818000598025,-2.983887043189384
2.6731785109139836,-2.983887043189384
2.6741752217681647,-0.9838870431893838
2.675171932622346,-7.983887043189384
2.6761686434765273,-2.983887043189384
2.6771653543307083,-7.983887043189384
2.6781620651848894,-5.983887043189384
2.679158776039071,-4.983887043189384
2.680155486893252,-4.983887043189384
2.681152197747433,0.016112956810616197
2.6821489086016146,1.0161129568106162
2.6831456194557957,2.016112956810616
2.6841423303099767,2.016112956810616
2.6851390411641582,5.016112956810616
2.6861357520183393,6.016112956810616
2.6871324628725204,4.016112956810616
2.6881291737267015,8.016112956810616
2.689125884580883,6.016112956810616
2.690122595435064,3.016112956810616
2.691119306289245,2.016112956810616
2.6921160171434266,0.016112956810616197
2.6931127279976077,-1.9838870431893838
2.6941094388517888,-2.983887043189384
2.69510614970597,-6.983887043189384
2.6961028605601514,-4.983887043189384
2.6970995714143324,-6.983887043189384
2.6980962822685135,-7.983887043189384
2.699092993122695,-3.983887043189384
2.700089703976876,-1.9838870431893838
2.701086414831057,1.0161129568106162
2.7020831256852387,1.0161129568106162
2.7030798365394197,1.0161129568106162
2.704076547393601,3.016112956810616
2.705073258247782,4.016112956810616
2.7060699691019634,4.016112956810616
2.7070666799561445,4.016112956810616
2.7080633908103255,6.016112956810616
2.709060101664507,5.016112956810616
2.710056812518688,4.016112956810616
2.711053523372869,3.016112956810616
2.7120502342270503,-1.9838870431893838
2.713046945081232,-4.983887043189384
2.714043655935413,-2.983887043189384
2.715040366789594,-4.983887043189384
2.7160370776437754,-3.983887043189384
2.7170337884979565,-2.983887043189384
2.7180304993521376,-5.983887043189384
2.719027210206319,-2.983887043189384
2.7200239210605,-1.9838870431893838
2.7210206319146812,2.016112956810616
2.7220173427688623,3.016112956810616
2.723014053623044,3.016112956810616
2.724010764477225,4.016112956810616
2.725007475331406,4.016112956810616
2.7260041861855875,6.016112956810616
2.7270008970397686,4.016112956810616
2.7279976078939496,5.016112956810616
2.7289943187481307,4.016112956810616
2.729991029602312,3.016112956810616
2.7309877404564933,1.0161129568106162
2.7319844513106744,-0.9838870431893838
2.732981162164856,-2.983887043189384
2.733977873019037,-0.9838870431893838
2.734974583873218,-5.983887043189384
2.7359712947273995,-4.983887043189384
2.7369680055815806,-4.983887043189384
2.7379647164357617,-4.983887043189384
2.7389614272899427,-4.983887043189384
2.7399581381441243,-2.983887043189384
2.7409548489983053,-1.9838870431893838
2.7419515598524864,-0.9838870431893838
2.742948270706668,2.016112956810616
2.743944981560849,0.016112956810616197
2.74494169241503,4.016112956810616
2.7459384032692116,5.016112956810616
2.7469351141233926,4.016112956810616
2.7479318249775737,5.016112956810616
2.748928535831755,6.016112956810616
2.7499252466859363,3.016112956810616
2.7509219575401174,-1.9838870431893838
2.7519186683942984,0.016112956810616197
2.75291537924848,-3.983887043189384
2.753912090102661,-2.983887043189384
2.754908800956842,-2.983887043189384
2.755905511811023,-3.983887043189384
2.7569022226652047,-4.983887043189384
2.7578989335193858,-5.983887043189384
2.758895644373567,-2.983887043189384
2.7598923552277483,-0.9838870431893838
2.7608890660819294,-0.9838870431893838
2.7618857769361105,1.0161129568106162
2.762882487790292,4.016112956810616
2.763879198644473,2.016112956810616
2.764875909498654,2.016112956810616
2.765872620352835,3.016112956810616
2.7668693312070167,4.016112956810616
2.767866042061198,3.016112956810616
2.768862752915379,3.016112956810616
2.7698594637695604,1.0161129568106162
2.7708561746237415,0.016112956810616197
2.7718528854779225,-2.983887043189384
2.7728495963321036,-2.983887043189384
2.773846307186285,-4.983887043189384
2.774843018040466,-4.983887043189384
2.7758397288946473,-2.983887043189384
2.7768364397488288,-4.983887043189384
2.77783315060301,-1.9838870431893838
2.778829861457191,-2.983887043189384
2.7798265723113724,0.016112956810616197
2.7808232831655535,2.016112956810616
2.7818199940197346,1.0161129568106162
2.7828167048739156,3.016112956810616
2.783813415728097,3.016112956810616
2.7848101265822782,6.016112956810616
2.7858068374364593,5.016112956810616
2.786803548290641,1.0161129568106162
2.787800259144822,4.016112956810616
2.788796969999003,0.016112956810616197
2.789793680853184,1.0161129568106162
2.7907903917073655,2.016112956810616
2.7917871025615466,-1.9838870431893838
2.7927838134157277,-2.983887043189384
2.793780524269909,-3.983887043189384
2.7947772351240903,-5.983887043189384
2.7957739459782713,-5.983887043189384
2.796770656832453,-3.983887043189384
2.797767367686634,-3.983887043189384
2.798764078540815,-3.983887043189384
2.799760789394996,-4.983887043189384
2.8007575002491776,-0.9838870431893838
2.8017542111033586,2.016112956810616
2.8027509219575397,2.016112956810616
2.8037476328117212,5.016112956810616
2.8047443436659023,4.016112956810616
2.8057410545200834,6.016112956810616
2.8067377653742644,4.016112956810616
2.807734476228446,4.016112956810616
2.808731187082627,5.016112956810616
2.809727897936808,3.016112956810616
2.8107246087909896,0.016112956810616197
2.8117213196451707,-1.9838870431893838
2.8127180304993518,-0.9838870431893838
2.8137147413535333,-2.983887043189384
2.8147114522077143,-4.983887043189384
2.8157081630618954,-3.983887043189384
2.8167048739160765,-6.983887043189384
2.817701584770258,-4.983887043189384
2.818698295624439,-2.983887043189384
2.81969500647862,-2.983887043189384
2.8206917173328017,1.0161129568106162
2.8216884281869827,4.016112956810616
2.822685139041164,3.016112956810616
2.8236818498953453,5.016112956810616
2.8246785607495264,3.016112956810616
2.8256752716037075,3.016112956810616
2.8266719824578885,4.016112956810616
2.82766869331207,4.016112956810616
2.828665404166251,5.016112956810616
2.829662115020432,3.016112956810616
2.8306588258746137,0.016112956810616197
2.8316555367287948,-1.9838870431893838
2.832652247582976,-3.983887043189384
2.833648958437157,-3.983887043189384
2.8346456692913384,-4.983887043189384
2.8356423801455195,-4.983887043189384
2.8366390909997006,-4.983887043189384
2.837635801853882,-2.983887043189384
2.838632512708063,-0.9838870431893838
2.8396292235622442,-0.9838870431893838
2.8406259344164257,1.0161129568106162
2.841622645270607,1.0161129568106162
2.842619356124788,3.016112956810616
2.843616066978969,5.016112956810616
2.8446127778331505,4.016112956810616
2.8456094886873315,3.016112956810616
2.8466061995415126,4.016112956810616
2.847602910395694,4.016112956810616
2.848599621249875,4.016112956810616
2.8495963321040563,0.016112956810616197
2.8505930429582373,0.016112956810616197
2.851589753812419,1.0161129568106162
2.8525864646666,-2.983887043189384
2.853583175520781,-2.983887043189384
2.8545798863749625,-1.9838870431893838
2.8555765972291436,-3.983887043189384
2.8565733080833247,-4.983887043189384
2.857570018937506,-2.983887043189384
2.8585667297916872,-3.983887043189384
2.8595634406458683,-3.983887043189384
2.8605601515000494,0.016112956810616197
2.861556862354231,1.0161129568106162
2.862553573208412,2.016112956810616
2.863550284062593,5.016112956810616
2.8645469949167746,5.016112956810616
2.8655437057709556,6.016112956810616
2.8665404166251367,5.016112956810616
2.8675371274793178,4.016112956810616
2.8685338383334993,1.0161129568106162
2.8695305491876804,0.016112956810616197
2.8705272600418614,2.016112956810616
2.871523970896043,-1.9838870431893838
2.872520681750224,-1.9838870431893838
2.873517392604405,-2.983887043189384
2.8745141034585866,-2.983887043189384
2.8755108143127677,-4.983887043189384
2.8765075251669487,-4.983887043189384
2.87750423602113,-6.983887043189384
2.8785009468753113,-2.983887043189384
2.8794976577294924,-0.9838870431893838
2.8804943685836735,-1.9838870431893838
2.881491079437855,1.0161129568106162
2.882487790292036,2.016112956810616
2.883484501146217,2.016112956810616
2.8844812120003986,4.016112956810616
2.8854779228545797,4.016112956810616
2.886474633708761,3.016112956810616
2.887471344562942,2.016112956810616
2.8884680554171234,1.0161129568106162
2.8894647662713044,4.016112956810616
2.8904614771254855,1.0161129568106162
2.891458187979667,-0.9838870431893838
2.892454898833848,-1.9838870431893838
2.893451609688029,-2.983887043189384
2.8944483205422102,-5.983887043189384
2.8954450313963918,-2.983887043189384
2.896441742250573,-3.983887043189384
2.897438453104754,-1.9838870431893838
2.8984351639589354,-1.9838870431893838
2.8994318748131165,-1.9838870431893838
2.9004285856672976,-1.9838870431893838
2.901425296521479,3.016112956810616
2.90242200737566,4.016112956810616
2.903418718229841,4.016112956810616
2.9044154290840223,4.016112956810616
2.905412139938204,6.016112956810616
2.906408850792385,1.0161129568106162
2.907405561646566,4.016112956810616
2.9084022725007475,4.016112956810616
2.9093989833549285,3.016112956810616
2.9103956942091096,0.016112956810616197
2.9113924050632907,-2.983887043189384
2.912389115917472,-2.983887043189384
2.9133858267716533,-3.983887043189384
2.9143825376258343,-2.983887043189384
2.915379248480016,-5.983887043189384
2.916375959334197,-5.983887043189384
2.917372670188378,-5.983887043189384
2.9183693810425595,-1.9838870431893838
2.9193660918967406,1.0161129568106162
2.9203628027509216,0.016112956810616197
2.9213595136051027,4.016112956810616
2.9223562244592842,1.0161129568106162
2.9233529353134653,5.016112956810616
2.9243496461676464,1.0161129568106162
2.925346357021828,5.016112956810616
2.926343067876009,3.016112956810616
2.92733977873019,4.016112956810616
2.928336489584371,-1.9838870431893838
2.9293332004385526,0.016112956810616197
2.9303299112927337,0.016112956810616197
2.9313266221469148,-1.9838870431893838
2.9323233330010963,-3.983887043189384
2.9333200438552773,-4.983887043189384
2.9343167547094584,-2.983887043189384
2.93531346556364,-4.983887043189384
2.936310176417821,-2.983887043189384
2.937306887272002,-3.983887043189384
2.938303598126183,-0.9838870431893838
2.9393003089803647,0.016112956810616197
2.9402970198345457,1.0161129568106162
2.941293730688727,2.016112956810616
2.9422904415429083,2.016112956810616
2.9432871523970894,3.016112956810616
2.9442838632512704,5.016112956810616
2.9452805741054515,3.016112956810616
2.946277284959633,5.016112956810616
2.947273995813814,5.016112956810616
2.948270706667995,4.016112956810616
2.9492674175221767,1.0161129568106162
2.9502641283763578,2.016112956810616
2.951260839230539,0.016112956810616197
2.9522575500847204,-3.983887043189384
2.9532542609389014,-6.983887043189384
2.9542509717930825,-2.983887043189384
2.9552476826472636,-3.983887043189384
2.956244393501445,-3.983887043189384
2.957241104355626,-3.983887043189384
2.958237815209807,-1.9838870431893838
2.9592345260639887,-0.9838870431893838
2.96023123691817,2.016112956810616
2.961227947772351,1.0161129568106162
2.9622246586265324,1.0161129568106162
2.9632213694807135,4.016112956810616
2.9642180803348945,3.016112956810616
2.9652147911890756,3.016112956810616
2.966211502043257,3.016112956810616
2.967208212897438,3.016112956810616
2.9682049237516193,6.016112956810616
2.9692016346058008,1.0161129568106162
2.970198345459982,-0.9838870431893838
2.971195056314163,-2.983887043189384
2.972191767168344,-0.9838870431893838
2.9731884780225255,-4.983887043189384
2.9741851888767066,-3.983887043189384
2.9751818997308876,-4.983887043189384
2.976178610585069,-2.983887043189384
2.9771753214392502,-2.983887043189384
2.9781720322934313,-4.983887043189384
2.979168743147613,0.016112956810616197
2.980165454001794,1.0161129568106162
2.981162164855975,-0.9838870431893838
2.982158875710156,3.016112956810616
2.9831555865643375,4.016112956810616
2.9841522974185186,4.016112956810616
2.9851490082726997,4.016112956810616
2.986145719126881,3.016112956810616
2.9871424299810623,6.016112956810616
2.9881391408352433,2.016112956810616
2.9891358516894244,3.016112956810616
2.990132562543606,1.0161129568106162
2.991129273397787,-2.983887043189384
2.992125984251968,-1.9838870431893838
2.9931226951061496,-2.983887043189384
2.9941194059603307,-5.983887043189384
2.9951161168145117,-5.983887043189384
2.9961128276686932,-1.9838870431893838
2.9971095385228743,-1.9838870431893838
2.9981062493770554,-3.983887043189384
2.9991029602312365,-3.983887043189384
3.000099671085418,-0.9838870431893838
3.001096381939599,2.016112956810616
3.00209309279378,2.016112956810616
3.0030898036479616,5.016112956810616
3.0040865145021427,4.016112956810616
3.0050832253563238,5.016112956810616
3.006079936210505,1.0161129568106162
3.0070766470646864,3.016112956810616
3.0080733579188674,3.016112956810616
3.0090700687730485,2.016112956810616
3.01006677962723,1.0161129568106162
3.011063490481411,-2.983887043189384
3.012060201335592,-2.983887043189384
3.0130569121897737,-5.983887043189384
3.0140536230439547,-2.983887043189384
3.015050333898136,-5.983887043189384
3.016047044752317,-3.983887043189384
3.0170437556064984,-2.983887043189384
3.0180404664606795,-1.9838870431893838
3.0190371773148605,-1.9838870431893838
3.020033888169042,1.0161129568106162
3.021030599023223,4.016112956810616
3.022027309877404,1.0161129568106162
3.0230240207315853,5.016112956810616
3.024020731585767,5.016112956810616
3.025017442439948,2.016112956810616
3.026014153294129,2.016112956810616
3.0270108641483104,4.016112956810616
3.0280075750024915,3.016112956810616
3.0290042858566726,3.016112956810616
3.030000996710854,1.0161129568106162
3.030997707565035,-2.983887043189384
3.0319944184192162,-1.9838870431893838
3.0329911292733973,-1.9838870431893838
3.033987840127579,-4.983887043189384
3.03498455098176,-2.983887043189384
3.035981261835941,-2.983887043189384
3.0369779726901225,-2.983887043189384
3.0379746835443036,-2.983887043189384
3.0389713943984846,-0.9838870431893838
3.039968105252666,2.016112956810616
3.040964816106847,1.0161129568106162
3.0419615269610283,1.0161129568106162
3.0429582378152094,2.016112956810616
3.043954948669391,3.016112956810616
3.044951659523572,6.016112956810616
3.045948370377753,6.016112956810616
3.0469450812319345,2.016112956810616
3.0479417920861156,3.016112956810616
3.0489385029402967,2.016112956810616
3.0499352137944777,2.016112956810616
3.0509319246486593,-2.983887043189384
3.0519286355028403,-1.9838870431893838
3.0529253463570214,-0.9838870431893838
3.053922057211203,-2.983887043189384
3.054918768065384,-3.983887043189384
3.055915478919565,-3.983887043189384
3.0569121897737466,-5.983887043189384
3.0579089006279276,-2.983887043189384
3.0589056114821087,-1.9838870431893838
3.05990232233629,1.0161129568106162
3.0608990331904713,0.016112956810616197
3.0618957440446524,1.0161129568106162
3.0628924548988334,2.016112956810616
3.063889165753015,2.016112956810616
3.064885876607196,5.016112956810616
3.065882587461377,2.016112956810616
3.066879298315558,5.016112956810616
3.0678760091697397,4.016112956810616
3.0688727200239208,3.016112956810616
3.069869430878102,2.016112956810616
3.0708661417322833,0.016112956810616197
3.0718628525864644,-3.983887043189384
3.0728595634406455,-0.9838870431893838
3.073856274294827,-6.983887043189384
3.074852985149008,-7.983887043189384
3.075849696003189,-2.983887043189384
3.07684640685737,-3.983887043189384
3.0778431177115517,0.016112956810616197
3.078839828565733,-1.9838870431893838
3.079836539419914,1.0161129568106162
3.0808332502740954,3.016112956810616
3.0818299611282765,2.016112956810616
3.0828266719824575,4.016112956810616
3.0838233828366386,6.016112956810616
3.08482009369082,4.016112956810616
3.085816804545001,3.016112956810616
3.0868135153991823,2.016112956810616
3.0878102262533638,3.016112956810616
3.088806937107545,3.016112956810616
3.089803647961726,0.016112956810616197
3.0908003588159074,-2.983887043189384
3.0917970696700885,-2.983887043189384
3.0927937805242696,-2.983887043189384
3.0937904913784506,-3.983887043189384
3.094787202232632,-1.9838870431893838
3.095783913086813,-3.983887043189384
3.0967806239409943,-4.983887043189384
3.097777334795176,-1.9838870431893838
3.098774045649357,-2.983887043189384
3.099770756503538,-0.9838870431893838
3.1007674673577195,3.016112956810616
3.1017641782119005,2.016112956810616
3.1027608890660816,5.016112956810616
3.1037575999202627,6.016112956810616
3.104754310774444,4.016112956810616
3.1057510216286253,2.016112956810616
3.1067477324828063,3.016112956810616
3.107744443336988,5.016112956810616
3.108741154191169,4.016112956810616
3.10973786504535,2.016112956810616
3.110734575899531,-0.9838870431893838
3.1117312867537126,-1.9838870431893838
3.1127279976078936,-2.983887043189384
3.1137247084620747,-6.983887043189384
3.1147214193162562,-7.983887043189384
3.1157181301704373,-6.983887043189384
3.1167148410246184,-1.9838870431893838
3.1177115518788,-2.983887043189384
3.118708262732981,-2.983887043189384
3.119704973587162,0.016112956810616197
3.120701684441343,1.0161129568106162
3.1216983952955246,4.016112956810616
3.1226951061497057,5.016112956810616
3.1236918170038868,4.016112956810616
3.1246885278580683,5.016112956810616
3.1256852387122493,6.016112956810616
3.1266819495664304,4.016112956810616
3.1276786604206115,3.016112956810616
3.128675371274793,1.0161129568106162
3.129672082128974,3.016112956810616
3.130668792983155,1.0161129568106162
3.1316655038373367,-5.983887043189384
3.1326622146915177,-4.983887043189384
3.133658925545699,-4.983887043189384
3.1346556363998803,-4.983887043189384
3.1356523472540614,-5.983887043189384
3.1366490581082425,-4.983887043189384
3.1376457689624235,-3.983887043189384
3.138642479816605,-3.983887043189384
3.139639190670786,0.016112956810616197
3.140635901524967,0.016112956810616197
3.1416326123791487,4.016112956810616
3.1426293232333298,4.016112956810616
3.143626034087511,5.016112956810616
3.144622744941692,2.016112956810616
3.1456194557958734,4.016112956810616
3.1466161666500545,3.016112956810616
3.1476128775042356,5.016112956810616
3.148609588358417,1.0161129568106162
3.149606299212598,1.0161129568106162
3.1506030100667792,0.016112956810616197
3.1515997209209607,-1.9838870431893838
3.152596431775142,-1.9838870431893838
3.153593142629323,-2.983887043189384
3.154589853483504,-3.983887043189384
3.1555865643376855,-3.983887043189384
3.1565832751918665,-3.983887043189384
3.1575799860460476,-3.983887043189384
3.158576696900229,-2.983887043189384
3.15957340775441,-2.983887043189384
3.1605701186085913,-0.9838870431893838
3.1615668294627723,3.016112956810616
3.162563540316954,6.016112956810616
3.163560251171135,4.016112956810616
3.164556962025316,6.016112956810616
3.1655536728794975,1.0161129568106162
3.1665503837336786,4.016112956810616
