0,1,2,3,4,5,6,7,8,9,10,11,12,13,14,15,16,17,18,19,20,21,22,23,24,25,26,27,28,29,30,31,32,33,34,35,36,37,38,39,40,41,42,43,44,45,46,47,48,49,50,51,52,53,54,55,56,57,58,59,60,61,62,63,64,65,66,67,68,69,70,71,72,73,74,75,76,77,78,79,80,81,82,83,84,85,86,87,88,89,90,91,92,93,94,95,96,97,98,99,100,101,102,103,104,105,106,107,108,109,110,111,112,113,114,115,116,117,118,119,120,121,122,123,124,125,126,127,128,129,130,131,132,133,134,135,136,137,138,139,140,141,142,143,144,145,146,147,148,149,150,151,152,153,154,155,156,157,158,159,160,161,162,163,164,165,166,167,168,169,170,171,172,173,174,175,176,177,178,179,180,181,182,183,184,185,186,187,188,189,190,191,192,193,194,195,196,197,198,199,200,201,202,203,204,205,206,207,208,209,210,211,212,213,214,215,216,217,218,219,220,221,222,223,224,225,226,227,228,229,230,231,232,233,234,235,236,237,238,239,240,241,242,243,244,245,246,247,248,249,250,251,252,253,254,255,256,257,258,259,260,261,262,263,264,265,266,267,268,269,270,271,272,273,274,275,276,277,278,279,280,281,282,283,284,285,286,287,288,289,290,291,292,293,294,295,296,297,298,299,300,301,302,303,304,305,306,307,308,309,310,311,312,313,314,315,316,317,318,319,320,321,322,323,324,325,326,327,328,329,330,331,332,333,334,335,336,337,338,339,340,341,342,343,344,345,346,347,348,349,350,351,352,353,354,355,356,357,358,359,360,361,362,363,364,365,366,367,368,369,370,371,372,373,374,375,376,377,378,379,380,381,382,383,384,385,386,387,388,389,390,391,392,393,394,395,396,397,398,399,400,401,402,403,404,405,406,407,408,409,410,411,412,413,414,415,416,417,418,419,420,421,422,423,424,425,426,427,428,429,430,431,432,433,434,435,436,437,438,439,440,441,442,443,444,445,446,447,448,449,450,451,452,453,454,455,456,457,458,459,460,461,462,463,464,465,466,467,468,469,470,471,472,473,474,475,476,477,478,479,480,481,482,483,484,485,486,487,488,489,490,491,492,493,494,495,496,497,498,499,500,501,502,503,504,505,506,507,508,509,510,511
1.0067774086379018,2.0067774086379018,5.006777408637902,11.006777408637904,7.006777408637903,8.006777408637904,5.006777408637902,0.006777408637901772,0.006777408637901772,-2.9932225913620982,-3.993222591362098,-5.993222591362097,-6.993222591362097,-5.993222591362097,-6.993222591362097,-1.9932225913620985,1.0067774086379018,0.006777408637901772,1.0067774086379018,0.006777408637901772,1.0067774086379018,0.006777408637901772,1.0067774086379018,-0.9932225913620982,0.006777408637901772,-2.9932225913620982,-2.9932225913620982,-1.9932225913620985,6.006777408637903,6.006777408637903,7.006777408637903,11.006777408637904,4.006777408637902,4.006777408637902,-2.9932225913620982,-3.993222591362098,-6.993222591362097,-5.993222591362097,-1.9932225913620985,-1.9932225913620985,-0.9932225913620982,-2.9932225913620982,-1.9932225913620985,0.006777408637901772,4.006777408637902,0.006777408637901772,3.0067774086379018,-0.9932225913620982,-6.993222591362097,-8.993222591362096,-6.993222591362097,-5.993222591362097,-8.993222591362096,-9.993222591362096,6.006777408637903,12.006777408637904,11.006777408637904,0.006777408637901772,0.006777408637901772,0.006777408637901772,5.006777408637902,6.006777408637903,8.006777408637904,14.006777408637904,9.006777408637904,-0.9932225913620982,-5.993222591362097,-7.993222591362097,-7.993222591362097,-2.9932225913620982,-7.993222591362097,-4.993222591362098,-9.993222591362096,-10.993222591362096,-10.993222591362096,-6.993222591362097,-1.9932225913620985,5.006777408637902,14.006777408637904,5.006777408637902,-1.9932225913620985,-0.9932225913620982,-1.9932225913620985,2.0067774086379018,3.0067774086379018,1.0067774086379018,0.006777408637901772,9.006777408637904,16.0067774086379,14.006777408637904,6.006777408637903,6.006777408637903,2.0067774086379018,-7.993222591362097,-9.993222591362096,-4.993222591362098,-12.993222591362096,-13.993222591362096,-4.993222591362098,5.006777408637902,3.0067774086379018,4.006777408637902,3.0067774086379018,0.006777408637901772,12.006777408637904,23.0067774086379,22.0067774086379,4.006777408637902,-8.993222591362096,-22.9932225913621,-27.9932225913621,-23.9932225913621,-9.993222591362096,1.0067774086379018,4.006777408637902,6.006777408637903,-2.9932225913620982,4.006777408637902,12.006777408637904,6.006777408637903,7.006777408637903,4.006777408637902,-5.993222591362097,-9.993222591362096,-6.993222591362097,1.0067774086379018,19.006777408637898,11.006777408637904,8.006777408637904,7.006777408637903,-9.993222591362096,-18.993222591362102,-8.993222591362096,-10.993222591362096,-21.9932225913621,-20.993222591362102,-0.9932225913620982,11.006777408637904,18.006777408637898,2.0067774086379018,3.0067774086379018,19.006777408637898,20.006777408637898,19.006777408637898,5.006777408637902,-8.993222591362096,-19.993222591362102,-22.9932225913621,-11.993222591362096,11.006777408637904,18.006777408637898,16.0067774086379,4.006777408637902,5.006777408637902,-2.9932225913620982,-9.993222591362096,-7.993222591362097,2.0067774086379018,12.006777408637904,7.006777408637903,4.006777408637902,11.006777408637904,3.0067774086379018,-12.993222591362096,-5.993222591362097,-3.993222591362098,2.0067774086379018,3.0067774086379018,-1.9932225913620985,-15.993222591362096,-25.9932225913621,-27.9932225913621,-14.993222591362096,-9.993222591362096,3.0067774086379018,19.006777408637898,39.0067774086379,29.0067774086379,44.006777408637895,60.006777408637895,29.0067774086379,5.006777408637902,-28.9932225913621,-44.993222591362105,-31.9932225913621,-32.9932225913621,-46.993222591362105,-36.9932225913621,-43.993222591362105,-36.9932225913621,-1.9932225913620985,26.0067774086379,57.006777408637895,73.0067774086379,40.0067774086379,19.006777408637898,16.0067774086379,-3.993222591362098,-10.993222591362096,-11.993222591362096,20.006777408637898,1.0067774086379018,-35.9932225913621,-26.9932225913621,-29.9932225913621,-21.9932225913621,27.0067774086379,56.006777408637895,52.006777408637895,15.006777408637904,-14.993222591362096,-14.993222591362096,21.006777408637898,8.006777408637904,-13.993222591362096,-30.9932225913621,-38.9932225913621,-49.993222591362105,-49.993222591362105,-19.993222591362102,26.0067774086379,29.0067774086379,41.0067774086379,60.006777408637895,43.006777408637895,-4.993222591362098,-54.993222591362105,-47.993222591362105,-31.9932225913621,-30.9932225913621,-3.993222591362098,52.006777408637895,57.006777408637895,-1.9932225913620985,-0.9932225913620982,24.0067774086379,-25.9932225913621,-36.9932225913621,-21.9932225913621,-18.993222591362102,4.006777408637902,50.006777408637895,57.006777408637895,80.0067774086379,58.006777408637895,12.006777408637904,-40.9932225913621,-91.9932225913621,-95.9932225913621,-53.993222591362105,-31.9932225913621,10.006777408637904,27.0067774086379,8.006777408637904,43.006777408637895,54.006777408637895,12.006777408637904,-16.9932225913621,-6.993222591362097,9.006777408637904,-24.9932225913621,-33.9932225913621,1.0067774086379018,19.006777408637898,14.006777408637904,-18.993222591362102,-23.9932225913621,-16.9932225913621,11.006777408637904,39.0067774086379,35.0067774086379,80.0067774086379,89.0067774086379,59.006777408637895,41.0067774086379,-36.9932225913621,-85.9932225913621,-65.9932225913621,-71.9932225913621,-59.993222591362105,-38.9932225913621,19.006777408637898,34.0067774086379,18.006777408637898,-6.993222591362097,-7.993222591362097,-12.993222591362096,-2.9932225913620982,5.006777408637902,-27.9932225913621,-52.993222591362105,-42.993222591362105,3.0067774086379018,45.006777408637895,56.006777408637895,25.0067774086379,12.006777408637904,-1.9932225913620985,-0.9932225913620982,8.006777408637904,-10.993222591362096,-45.993222591362105,-3.993222591362098,49.006777408637895,54.006777408637895,60.006777408637895,28.0067774086379,6.006777408637903,-24.9932225913621,-33.9932225913621,-20.993222591362102,-77.9932225913621,-90.9932225913621,-53.993222591362105,-14.993222591362096,26.0067774086379,102.0067774086379,81.0067774086379,79.0067774086379,70.0067774086379,48.006777408637895,-8.993222591362096,-51.993222591362105,-56.993222591362105,-47.993222591362105,-31.9932225913621,-23.9932225913621,-19.993222591362102,-17.993222591362102,0.006777408637901772,4.006777408637902,-7.993222591362097,-5.993222591362097,-0.9932225913620982,4.006777408637902,1.0067774086379018,2.0067774086379018,1.0067774086379018,1.0067774086379018,-3.993222591362098,1.0067774086379018,7.006777408637903,8.006777408637904,8.006777408637904,10.006777408637904,12.006777408637904,10.006777408637904,1.0067774086379018,-2.9932225913620982,-4.993222591362098,-6.993222591362097,-5.993222591362097,-2.9932225913620982,-4.993222591362098,-2.9932225913620982,-1.9932225913620985,0.006777408637901772,0.006777408637901772,1.0067774086379018,4.006777408637902,4.006777408637902,5.006777408637902,4.006777408637902,4.006777408637902,3.0067774086379018,2.0067774086379018,1.0067774086379018,2.0067774086379018,-2.9932225913620982,-4.993222591362098,-3.993222591362098,-5.993222591362097,-4.993222591362098,-3.993222591362098,-0.9932225913620982,-2.9932225913620982,0.006777408637901772,-0.9932225913620982,2.0067774086379018,3.0067774086379018,7.006777408637903,4.006777408637902,3.0067774086379018,4.006777408637902,4.006777408637902,3.0067774086379018,1.0067774086379018,1.0067774086379018,-2.9932225913620982,-2.9932225913620982,-1.9932225913620985,-5.993222591362097,-5.993222591362097,-2.9932225913620982,-2.9932225913620982,-1.9932225913620985,-1.9932225913620985,-0.9932225913620982,4.006777408637902,3.0067774086379018,3.0067774086379018,7.006777408637903,3.0067774086379018,3.0067774086379018,4.006777408637902,1.0067774086379018,2.0067774086379018,0.006777408637901772,-1.9932225913620985,-3.993222591362098,-2.9932225913620982,-4.993222591362098,-3.993222591362098,-4.993222591362098,-3.993222591362098,-2.9932225913620982,-0.9932225913620982,0.006777408637901772,1.0067774086379018,3.0067774086379018,4.006777408637902,4.006777408637902,5.006777408637902,7.006777408637903,5.006777408637902,4.006777408637902,3.0067774086379018,1.0067774086379018,-2.9932225913620982,-3.993222591362098,-5.993222591362097,-2.9932225913620982,-4.993222591362098,-5.993222591362097,-5.993222591362097,-1.9932225913620985,-0.9932225913620982,-2.9932225913620982,1.0067774086379018,3.0067774086379018,5.006777408637902,6.006777408637903,5.006777408637902,4.006777408637902,6.006777408637903,1.0067774086379018,1.0067774086379018,1.0067774086379018,-3.993222591362098,-4.993222591362098,-4.993222591362098,-2.9932225913620982,2.0067774086379018,6.006777408637903,-0.9932225913620982,-4.993222591362098,-9.993222591362096,-2.9932225913620982,1.0067774086379018,-0.9932225913620982,-1.9932225913620985,1.0067774086379018,7.006777408637903,6.006777408637903,1.0067774086379018,0.006777408637901772,3.0067774086379018,0.006777408637901772,0.006777408637901772,1.0067774086379018,2.0067774086379018,2.0067774086379018,-11.993222591362096,-14.993222591362096,-18.993222591362102,-18.993222591362102,6.006777408637903,32.0067774086379,36.0067774086379,21.006777408637898,-0.9932225913620982,-6.993222591362097,2.0067774086379018,9.006777408637904,0.006777408637901772,-7.993222591362097,-8.993222591362096,-12.993222591362096,-8.993222591362096,-8.993222591362096,-9.993222591362096,-4.993222591362098,11.006777408637904,16.0067774086379,5.006777408637902,4.006777408637902,-2.9932225913620982,-9.993222591362096,-17.993222591362102,-10.993222591362096,-11.993222591362096,-12.993222591362096,-10.993222591362096,2.0067774086379018,35.0067774086379,37.0067774086379,20.006777408637898,1.0067774086379018,-4.993222591362098,-11.993222591362096,-9.993222591362096,-7.993222591362097
0.0,0.0,0.0,0.0,0.0,0.0,0.0,0.0,0.0,0.0,0.0,0.0,0.0,0.0,0.0,0.0,0.0,0.0,0.0,0.0,0.0,0.0,0.0,0.0,0.0,0.0,0.0,0.0,0.0,0.0,0.0,0.0,0.0,0.0,0.0,0.0,0.0,0.0,0.0,0.0,0.0,0.0,0.0,0.0,0.0,0.0,0.0,0.0,1.0,1.0,1.0,1.0,1.0,1.0,1.0,1.0,1.0,1.0,1.0,1.0,1.0,1.0,1.0,1.0,1.0,1.0,1.0,1.0,1.0,1.0,1.0,1.0,1.0,1.0,1.0,1.0,1.0,1.0,1.0,1.0,1.0,1.0,1.0,1.0,1.0,1.0,1.0,1.0,1.0,1.0,1.0,1.0,1.0,1.0,1.0,1.0,1.0,1.0,1.0,1.0,1.0,1.0,1.0,1.0,1.0,1.0,1.0,1.0,1.0,1.0,1.0,1.0,1.0,1.0,1.0,1.0,1.0,1.0,1.0,1.0,1.0,1.0,1.0,1.0,1.0,1.0,1.0,1.0,1.0,1.0,1.0,1.0,1.0,1.0,1.0,1.0,1.0,1.0,1.0,1.0,1.0,1.0,1.0,1.0,1.0,1.0,1.0,1.0,1.0,1.0,1.0,1.0,1.0,1.0,1.0,1.0,1.0,1.0,1.0,1.0,1.0,1.0,1.0,1.0,1.0,1.0,1.0,1.0,1.0,1.0,1.0,1.0,1.0,1.0,1.0,1.0,1.0,1.0,1.0,1.0,1.0,1.0,1.0,1.0,1.0,1.0,1.0,1.0,1.0,1.0,1.0,1.0,1.0,1.0,1.0,1.0,1.0,1.0,1.0,1.0,1.0,1.0,1.0,1.0,1.0,1.0,1.0,1.0,1.0,1.0,1.0,1.0,1.0,1.0,1.0,1.0,1.0,1.0,1.0,1.0,1.0,1.0,1.0,1.0,1.0,1.0,1.0,1.0,1.0,1.0,1.0,1.0,1.0,1.0,1.0,1.0,1.0,1.0,1.0,1.0,1.0,1.0,1.0,1.0,1.0,1.0,1.0,1.0,1.0,1.0,1.0,1.0,1.0,1.0,1.0,1.0,1.0,1.0,1.0,1.0,1.0,1.0,1.0,1.0,1.0,1.0,1.0,1.0,1.0,1.0,1.0,1.0,1.0,1.0,1.0,1.0,1.0,1.0,1.0,1.0,1.0,1.0,1.0,1.0,1.0,1.0,1.0,1.0,1.0,1.0,1.0,1.0,1.0,1.0,1.0,1.0,1.0,1.0,1.0,1.0,1.0,1.0,1.0,1.0,1.0,1.0,1.0,1.0,1.0,1.0,1.0,1.0,1.0,1.0,1.0,1.0,1.0,1.0,1.0,1.0,1.0,1.0,1.0,1.0,1.0,1.0,1.0,1.0,1.0,1.0,1.0,1.0,1.0,1.0,1.0,1.0,1.0,1.0,1.0,1.0,1.0,1.0,1.0,1.0,1.0,1.0,1.0,1.0,1.0,0.0,0.0,0.0,0.0,0.0,0.0,0.0,0.0,0.0,0.0,0.0,0.0,0.0,0.0,0.0,0.0,0.0,0.0,0.0,0.0,0.0,0.0,0.0,0.0,0.0,0.0,0.0,0.0,0.0,0.0,0.0,0.0,0.0,0.0,0.0,0.0,0.0,0.0,0.0,0.0,0.0,0.0,0.0,0.0,0.0,0.0,0.0,0.0,0.0,0.0,0.0,0.0,0.0,0.0,0.0,0.0,0.0,0.0,0.0,0.0,0.0,0.0,0.0,0.0,0.0,0.0,0.0,0.0,0.0,0.0,0.0,0.0,0.0,0.0,0.0,0.0,0.0,0.0,0.0,0.0,0.0,0.0,0.0,0.0,0.0,0.0,0.0,0.0,0.0,0.0,0.0,0.0,0.0,0.0,0.0,0.0,0.0,0.0,0.0,0.0,0.0,0.0,0.0,0.0,0.0,0.0,0.0,0.0,0.0,0.0,0.0,0.0,0.0,0.0,0.0,0.0,0.0,0.0,0.0,0.0,0.0,0.0,0.0,0.0,0.0,0.0,0.0,0.0,0.0,0.0,0.0,0.0,0.0,0.0,0.0,0.0,0.0,0.0,0.0,0.0,0.0,0.0,0.0,0.0,0.0,0.0,0.0,0.0,0.0,0.0,0.0,0.0,0.0,0.0,0.0,0.0,0.0,0.0,0.0,0.0,0.0,0.0,0.0
