Time,EMG
0.0,-10.991328903654505
0.000996710854181202,-10.991328903654505
0.001993421708362404,-12.991328903654505
0.002990132562543606,-10.991328903654505
0.003986843416724808,-6.991328903654505
0.00498355427090601,-3.991328903654505
0.005980265125087212,-0.9913289036545052
0.006976975979268414,3.008671096345495
0.007973686833449616,4.008671096345495
0.008970397687630818,4.008671096345495
0.00996710854181202,12.008671096345495
0.01096381939599322,11.008671096345495
0.011960530250174423,11.008671096345495
0.012957241104355626,13.008671096345495
0.013953951958536827,9.008671096345495
0.014950662812718028,5.008671096345495
0.01594737366689923,2.008671096345495
0.016944084521080434,-1.9913289036545052
0.017940795375261637,-5.991328903654505
0.018937506229442836,-8.991328903654505
0.01993421708362404,-10.991328903654505
0.02093092793780524,-12.991328903654505
0.02192763879198644,-12.991328903654505
0.022924349646167644,-12.991328903654505
0.023921060500348847,-7.991328903654505
0.02491777135453005,-7.991328903654505
0.025914482208711252,-1.9913289036545052
0.02691119306289245,3.008671096345495
0.027907903917073654,3.008671096345495
0.028904614771254857,8.008671096345495
0.029901325625436057,11.008671096345495
0.03089803647961726,10.008671096345495
0.03189474733379846,12.008671096345495
0.032891458187979665,11.008671096345495
0.03388816904216087,10.008671096345495
0.03488487989634207,7.008671096345495
0.03588159075052327,4.008671096345495
0.03687830160470447,-1.9913289036545052
0.03787501245888567,-4.991328903654505
0.038871723313066875,-7.991328903654505
0.03986843416724808,-10.991328903654505
0.04086514502142928,-11.991328903654505
0.04186185587561048,-11.991328903654505
0.042858566729791686,-8.991328903654505
0.04385527758397288,-7.991328903654505
0.044851988438154085,-5.991328903654505
0.04584869929233529,-2.991328903654505
0.04684541014651649,1.0086710963454948
0.04784212100069769,3.008671096345495
0.048838831854878896,6.008671096345495
0.0498355427090601,12.008671096345495
0.0508322535632413,11.008671096345495
0.051828964417422504,13.008671096345495
0.0528256752716037,14.008671096345495
0.0538223861257849,11.008671096345495
0.054819096979966106,8.008671096345495
0.05581580783414731,1.0086710963454948
0.05681251868832851,-2.991328903654505
0.057809229542509714,-3.991328903654505
0.05880594039669092,-8.991328903654505
0.05980265125087211,-10.991328903654505
0.060799362105053316,-12.991328903654505
0.06179607295923452,-11.991328903654505
0.06279278381341573,-11.991328903654505
0.06378949466759692,-8.991328903654505
0.06478620552177812,-3.991328903654505
0.06578291637595933,-2.991328903654505
0.06677962723014053,1.0086710963454948
0.06777633808432174,6.008671096345495
0.06877304893850293,9.008671096345495
0.06976975979268414,10.008671096345495
0.07076647064686534,12.008671096345495
0.07176318150104655,12.008671096345495
0.07275989235522774,12.008671096345495
0.07375660320940894,11.008671096345495
0.07475331406359015,5.008671096345495
0.07575002491777134,2.008671096345495
0.07674673577195255,-0.9913289036545052
0.07774344662613375,-3.991328903654505
0.07874015748031496,-4.991328903654505
0.07973686833449616,-11.991328903654505
0.08073357918867735,-13.991328903654505
0.08173029004285856,-12.991328903654505
0.08272700089703976,-8.991328903654505
0.08372371175122097,-9.991328903654505
0.08472042260540216,-3.991328903654505
0.08571713345958337,-2.991328903654505
0.08671384431376457,3.008671096345495
0.08771055516794576,8.008671096345495
0.08870726602212697,8.008671096345495
0.08970397687630817,8.008671096345495
0.09070068773048938,11.008671096345495
0.09169739858467058,11.008671096345495
0.09269410943885178,12.008671096345495
0.09369082029303298,9.008671096345495
0.09468753114721419,6.008671096345495
0.09568424200139539,3.008671096345495
0.09668095285557658,-1.9913289036545052
0.09767766370975779,-2.991328903654505
0.09867437456393899,-10.991328903654505
0.0996710854181202,-8.991328903654505
0.1006677962723014,-12.991328903654505
0.1016645071264826,-12.991328903654505
0.1026612179806638,-9.991328903654505
0.10365792883484501,-10.991328903654505
0.1046546396890262,-4.991328903654505
0.1056513505432074,-2.991328903654505
0.10664806139738861,4.008671096345495
0.1076447722515698,6.008671096345495
0.10864148310575102,8.008671096345495
0.10963819395993221,10.008671096345495
0.11063490481411342,12.008671096345495
0.11163161566829462,8.008671096345495
0.11262832652247581,14.008671096345495
0.11362503737665702,7.008671096345495
0.11462174823083822,2.008671096345495
0.11561845908501943,1.0086710963454948
0.11661516993920062,0.008671096345494789
0.11761188079338183,-1.9913289036545052
0.11860859164756303,-5.991328903654505
0.11960530250174423,-12.991328903654505
0.12060201335592544,-11.991328903654505
0.12159872421010663,-12.991328903654505
0.12259543506428784,-10.991328903654505
0.12359214591846904,-6.991328903654505
0.12458885677265025,-4.991328903654505
0.12558556762683146,-2.991328903654505
0.12658227848101264,1.0086710963454948
0.12757898933519385,4.008671096345495
0.12857570018937506,5.008671096345495
0.12957241104355624,12.008671096345495
0.13056912189773745,10.008671096345495
0.13156583275191866,10.008671096345495
0.13256254360609987,12.008671096345495
0.13355925446028105,9.008671096345495
0.13455596531446226,6.008671096345495
0.13555267616864347,4.008671096345495
0.13654938702282465,-1.9913289036545052
0.13754609787700586,-2.991328903654505
0.13854280873118707,-7.991328903654505
0.13953951958536828,-9.991328903654505
0.14053623043954946,-12.991328903654505
0.14153294129373067,-12.991328903654505
0.14252965214791188,-9.991328903654505
0.1435263630020931,-7.991328903654505
0.14452307385627428,-4.991328903654505
0.14551978471045549,-0.9913289036545052
0.1465164955646367,3.008671096345495
0.14751320641881788,5.008671096345495
0.1485099172729991,6.008671096345495
0.1495066281271803,12.008671096345495
0.1505033389813615,12.008671096345495
0.1515000498355427,12.008671096345495
0.1524967606897239,13.008671096345495
0.1534934715439051,8.008671096345495
0.1544901823980863,5.008671096345495
0.1554868932522675,1.0086710963454948
0.1564836041064487,-3.991328903654505
0.15748031496062992,-5.991328903654505
0.1584770258148111,-7.991328903654505
0.1594737366689923,-10.991328903654505
0.16047044752317352,-12.991328903654505
0.1614671583773547,-12.991328903654505
0.1624638692315359,-8.991328903654505
0.16346058008571712,-9.991328903654505
0.16445729093989833,-6.991328903654505
0.1654540017940795,-2.991328903654505
0.16645071264826072,2.008671096345495
0.16744742350244193,4.008671096345495
0.16844413435662312,6.008671096345495
0.16944084521080433,12.008671096345495
0.17043755606498553,11.008671096345495
0.17143426691916674,11.008671096345495
0.17243097777334793,13.008671096345495
0.17342768862752914,7.008671096345495
0.17442439948171035,7.008671096345495
0.17542111033589153,4.008671096345495
0.17641782119007274,-1.9913289036545052
0.17741453204425395,-3.991328903654505
0.17841124289843516,-9.991328903654505
0.17940795375261634,-9.991328903654505
0.18040466460679755,-11.991328903654505
0.18140137546097876,-12.991328903654505
0.18239808631515997,-10.991328903654505
0.18339479716934115,-7.991328903654505
0.18439150802352236,-7.991328903654505
0.18538821887770357,-0.9913289036545052
0.18638492973188475,2.008671096345495
0.18738164058606596,7.008671096345495
0.18837835144024717,8.008671096345495
0.18937506229442838,11.008671096345495
0.19037177314860956,12.008671096345495
0.19136848400279077,9.008671096345495
0.19236519485697198,10.008671096345495
0.19336190571115316,9.008671096345495
0.19435861656533437,6.008671096345495
0.19535532741951558,4.008671096345495
0.1963520382736968,-0.9913289036545052
0.19734874912787798,-2.991328903654505
0.19834545998205919,-8.991328903654505
0.1993421708362404,-11.991328903654505
0.20033888169042158,-9.991328903654505
0.2013355925446028,-9.991328903654505
0.202332303398784,-10.991328903654505
0.2033290142529652,-6.991328903654505
0.2043257251071464,-2.991328903654505
0.2053224359613276,0.008671096345494789
0.2063191468155088,0.008671096345494789
0.20731585766969002,5.008671096345495
0.2083125685238712,5.008671096345495
0.2093092793780524,11.008671096345495
0.21030599023223362,11.008671096345495
0.2113027010864148,11.008671096345495
0.212299411940596,11.008671096345495
0.21329612279477722,9.008671096345495
0.21429283364895843,4.008671096345495
0.2152895445031396,4.008671096345495
0.21628625535732082,-1.9913289036545052
0.21728296621150203,-2.991328903654505
0.21827967706568321,-6.991328903654505
0.21927638791986442,-9.991328903654505
0.22027309877404563,-11.991328903654505
0.22126980962822684,-10.991328903654505
0.22226652048240803,-11.991328903654505
0.22326323133658924,-10.991328903654505
0.22425994219077044,-7.991328903654505
0.22525665304495163,-0.9913289036545052
0.22625336389913284,3.008671096345495
0.22725007475331405,5.008671096345495
0.22824678560749526,5.008671096345495
0.22924349646167644,10.008671096345495
0.23024020731585765,11.008671096345495
0.23123691817003886,10.008671096345495
0.23223362902422004,10.008671096345495
0.23323033987840125,10.008671096345495
0.23422705073258246,8.008671096345495
0.23522376158676367,4.008671096345495
0.23622047244094485,1.0086710963454948
0.23721718329512606,-2.991328903654505
0.23821389414930727,-7.991328903654505
0.23921060500348845,-10.991328903654505
0.24020731585766966,-10.991328903654505
0.24120402671185087,-14.991328903654505
0.24220073756603208,-10.991328903654505
0.24319744842021326,-9.991328903654505
0.24419415927439447,-4.991328903654505
0.24519087012857568,-2.991328903654505
0.2461875809827569,0.008671096345494789
0.24718429183693807,4.008671096345495
0.24818100269111928,7.008671096345495
0.2491777135453005,12.008671096345495
0.2501744243994817,9.008671096345495
0.2511711352536629,12.008671096345495
0.2521678461078441,12.008671096345495
0.2531645569620253,9.008671096345495
0.2541612678162065,5.008671096345495
0.2551579786703877,3.008671096345495
0.2561546895245689,-0.9913289036545052
0.2571514003787501,-0.9913289036545052
0.2581481112329313,-6.991328903654505
0.2591448220871125,-12.991328903654505
0.2601415329412937,-14.991328903654505
0.2611382437954749,-10.991328903654505
0.26213495464965614,-9.991328903654505
0.2631316655038373,-6.991328903654505
0.2641283763580185,-2.991328903654505
0.26512508721219974,-1.9913289036545052
0.2661217980663809,3.008671096345495
0.2671185089205621,4.008671096345495
0.26811521977474334,6.008671096345495
0.2691119306289245,9.008671096345495
0.2701086414831057,8.008671096345495
0.27110535233728694,14.008671096345495
0.2721020631914681,12.008671096345495
0.2730987740456493,9.008671096345495
0.27409548489983054,8.008671096345495
0.2750921957540117,2.008671096345495
0.27608890660819296,-0.9913289036545052
0.27708561746237415,-3.991328903654505
0.2780823283165553,-6.991328903654505
0.27907903917073656,-9.991328903654505
0.28007575002491775,-12.991328903654505
0.28107246087909893,-12.991328903654505
0.28206917173328017,-8.991328903654505
0.28306588258746135,-7.991328903654505
0.28406259344164253,-6.991328903654505
0.28505930429582377,-3.991328903654505
0.28605601515000495,1.0086710963454948
0.2870527260041862,5.008671096345495
0.28804943685836737,4.008671096345495
0.28904614771254855,9.008671096345495
0.2900428585667298,12.008671096345495
0.29103956942091097,12.008671096345495
0.29203628027509215,12.008671096345495
0.2930329911292734,9.008671096345495
0.29402970198345457,8.008671096345495
0.29502641283763575,2.008671096345495
0.296023123691817,-2.991328903654505
0.2970198345459982,-5.991328903654505
0.29801654540017936,-7.991328903654505
0.2990132562543606,-10.991328903654505
0.3000099671085418,-12.991328903654505
0.301006677962723,-12.991328903654505
0.3020033888169042,-12.991328903654505
0.3030000996710854,-8.991328903654505
0.3039968105252666,-4.991328903654505
0.3049935213794478,-2.991328903654505
0.305990232233629,0.008671096345494789
0.3069869430878102,5.008671096345495
0.3079836539419914,8.008671096345495
0.3089803647961726,10.008671096345495
0.3099770756503538,11.008671096345495
0.310973786504535,9.008671096345495
0.3119704973587162,11.008671096345495
0.3129672082128974,8.008671096345495
0.3139639190670786,5.008671096345495
0.31496062992125984,4.008671096345495
0.315957340775441,0.008671096345494789
0.3169540516296222,-2.991328903654505
0.31795076248380344,-7.991328903654505
0.3189474733379846,-10.991328903654505
0.3199441841921658,-10.991328903654505
0.32094089504634704,-11.991328903654505
0.3219376059005282,-11.991328903654505
0.3229343167547094,-6.991328903654505
0.32393102760889064,-6.991328903654505
0.3249277384630718,-2.991328903654505
0.32592444931725306,0.008671096345494789
0.32692116017143424,6.008671096345495
0.3279178710256154,6.008671096345495
0.32891458187979666,12.008671096345495
0.32991129273397785,12.008671096345495
0.330908003588159,11.008671096345495
0.33190471444234027,12.008671096345495
0.33290142529652145,9.008671096345495
0.33389813615070263,7.008671096345495
0.33489484700488387,3.008671096345495
0.33589155785906505,-1.9913289036545052
0.33688826871324623,-3.991328903654505
0.33788497956742747,-9.991328903654505
0.33888169042160865,-10.991328903654505
0.3398784012757899,-12.991328903654505
0.34087511212997107,-14.991328903654505
0.34187182298415225,-11.991328903654505
0.3428685338383335,-8.991328903654505
0.34386524469251467,-5.991328903654505
0.34486195554669585,-3.991328903654505
0.3458586664008771,0.008671096345494789
0.3468553772550583,5.008671096345495
0.34785208810923945,5.008671096345495
0.3488487989634207,9.008671096345495
0.3498455098176019,12.008671096345495
0.35084222067178306,9.008671096345495
0.3518389315259643,12.008671096345495
0.3528356423801455,11.008671096345495
0.3538323532343267,8.008671096345495
0.3548290640885079,4.008671096345495
0.3558257749426891,-1.9913289036545052
0.3568224857968703,-2.991328903654505
0.3578191966510515,-6.991328903654505
0.3588159075052327,-9.991328903654505
0.3598126183594139,-11.991328903654505
0.3608093292135951,-12.991328903654505
0.3618060400677763,-10.991328903654505
0.3628027509219575,-9.991328903654505
0.3637994617761387,-7.991328903654505
0.36479617263031994,-2.991328903654505
0.3657928834845011,0.008671096345494789
0.3667895943386823,5.008671096345495
0.36778630519286354,4.008671096345495
0.3687830160470447,9.008671096345495
0.3697797269012259,11.008671096345495
0.37077643775540714,12.008671096345495
0.3717731486095883,12.008671096345495
0.3727698594637695,6.008671096345495
0.37376657031795074,7.008671096345495
0.3747632811721319,4.008671096345495
0.3757599920263131,0.008671096345494789
0.37675670288049434,-3.991328903654505
0.3777534137346755,-8.991328903654505
0.37875012458885676,-9.991328903654505
0.37974683544303794,-11.991328903654505
0.3807435462972191,-11.991328903654505
0.38174025715140036,-12.991328903654505
0.38273696800558155,-10.991328903654505
0.38373367885976273,-2.991328903654505
0.38473038971394397,-2.991328903654505
0.38572710056812515,1.0086710963454948
0.38672381142230633,5.008671096345495
0.38772052227648757,6.008671096345495
0.38871723313066875,9.008671096345495
0.38971394398485,11.008671096345495
0.39071065483903117,11.008671096345495
0.39170736569321235,12.008671096345495
0.3927040765473936,11.008671096345495
0.39370078740157477,10.008671096345495
0.39469749825575595,6.008671096345495
0.3956942091099372,2.008671096345495
0.39669091996411837,-1.9913289036545052
0.39768763081829955,-7.991328903654505
0.3986843416724808,-11.991328903654505
0.399681052526662,-12.991328903654505
0.40067776338084315,-11.991328903654505
0.4016744742350244,-10.991328903654505
0.4026711850892056,-6.991328903654505
0.4036678959433868,-6.991328903654505
0.404664606797568,-3.991328903654505
0.4056613176517492,3.008671096345495
0.4066580285059304,6.008671096345495
0.4076547393601116,6.008671096345495
0.4086514502142928,11.008671096345495
0.409648161068474,11.008671096345495
0.4106448719226552,9.008671096345495
0.4116415827768364,9.008671096345495
0.4126382936310176,8.008671096345495
0.4136350044851988,6.008671096345495
0.41463171533938004,3.008671096345495
0.4156284261935612,0.008671096345494789
0.4166251370477424,-2.991328903654505
0.41762184790192364,-4.991328903654505
0.4186185587561048,-10.991328903654505
0.419615269610286,-12.991328903654505
0.42061198046446724,-11.991328903654505
0.4216086913186484,-10.991328903654505
0.4226054021728296,-8.991328903654505
0.42360211302701084,-3.991328903654505
0.424598823881192,-2.991328903654505
0.4255955347353732,-0.9913289036545052
0.42659224558955444,4.008671096345495
0.4275889564437356,6.008671096345495
0.42858566729791686,11.008671096345495
0.42958237815209804,10.008671096345495
0.4305790890062792,11.008671096345495
0.43157579986046046,12.008671096345495
0.43257251071464164,9.008671096345495
0.4335692215688228,8.008671096345495
0.43456593242300406,4.008671096345495
0.43556264327718525,-1.9913289036545052
0.43655935413136643,-1.9913289036545052
0.43755606498554767,-7.991328903654505
0.43855277583972885,-10.991328903654505
0.43954948669391003,-11.991328903654505
0.44054619754809127,-13.991328903654505
0.44154290840227245,-10.991328903654505
0.4425396192564537,-9.991328903654505
0.44353633011063487,-4.991328903654505
0.44453304096481605,-2.991328903654505
0.4455297518189973,4.008671096345495
0.44652646267317847,5.008671096345495
0.44752317352735965,8.008671096345495
0.4485198843815409,10.008671096345495
0.44951659523572207,12.008671096345495
0.45051330608990325,12.008671096345495
0.4515100169440845,12.008671096345495
0.4525067277982657,9.008671096345495
0.4535034386524469,8.008671096345495
0.4545001495066281,4.008671096345495
0.4554968603608093,-2.991328903654505
0.4564935712149905,-2.991328903654505
0.4574902820691717,-5.991328903654505
0.4584869929233529,-10.991328903654505
0.4594837037775341,-12.991328903654505
0.4604804146317153,-12.991328903654505
0.4614771254858965,-9.991328903654505
0.4624738363400777,-7.991328903654505
0.4634705471942589,-4.991328903654505
0.4644672580484401,-2.991328903654505
0.4654639689026213,1.0086710963454948
0.4664606797568025,5.008671096345495
0.46745739061098374,4.008671096345495
0.4684541014651649,10.008671096345495
0.4694508123193461,12.008671096345495
0.47044752317352734,11.008671096345495
0.4714442340277085,11.008671096345495
0.4724409448818897,8.008671096345495
0.47343765573607094,7.008671096345495
0.4744343665902521,4.008671096345495
0.4754310774444333,-2.991328903654505
0.47642778829861454,-4.991328903654505
0.4774244991527957,-4.991328903654505
0.4784212100069769,-10.991328903654505
0.47941792086115814,-12.991328903654505
0.4804146317153393,-11.991328903654505
0.48141134256952056,-10.991328903654505
0.48240805342370174,-10.991328903654505
0.4834047642778829,-2.991328903654505
0.48440147513206416,-1.9913289036545052
0.48539818598624535,1.0086710963454948
0.4863948968404265,3.008671096345495
0.48739160769460776,5.008671096345495
0.48838831854878895,9.008671096345495
0.48938502940297013,9.008671096345495
0.49038174025715137,8.008671096345495
0.49137845111133255,10.008671096345495
0.4923751619655138,8.008671096345495
0.49337187281969497,8.008671096345495
0.49436858367387615,6.008671096345495
0.4953652945280574,0.008671096345494789
0.49636200538223857,-2.991328903654505
0.49735871623641975,-7.991328903654505
0.498355427090601,-8.991328903654505
0.49935213794478217,-10.991328903654505
0.5003488487989634,-10.991328903654505
0.5013455596531445,-9.991328903654505
0.5023422705073258,-8.991328903654505
0.503338981361507,-6.991328903654505
0.5043356922156882,-2.991328903654505
0.5053324030698694,0.008671096345494789
0.5063291139240506,5.008671096345495
0.5073258247782317,4.008671096345495
0.508322535632413,5.008671096345495
0.5093192464865942,9.008671096345495
0.5103159573407754,9.008671096345495
0.5113126681949566,12.008671096345495
0.5123093790491378,9.008671096345495
0.513306089903319,8.008671096345495
0.5143028007575002,4.008671096345495
0.5152995116116814,-1.9913289036545052
0.5162962224658626,-3.991328903654505
0.5172929333200438,-7.991328903654505
0.518289644174225,-12.991328903654505
0.5192863550284063,-10.991328903654505
0.5202830658825874,-11.991328903654505
0.5212797767367686,-8.991328903654505
0.5222764875909498,-7.991328903654505
0.523273198445131,-3.991328903654505
0.5242699092993123,-1.9913289036545052
0.5252666201534935,3.008671096345495
0.5262633310076746,3.008671096345495
0.5272600418618558,7.008671096345495
0.528256752716037,11.008671096345495
0.5292534635702182,12.008671096345495
0.5302501744243995,11.008671096345495
0.5312468852785807,12.008671096345495
0.5322435961327618,9.008671096345495
0.533240306986943,7.008671096345495
0.5342370178411242,1.0086710963454948
0.5352337286953054,-1.9913289036545052
0.5362304395494867,-2.991328903654505
0.5372271504036679,-6.991328903654505
0.538223861257849,-10.991328903654505
0.5392205721120302,-12.991328903654505
0.5402172829662114,-13.991328903654505
0.5412139938203927,-10.991328903654505
0.5422107046745739,-11.991328903654505
0.5432074155287551,-5.991328903654505
0.5442041263829362,-2.991328903654505
0.5452008372371174,3.008671096345495
0.5461975480912986,6.008671096345495
0.5471942589454799,4.008671096345495
0.5481909697996611,10.008671096345495
0.5491876806538423,12.008671096345495
0.5501843915080235,14.008671096345495
0.5511811023622046,9.008671096345495
0.5521778132163859,9.008671096345495
0.5531745240705671,8.008671096345495
0.5541712349247483,5.008671096345495
0.5551679457789295,-0.9913289036545052
0.5561646566331107,-3.991328903654505
0.5571613674872918,-8.991328903654505
0.5581580783414731,-9.991328903654505
0.5591547891956543,-14.991328903654505
0.5601515000498355,-9.991328903654505
0.5611482109040167,-13.991328903654505
0.5621449217581979,-11.991328903654505
0.5631416326123792,-4.991328903654505
0.5641383434665603,-2.991328903654505
0.5651350543207415,1.0086710963454948
0.5661317651749227,7.008671096345495
0.5671284760291039,6.008671096345495
0.5681251868832851,10.008671096345495
0.5691218977374664,11.008671096345495
0.5701186085916475,12.008671096345495
0.5711153194458287,12.008671096345495
0.5721120303000099,8.008671096345495
0.5731087411541911,9.008671096345495
0.5741054520083724,2.008671096345495
0.5751021628625536,-0.9913289036545052
0.5760988737167347,-3.991328903654505
0.5770955845709159,-5.991328903654505
0.5780922954250971,-7.991328903654505
0.5790890062792783,-11.991328903654505
0.5800857171334596,-13.991328903654505
0.5810824279876408,-11.991328903654505
0.5820791388418219,-9.991328903654505
0.5830758496960031,-5.991328903654505
0.5840725605501843,-1.9913289036545052
0.5850692714043655,4.008671096345495
0.5860659822585468,5.008671096345495
0.587062693112728,5.008671096345495
0.5880594039669091,9.008671096345495
0.5890561148210903,11.008671096345495
0.5900528256752715,10.008671096345495
0.5910495365294528,12.008671096345495
0.592046247383634,8.008671096345495
0.5930429582378152,8.008671096345495
0.5940396690919963,3.008671096345495
0.5950363799461775,0.008671096345494789
0.5960330908003587,-4.991328903654505
0.59702980165454,-5.991328903654505
0.5980265125087212,-8.991328903654505
0.5990232233629024,-12.991328903654505
0.6000199342170836,-12.991328903654505
0.6010166450712647,-9.991328903654505
0.602013355925446,-3.991328903654505
0.6030100667796272,-3.991328903654505
0.6040067776338084,-3.991328903654505
0.6050034884879896,-0.9913289036545052
0.6060001993421708,4.008671096345495
0.6069969101963519,4.008671096345495
0.6079936210505332,11.008671096345495
0.6089903319047144,9.008671096345495
0.6099870427588956,10.008671096345495
0.6109837536130768,10.008671096345495
0.611980464467258,9.008671096345495
0.6129771753214392,5.008671096345495
0.6139738861756204,2.008671096345495
0.6149705970298016,-1.9913289036545052
0.6159673078839828,-1.9913289036545052
0.616964018738164,-5.991328903654505
0.6179607295923452,-10.991328903654505
0.6189574404465265,-11.991328903654505
0.6199541513007076,-12.991328903654505
0.6209508621548888,-9.991328903654505
0.62194757300907,-8.991328903654505
0.6229442838632512,-4.991328903654505
0.6239409947174324,-2.991328903654505
0.6249377055716137,1.0086710963454948
0.6259344164257948,6.008671096345495
0.626931127279976,6.008671096345495
0.6279278381341572,10.008671096345495
0.6289245489883384,11.008671096345495
0.6299212598425197,12.008671096345495
0.6309179706967009,9.008671096345495
0.631914681550882,10.008671096345495
0.6329113924050632,7.008671096345495
0.6339081032592444,4.008671096345495
0.6349048141134256,1.0086710963454948
0.6359015249676069,-4.991328903654505
0.6368982358217881,-7.991328903654505
0.6378949466759692,-9.991328903654505
0.6388916575301504,-12.991328903654505
0.6398883683843316,-13.991328903654505
0.6408850792385129,-11.991328903654505
0.6418817900926941,-7.991328903654505
0.6428785009468753,-3.991328903654505
0.6438752118010564,-1.9913289036545052
0.6448719226552376,1.0086710963454948
0.6458686335094188,4.008671096345495
0.6468653443636001,7.008671096345495
0.6478620552177813,11.008671096345495
0.6488587660719625,12.008671096345495
0.6498554769261436,12.008671096345495
0.6508521877803248,12.008671096345495
0.6518488986345061,11.008671096345495
0.6528456094886873,6.008671096345495
0.6538423203428685,3.008671096345495
0.6548390311970497,-0.9913289036545052
0.6558357420512309,-2.991328903654505
0.656832452905412,-7.991328903654505
0.6578291637595933,-11.991328903654505
0.6588258746137745,-11.991328903654505
0.6598225854679557,-11.991328903654505
0.6608192963221369,-12.991328903654505
0.661816007176318,-7.991328903654505
0.6628127180304992,-2.991328903654505
0.6638094288846805,-2.991328903654505
0.6648061397388617,1.0086710963454948
0.6658028505930429,4.008671096345495
0.6667995614472241,5.008671096345495
0.6677962723014053,12.008671096345495
0.6687929831555866,10.008671096345495
0.6697896940097677,12.008671096345495
0.6707864048639489,9.008671096345495
0.6717831157181301,8.008671096345495
0.6727798265723113,6.008671096345495
0.6737765374264925,4.008671096345495
0.6747732482806738,-0.9913289036545052
0.6757699591348549,-1.9913289036545052
0.6767666699890361,-5.991328903654505
0.6777633808432173,-9.991328903654505
0.6787600916973985,-11.991328903654505
0.6797568025515798,-12.991328903654505
0.680753513405761,-11.991328903654505
0.6817502242599421,-7.991328903654505
0.6827469351141233,-4.991328903654505
0.6837436459683045,-1.9913289036545052
0.6847403568224857,1.0086710963454948
0.685737067676667,5.008671096345495
0.6867337785308482,6.008671096345495
0.6877304893850293,12.008671096345495
0.6887272002392105,9.008671096345495
0.6897239110933917,12.008671096345495
0.690720621947573,12.008671096345495
0.6917173328017542,9.008671096345495
0.6927140436559354,6.008671096345495
0.6937107545101165,4.008671096345495
0.6947074653642977,-0.9913289036545052
0.6957041762184789,-3.991328903654505
0.6967008870726602,-6.991328903654505
0.6976975979268414,-8.991328903654505
0.6986943087810226,-11.991328903654505
0.6996910196352037,-12.991328903654505
0.7006877304893849,-10.991328903654505
0.7016844413435661,-7.991328903654505
0.7026811521977474,-4.991328903654505
0.7036778630519286,-4.991328903654505
0.7046745739061098,0.008671096345494789
0.705671284760291,4.008671096345495
0.7066679956144721,4.008671096345495
0.7076647064686534,9.008671096345495
0.7086614173228346,11.008671096345495
0.7096581281770158,13.008671096345495
0.710654839031197,14.008671096345495
0.7116515498853782,9.008671096345495
0.7126482607395593,6.008671096345495
0.7136449715937406,3.008671096345495
0.7146416824479218,-1.9913289036545052
0.715638393302103,-4.991328903654505
0.7166351041562842,-6.991328903654505
0.7176318150104654,-10.991328903654505
0.7186285258646467,-11.991328903654505
0.7196252367188278,-10.991328903654505
0.720621947573009,-11.991328903654505
0.7216186584271902,-9.991328903654505
0.7226153692813714,-4.991328903654505
0.7236120801355526,-2.991328903654505
0.7246087909897339,3.008671096345495
0.725605501843915,3.008671096345495
0.7266022126980962,7.008671096345495
0.7275989235522774,11.008671096345495
0.7285956344064586,11.008671096345495
0.7295923452606399,11.008671096345495
0.7305890561148211,12.008671096345495
0.7315857669690022,8.008671096345495
0.7325824778231834,7.008671096345495
0.7335791886773646,4.008671096345495
0.7345758995315458,0.008671096345494789
0.7355726103857271,-4.991328903654505
0.7365693212399083,-8.991328903654505
0.7375660320940894,-10.991328903654505
0.7385627429482706,-10.991328903654505
0.7395594538024518,-12.991328903654505
0.7405561646566331,-10.991328903654505
0.7415528755108143,-7.991328903654505
0.7425495863649955,-4.991328903654505
0.7435462972191766,-0.9913289036545052
0.7445430080733578,3.008671096345495
0.745539718927539,3.008671096345495
0.7465364297817203,5.008671096345495
0.7475331406359015,10.008671096345495
0.7485298514900827,13.008671096345495
0.7495265623442638,12.008671096345495
0.750523273198445,12.008671096345495
0.7515199840526262,9.008671096345495
0.7525166949068075,8.008671096345495
0.7535134057609887,4.008671096345495
0.7545101166151699,-1.9913289036545052
0.755506827469351,-1.9913289036545052
0.7565035383235322,-6.991328903654505
0.7575002491777135,-10.991328903654505
0.7584969600318947,-12.991328903654505
0.7594936708860759,-12.991328903654505
0.7604903817402571,-11.991328903654505
0.7614870925944383,-9.991328903654505
0.7624838034486194,-7.991328903654505
0.7634805143028007,-1.9913289036545052
0.7644772251569819,3.008671096345495
0.7654739360111631,5.008671096345495
0.7664706468653443,7.008671096345495
0.7674673577195255,10.008671096345495
0.7684640685737067,9.008671096345495
0.7694607794278879,10.008671096345495
0.7704574902820691,12.008671096345495
0.7714542011362503,8.008671096345495
0.7724509119904315,5.008671096345495
0.7734476228446127,3.008671096345495
0.774444333698794,0.008671096345494789
0.7754410445529751,-2.991328903654505
0.7764377554071563,-6.991328903654505
0.7774344662613375,-11.991328903654505
0.7784311771155187,-12.991328903654505
0.7794278879697,-13.991328903654505
0.7804245988238812,-10.991328903654505
0.7814213096780623,-8.991328903654505
0.7824180205322435,-4.991328903654505
0.7834147313864247,-1.9913289036545052
0.7844114422406059,2.008671096345495
0.7854081530947872,6.008671096345495
0.7864048639489684,5.008671096345495
0.7874015748031495,11.008671096345495
0.7883982856573307,11.008671096345495
0.7893949965115119,11.008671096345495
0.7903917073656931,13.008671096345495
0.7913884182198744,8.008671096345495
0.7923851290740556,5.008671096345495
0.7933818399282367,4.008671096345495
0.7943785507824179,1.0086710963454948
0.7953752616365991,-2.991328903654505
0.7963719724907804,-6.991328903654505
0.7973686833449616,-10.991328903654505
0.7983653941991428,-12.991328903654505
0.799362105053324,-14.991328903654505
0.8003588159075051,-11.991328903654505
0.8013555267616863,-8.991328903654505
0.8023522376158676,-4.991328903654505
0.8033489484700488,1.0086710963454948
0.80434565932423,2.008671096345495
0.8053423701784111,7.008671096345495
0.8063390810325923,7.008671096345495
0.8073357918867736,11.008671096345495
0.8083325027409548,7.008671096345495
0.809329213595136,9.008671096345495
0.8103259244493172,13.008671096345495
0.8113226353034984,9.008671096345495
0.8123193461576795,9.008671096345495
0.8133160570118608,5.008671096345495
0.814312767866042,-1.9913289036545052
0.8153094787202232,-2.991328903654505
0.8163061895744044,-5.991328903654505
0.8173029004285856,-9.991328903654505
0.8182996112827668,-9.991328903654505
0.819296322136948,-12.991328903654505
0.8202930329911292,-10.991328903654505
0.8212897438453104,-10.991328903654505
0.8222864546994916,-5.991328903654505
0.8232831655536728,-4.991328903654505
0.824279876407854,1.0086710963454948
0.8252765872620352,5.008671096345495
0.8262732981162164,6.008671096345495
0.8272700089703976,8.008671096345495
0.8282667198245788,8.008671096345495
0.8292634306787601,11.008671096345495
0.8302601415329413,12.008671096345495
0.8312568523871224,7.008671096345495
0.8322535632413036,8.008671096345495
0.8332502740954848,6.008671096345495
0.834246984949666,-0.9913289036545052
0.8352436958038473,-1.9913289036545052
0.8362404066580285,-6.991328903654505
0.8372371175122096,-10.991328903654505
0.8382338283663908,-13.991328903654505
0.839230539220572,-13.991328903654505
0.8402272500747532,-10.991328903654505
0.8412239609289345,-8.991328903654505
0.8422206717831157,-4.991328903654505
0.8432173826372968,-2.991328903654505
0.844214093491478,1.0086710963454948
0.8452108043456592,4.008671096345495
0.8462075151998405,5.008671096345495
0.8472042260540217,9.008671096345495
0.8482009369082029,12.008671096345495
0.849197647762384,12.008671096345495
0.8501943586165652,12.008671096345495
0.8511910694707464,9.008671096345495
0.8521877803249277,7.008671096345495
0.8531844911791089,3.008671096345495
0.8541812020332901,2.008671096345495
0.8551779128874712,-0.9913289036545052
0.8561746237416524,-8.991328903654505
0.8571713345958337,-11.991328903654505
0.8581680454500149,-13.991328903654505
0.8591647563041961,-13.991328903654505
0.8601614671583773,-10.991328903654505
0.8611581780125585,-9.991328903654505
0.8621548888667396,-4.991328903654505
0.8631515997209209,-2.991328903654505
0.8641483105751021,2.008671096345495
0.8651450214292833,5.008671096345495
0.8661417322834645,5.008671096345495
0.8671384431376457,8.008671096345495
0.868135153991827,12.008671096345495
0.8691318648460081,11.008671096345495
0.8701285757001893,12.008671096345495
0.8711252865543705,8.008671096345495
0.8721219974085517,5.008671096345495
0.8731187082627329,3.008671096345495
0.8741154191169141,0.008671096345494789
0.8751121299710953,-2.991328903654505
0.8761088408252765,-5.991328903654505
0.8771055516794577,-5.991328903654505
0.8781022625336389,-10.991328903654505
0.8790989733878201,-11.991328903654505
0.8800956842420014,-11.991328903654505
0.8810923950961825,-9.991328903654505
0.8820891059503637,-6.991328903654505
0.8830858168045449,-1.9913289036545052
0.8840825276587261,1.0086710963454948
0.8850792385129074,5.008671096345495
0.8860759493670886,4.008671096345495
0.8870726602212697,9.008671096345495
0.8880693710754509,10.008671096345495
0.8890660819296321,11.008671096345495
0.8900627927838133,11.008671096345495
0.8910595036379946,8.008671096345495
0.8920562144921758,9.008671096345495
0.8930529253463569,4.008671096345495
0.8940496362005381,-0.9913289036545052
0.8950463470547193,-1.9913289036545052
0.8960430579089006,-4.991328903654505
0.8970397687630818,-11.991328903654505
0.898036479617263,-12.991328903654505
0.8990331904714441,-12.991328903654505
0.9000299013256253,-9.991328903654505
0.9010266121798065,-10.991328903654505
0.9020233230339878,-7.991328903654505
0.903020033888169,-3.991328903654505
0.9040167447423502,3.008671096345495
0.9050134555965313,3.008671096345495
0.9060101664507125,6.008671096345495
0.9070068773048938,10.008671096345495
0.908003588159075,11.008671096345495
0.9090002990132562,12.008671096345495
0.9099970098674374,12.008671096345495
0.9109937207216185,9.008671096345495
0.9119904315757997,7.008671096345495
0.912987142429981,6.008671096345495
0.9139838532841622,0.008671096345494789
0.9149805641383434,-3.991328903654505
0.9159772749925246,-7.991328903654505
0.9169739858467058,-10.991328903654505
0.9179706967008869,-11.991328903654505
0.9189674075550682,-8.991328903654505
0.9199641184092494,-8.991328903654505
0.9209608292634306,-8.991328903654505
0.9219575401176118,-7.991328903654505
0.922954250971793,-4.991328903654505
0.9239509618259742,0.008671096345494789
0.9249476726801554,3.008671096345495
0.9259443835343366,7.008671096345495
0.9269410943885178,7.008671096345495
0.927937805242699,9.008671096345495
0.9289345160968802,9.008671096345495
0.9299312269510615,12.008671096345495
0.9309279378052426,8.008671096345495
0.9319246486594238,7.008671096345495
0.932921359513605,5.008671096345495
0.9339180703677862,1.0086710963454948
0.9349147812219675,-2.991328903654505
0.9359114920761487,-4.991328903654505
0.9369082029303298,-9.991328903654505
0.937904913784511,-11.991328903654505
0.9389016246386922,-9.991328903654505
0.9398983354928734,-11.991328903654505
0.9408950463470547,-11.991328903654505
0.9418917572012359,-5.991328903654505
0.942888468055417,-0.9913289036545052
0.9438851789095982,2.008671096345495
0.9448818897637794,2.008671096345495
0.9458786006179607,4.008671096345495
0.9468753114721419,8.008671096345495
0.9478720223263231,10.008671096345495
0.9488687331805042,9.008671096345495
0.9498654440346854,12.008671096345495
0.9508621548888666,9.008671096345495
0.9518588657430479,8.008671096345495
0.9528555765972291,4.008671096345495
0.9538522874514103,0.008671096345494789
0.9548489983055914,-1.9913289036545052
0.9558457091597726,-5.991328903654505
0.9568424200139538,-10.991328903654505
0.9578391308681351,-13.991328903654505
0.9588358417223163,-14.991328903654505
0.9598325525764975,-10.991328903654505
0.9608292634306786,-7.991328903654505
0.9618259742848598,-4.991328903654505
0.9628226851390411,-2.991328903654505
0.9638193959932223,4.008671096345495
0.9648161068474035,3.008671096345495
0.9658128177015847,6.008671096345495
0.9668095285557659,8.008671096345495
0.967806239409947,10.008671096345495
0.9688029502641283,11.008671096345495
0.9697996611183095,9.008671096345495
0.9707963719724907,9.008671096345495
0.9717930828266719,7.008671096345495
0.972789793680853,4.008671096345495
0.9737865045350343,-1.9913289036545052
0.9747832153892155,-5.991328903654505
0.9757799262433967,-7.991328903654505
0.9767766370975779,-9.991328903654505
0.9777733479517591,-11.991328903654505
0.9787700588059403,-12.991328903654505
0.9797667696601216,-11.991328903654505
0.9807634805143027,-10.991328903654505
0.9817601913684839,-6.991328903654505
0.9827569022226651,-3.991328903654505
0.9837536130768463,2.008671096345495
0.9847503239310276,4.008671096345495
0.9857470347852088,6.008671096345495
0.9867437456393899,9.008671096345495
0.9877404564935711,8.008671096345495
0.9887371673477523,10.008671096345495
0.9897338782019335,12.008671096345495
0.9907305890561148,10.008671096345495
0.991727299910296,7.008671096345495
0.9927240107644771,5.008671096345495
0.9937207216186583,0.008671096345494789
0.9947174324728395,0.008671096345494789
0.9957141433270208,-6.991328903654505
0.996710854181202,-6.991328903654505
0.9977075650353832,-12.991328903654505
0.9987042758895643,-12.991328903654505
0.9997009867437455,-9.991328903654505
1.0006976975979267,-10.991328903654505
1.001694408452108,-7.991328903654505
1.002691119306289,-4.991328903654505
1.0036878301604704,3.008671096345495
1.0046845410146517,4.008671096345495
1.0056812518688327,5.008671096345495
1.006677962723014,9.008671096345495
1.007674673577195,9.008671096345495
1.0086713844313764,12.008671096345495
1.0096680952855577,11.008671096345495
1.0106648061397387,10.008671096345495
1.01166151699392,8.008671096345495
1.0126582278481011,5.008671096345495
1.0136549387022824,0.008671096345494789
1.0146516495564635,-1.9913289036545052
1.0156483604106448,-3.991328903654505
1.016645071264826,-7.991328903654505
1.0176417821190071,-12.991328903654505
1.0186384929731884,-10.991328903654505
1.0196352038273695,-9.991328903654505
1.0206319146815508,-8.991328903654505
1.021628625535732,-7.991328903654505
1.0226253363899132,-2.991328903654505
1.0236220472440944,1.0086710963454948
1.0246187580982755,5.008671096345495
1.0256154689524568,5.008671096345495
1.026612179806638,8.008671096345495
1.0276088906608192,11.008671096345495
1.0286056015150005,11.008671096345495
1.0296023123691815,12.008671096345495
1.0305990232233628,10.008671096345495
1.031595734077544,8.008671096345495
1.0325924449317252,4.008671096345495
1.0335891557859065,-1.9913289036545052
1.0345858666400876,-3.991328903654505
1.0355825774942689,-7.991328903654505
1.03657928834845,-10.991328903654505
1.0375759992026312,-11.991328903654505
1.0385727100568125,-13.991328903654505
1.0395694209109936,-10.991328903654505
1.0405661317651749,-7.991328903654505
1.041562842619356,-6.991328903654505
1.0425595534735372,-5.991328903654505
1.0435562643277185,1.0086710963454948
1.0445529751818996,5.008671096345495
1.045549686036081,5.008671096345495
1.046546396890262,8.008671096345495
1.0475431077444433,8.008671096345495
1.0485398185986246,11.008671096345495
1.0495365294528056,11.008671096345495
1.050533240306987,11.008671096345495
1.051529951161168,10.008671096345495
1.0525266620153493,4.008671096345495
1.0535233728695304,-0.9913289036545052
1.0545200837237116,-2.991328903654505
1.055516794577893,-3.991328903654505
1.056513505432074,-8.991328903654505
1.0575102162862553,-14.991328903654505
1.0585069271404364,-12.991328903654505
1.0595036379946177,-10.991328903654505
1.060500348848799,-7.991328903654505
1.06149705970298,-7.991328903654505
1.0624937705571613,-1.9913289036545052
1.0634904814113424,2.008671096345495
1.0644871922655237,5.008671096345495
1.065483903119705,7.008671096345495
1.066480613973886,10.008671096345495
1.0674773248280673,12.008671096345495
1.0684740356822484,12.008671096345495
1.0694707465364297,12.008671096345495
1.0704674573906108,11.008671096345495
1.071464168244792,6.008671096345495
1.0724608790989734,4.008671096345495
1.0734575899531544,0.008671096345494789
1.0744543008073357,-4.991328903654505
1.0754510116615168,-3.991328903654505
1.076447722515698,-7.991328903654505
1.0774444333698794,-11.991328903654505
1.0784411442240605,-11.991328903654505
1.0794378550782417,-11.991328903654505
1.0804345659324228,-10.991328903654505
1.0814312767866041,-7.991328903654505
1.0824279876407854,-6.991328903654505
1.0834246984949665,1.0086710963454948
1.0844214093491478,2.008671096345495
1.0854181202033288,5.008671096345495
1.0864148310575101,10.008671096345495
1.0874115419116914,12.008671096345495
1.0884082527658725,12.008671096345495
1.0894049636200538,11.008671096345495
1.0904016744742349,11.008671096345495
1.0913983853284162,8.008671096345495
1.0923950961825972,4.008671096345495
1.0933918070367785,2.008671096345495
1.0943885178909598,-0.9913289036545052
1.0953852287451409,-7.991328903654505
1.0963819395993222,-14.991328903654505
1.0973786504535032,-15.991328903654505
1.0983753613076845,-16.991328903654505
1.0993720721618658,-15.991328903654505
1.100368783016047,-9.991328903654505
1.1013654938702282,-8.991328903654505
1.1023622047244093,-11.991328903654505
1.1033589155785906,-10.991328903654505
1.1043556264327719,-4.991328903654505
1.105352337286953,1.0086710963454948
1.1063490481411342,7.008671096345495
1.1073457589953153,14.008671096345495
1.1083424698494966,26.008671096345495
1.1093391807036777,34.008671096345495
1.110335891557859,31.008671096345495
1.1113326024120402,25.008671096345495
1.1123293132662213,20.008671096345495
1.1133260241204026,11.008671096345495
1.1143227349745837,-1.9913289036545052
1.115319445828765,-11.991328903654505
1.1163161566829463,-16.991328903654505
1.1173128675371273,-14.991328903654505
1.1183095783913086,-11.991328903654505
1.1193062892454897,-14.991328903654505
1.120303000099671,-18.991328903654505
1.1212997109538523,-15.991328903654505
1.1222964218080334,-15.991328903654505
1.1232931326622146,-9.991328903654505
1.1242898435163957,-5.991328903654505
1.125286554370577,-7.991328903654505
1.1262832652247583,-1.9913289036545052
1.1272799760789394,2.008671096345495
1.1282766869331207,3.008671096345495
1.1292733977873017,4.008671096345495
1.130270108641483,-5.991328903654505
1.131266819495664,-6.991328903654505
1.1322635303498454,5.008671096345495
1.1332602412040267,16.008671096345495
1.1342569520582078,9.008671096345495
1.135253662912389,12.008671096345495
1.1362503737665701,13.008671096345495
1.1372470846207514,13.008671096345495
1.1382437954749327,6.008671096345495
1.1392405063291138,-22.991328903654505
1.140237217183295,-23.991328903654505
1.1412339280374761,9.008671096345495
1.1422306388916574,18.008671096345495
1.1432273497458387,3.008671096345495
1.1442240606000198,-4.991328903654505
1.145220771454201,-4.991328903654505
1.1462174823083822,6.008671096345495
1.1472141931625635,4.008671096345495
1.1482109040167447,7.008671096345495
1.1492076148709258,1.0086710963454948
1.1502043257251071,-9.991328903654505
1.1512010365792882,-14.991328903654505
1.1521977474334695,-12.991328903654505
1.1531944582876505,-3.991328903654505
1.1541911691418318,15.008671096345495
1.1551878799960131,10.008671096345495
1.1561845908501942,-4.991328903654505
1.1571813017043755,-5.991328903654505
1.1581780125585566,11.008671096345495
1.1591747234127379,-12.991328903654505
1.1601714342669192,-15.991328903654505
1.1611681451211002,-6.991328903654505
1.1621648559752815,4.008671096345495
1.1631615668294626,2.008671096345495
1.1641582776836439,1.0086710963454948
1.1651549885378252,13.008671096345495
1.1661516993920062,24.008671096345495
1.1671484102461875,12.008671096345495
1.1681451211003686,2.008671096345495
1.16914183195455,-2.991328903654505
1.170138542808731,-18.991328903654505
1.1711352536629123,-30.991328903654505
1.1721319645170936,-18.991328903654505
1.1731286753712746,-10.991328903654505
1.174125386225456,9.008671096345495
1.175122097079637,37.008671096345495
1.1761188079338183,23.008671096345495
1.1771155187879996,-0.9913289036545052
1.1781122296421807,5.008671096345495
1.179108940496362,-1.9913289036545052
1.180105651350543,-6.991328903654505
1.1811023622047243,-12.991328903654505
1.1820990730589056,-26.991328903654505
1.1830957839130867,-8.991328903654505
1.184092494767268,6.008671096345495
1.185089205621449,17.008671096345495
1.1860859164756303,12.008671096345495
1.1870826273298116,28.008671096345495
1.1880793381839927,22.008671096345495
1.189076049038174,14.008671096345495
1.190072759892355,-16.991328903654505
1.1910694707465364,-49.991328903654505
1.1920661816007174,-42.991328903654505
1.1930628924548987,-40.991328903654505
1.19405960330908,-22.991328903654505
1.195056314163261,3.008671096345495
1.1960530250174424,50.008671096345495
1.1970497358716234,96.0086710963455
1.1980464467258047,72.0086710963455
1.199043157579986,23.008671096345495
1.200039868434167,-7.991328903654505
1.2010365792883484,12.008671096345495
1.2020332901425295,43.008671096345495
1.2030300009967108,17.008671096345495
1.204026711850892,-30.991328903654505
1.2050234227050731,-39.991328903654505
1.2060201335592544,-49.991328903654505
1.2070168444134355,-47.991328903654505
1.2080135552676168,-28.991328903654505
1.2090102661217978,-21.991328903654505
1.2100069769759791,-39.991328903654505
1.2110036878301604,-25.991328903654505
1.2120003986843415,-14.991328903654505
1.2129971095385228,-7.991328903654505
1.2139938203927039,9.008671096345495
1.2149905312468852,33.008671096345495
1.2159872421010665,16.008671096345495
1.2169839529552475,-22.991328903654505
1.2179806638094288,-34.991328903654505
1.21897737466361,-3.991328903654505
1.2199740855177912,15.008671096345495
1.2209707963719725,-27.991328903654505
1.2219675072261535,-61.991328903654505
1.2229642180803348,-27.991328903654505
1.223960928934516,0.008671096345494789
1.2249576397886972,40.008671096345495
1.2259543506428785,80.0086710963455
1.2269510614970596,132.0086710963455
1.2279477723512409,92.0086710963455
1.228944483205422,41.008671096345495
1.2299411940596032,10.008671096345495
1.2309379049137843,11.008671096345495
1.2319346157679656,0.008671096345494789
1.2329313266221469,7.008671096345495
1.233928037476328,17.008671096345495
1.2349247483305092,-20.991328903654505
1.2359214591846903,-46.991328903654505
1.2369181700388716,-42.991328903654505
1.237914880893053,-31.991328903654505
1.238911591747234,-31.991328903654505
1.2399083026014153,-28.991328903654505
1.2409050134555963,3.008671096345495
1.2419017243097776,8.008671096345495
1.242898435163959,-20.991328903654505
1.24389514601814,-23.991328903654505
1.2448918568723213,-13.991328903654505
1.2458885677265024,8.008671096345495
1.2468852785806837,11.008671096345495
1.2478819894348647,-17.991328903654505
1.248878700289046,-22.991328903654505
1.2498754111432273,-18.991328903654505
1.2508721219974084,-6.991328903654505
1.2518688328515897,26.008671096345495
1.2528655437057707,35.008671096345495
1.253862254559952,9.008671096345495
1.2548589654141333,-39.991328903654505
1.2558556762683144,-45.991328903654505
1.2568523871224957,-22.991328903654505
1.2578490979766768,-14.991328903654505
1.258845808830858,2.008671096345495
1.2598425196850394,8.008671096345495
1.2608392305392204,46.008671096345495
1.2618359413934017,48.008671096345495
1.2628326522475828,52.008671096345495
1.263829363101764,57.008671096345495
1.2648260739559454,29.008671096345495
1.2658227848101264,-59.991328903654505
1.2668194956643077,-95.9913289036545
1.2678162065184888,-61.991328903654505
1.26881291737267,-8.991328903654505
1.2698096282268512,1.0086710963454948
1.2708063390810325,-8.991328903654505
1.2718030499352138,-6.991328903654505
1.2727997607893948,36.008671096345495
1.2737964716435761,18.008671096345495
1.2747931824977572,-1.9913289036545052
1.2757898933519385,-2.991328903654505
1.2767866042061198,37.008671096345495
1.2777833150603009,29.008671096345495
1.2787800259144821,47.008671096345495
1.2797767367686632,57.008671096345495
1.2807734476228445,11.008671096345495
1.2817701584770258,-33.991328903654505
1.2827668693312069,-66.9913289036545
1.2837635801853882,-60.991328903654505
1.2847602910395692,-62.991328903654505
1.2857570018937505,-12.991328903654505
1.2867537127479316,37.008671096345495
1.287750423602113,56.008671096345495
1.2887471344562942,12.008671096345495
1.2897438453104753,-18.991328903654505
1.2907405561646565,2.008671096345495
1.2917372670188376,28.008671096345495
1.292733977873019,28.008671096345495
1.2937306887272002,5.008671096345495
1.2947273995813813,-38.991328903654505
1.2957241104355626,-21.991328903654505
1.2967208212897436,11.008671096345495
1.297717532143925,20.008671096345495
1.2987142429981062,-13.991328903654505
1.2997109538522873,-32.991328903654505
1.3007076647064686,31.008671096345495
1.3017043755606497,25.008671096345495
1.302701086414831,-20.991328903654505
1.3036977972690122,10.008671096345495
1.3046945081231933,4.008671096345495
1.3056912189773746,21.008671096345495
1.3066879298315557,52.008671096345495
1.307684640685737,48.008671096345495
1.308681351539918,27.008671096345495
1.3096780623940993,-35.991328903654505
1.3106747732482806,-44.991328903654505
1.3116714841024617,-13.991328903654505
1.312668194956643,28.008671096345495
1.313664905810824,16.008671096345495
1.3146616166650054,53.008671096345495
1.3156583275191867,14.008671096345495
1.3166550383733677,-23.991328903654505
1.317651749227549,-44.991328903654505
1.31864846008173,-71.9913289036545
1.3196451709359114,-67.9913289036545
1.3206418817900927,-54.991328903654505
1.3216385926442737,-55.991328903654505
1.322635303498455,1.0086710963454948
1.323632014352636,78.0086710963455
1.3246287252068174,49.008671096345495
1.3256254360609985,-10.991328903654505
1.3266221469151798,-0.9913289036545052
1.327618857769361,8.008671096345495
1.3286155686235421,-18.991328903654505
1.3296122794777234,27.008671096345495
1.3306089903319045,69.0086710963455
1.3316057011860858,19.008671096345495
1.332602412040267,-12.991328903654505
1.3335991228944482,15.008671096345495
1.3345958337486294,-12.991328903654505
1.3355925446028105,29.008671096345495
1.3365892554569918,19.008671096345495
1.337585966311173,-53.991328903654505
1.3385826771653542,-87.9913289036545
1.3395793880195355,-45.991328903654505
1.3405760988737165,-9.991328903654505
1.3415728097278978,-13.991328903654505
1.3425695205820791,-17.991328903654505
1.3435662314362602,-23.991328903654505
1.3445629422904415,18.008671096345495
1.3455596531446226,32.008671096345495
1.3465563639988039,27.008671096345495
1.347553074852985,28.008671096345495
1.3485497857071662,27.008671096345495
1.3495464965613475,55.008671096345495
1.3505432074155286,32.008671096345495
1.3515399182697099,26.008671096345495
1.352536629123891,18.008671096345495
1.3535333399780722,16.008671096345495
1.3545300508322535,-39.991328903654505
1.3555267616864346,-26.991328903654505
1.356523472540616,-58.991328903654505
1.357520183394797,-75.9913289036545
1.3585168942489783,-16.991328903654505
1.3595136051031596,43.008671096345495
1.3605103159573406,30.008671096345495
1.361507026811522,29.008671096345495
1.362503737665703,44.008671096345495
1.3635004485198843,24.008671096345495
1.3644971593740653,18.008671096345495
1.3654938702282466,11.008671096345495
1.366490581082428,-13.991328903654505
1.367487291936609,-3.991328903654505
1.3684840027907903,-19.991328903654505
1.3694807136449714,-55.991328903654505
1.3704774244991527,-37.991328903654505
1.371474135353334,-54.991328903654505
1.372470846207515,-35.991328903654505
1.3734675570616963,-20.991328903654505
1.3744642679158774,49.008671096345495
1.3754609787700587,68.0086710963455
1.37645768962424,-5.991328903654505
1.377454400478421,-55.991328903654505
1.3784511113326023,-75.9913289036545
1.3794478221867834,-34.991328903654505
1.3804445330409647,-25.991328903654505
1.381441243895146,30.008671096345495
1.382437954749327,59.008671096345495
1.3834346656035084,108.0086710963455
1.3844313764576894,94.0086710963455
1.3854280873118707,92.0086710963455
1.3864247981660518,32.008671096345495
1.387421509020233,-43.991328903654505
1.3884182198744144,-50.991328903654505
1.3894149307285955,-52.991328903654505
1.3904116415827767,-23.991328903654505
1.3914083524369578,-19.991328903654505
1.3924050632911391,-35.991328903654505
1.3934017741453204,-16.991328903654505
1.3943984849995015,10.008671096345495
1.3953951958536828,19.008671096345495
1.3963919067078638,55.008671096345495
1.3973886175620451,2.008671096345495
1.3983853284162264,-36.991328903654505
1.3993820392704075,12.008671096345495
1.4003787501245888,-0.9913289036545052
1.4013754609787699,0.008671096345494789
1.4023721718329512,-8.991328903654505
1.4033688826871322,-29.991328903654505
1.4043655935413135,-16.991328903654505
1.4053623043954948,-33.991328903654505
1.4063590152496759,-10.991328903654505
1.4073557261038572,20.008671096345495
1.4083524369580382,19.008671096345495
1.4093491478122195,10.008671096345495
1.4103458586664008,-6.991328903654505
1.411342569520582,5.008671096345495
1.4123392803747632,2.008671096345495
1.4133359912289443,2.008671096345495
1.4143327020831256,-0.9913289036545052
1.4153294129373069,4.008671096345495
1.416326123791488,28.008671096345495
1.4173228346456692,19.008671096345495
1.4183195454998503,8.008671096345495
1.4193162563540316,12.008671096345495
1.4203129672082129,26.008671096345495
1.421309678062394,4.008671096345495
1.4223063889165752,17.008671096345495
1.4233030997707563,13.008671096345495
1.4242998106249376,-5.991328903654505
1.4252965214791187,-50.991328903654505
1.4262932323333,-66.9913289036545
1.4272899431874813,-42.991328903654505
1.4282866540416623,-2.991328903654505
1.4292833648958436,20.008671096345495
1.4302800757500247,27.008671096345495
1.431276786604206,1.0086710963454948
1.4322734974583873,19.008671096345495
1.4332702083125684,24.008671096345495
1.4342669191667496,3.008671096345495
1.4352636300209307,4.008671096345495
1.436260340875112,12.008671096345495
1.4372570517292933,8.008671096345495
1.4382537625834744,-0.9913289036545052
1.4392504734376557,-21.991328903654505
1.4402471842918367,-13.991328903654505
1.441243895146018,-14.991328903654505
1.4422406060001993,-5.991328903654505
1.4432373168543804,-35.991328903654505
1.4442340277085617,-7.991328903654505
1.4452307385627428,7.008671096345495
1.446227449416924,0.008671096345494789
1.4472241602711051,24.008671096345495
1.4482208711252864,4.008671096345495
1.4492175819794677,1.0086710963454948
1.4502142928336488,14.008671096345495
1.45121100368783,40.008671096345495
1.4522077145420111,52.008671096345495
1.4532044253961924,24.008671096345495
1.4542011362503737,9.008671096345495
1.4551978471045548,-6.991328903654505
1.456194557958736,-25.991328903654505
1.4571912688129172,-43.991328903654505
1.4581879796670985,-87.9913289036545
1.4591846905212797,-69.9913289036545
1.4601814013754608,-17.991328903654505
1.4611781122296421,3.008671096345495
1.4621748230838232,32.008671096345495
1.4631715339380045,50.008671096345495
1.4641682447921855,48.008671096345495
1.4651649556463668,20.008671096345495
1.4661616665005481,6.008671096345495
1.4671583773547292,-3.991328903654505
1.4681550882089105,32.008671096345495
1.4691517990630916,37.008671096345495
1.4701485099172729,17.008671096345495
1.4711452207714542,4.008671096345495
1.4721419316256352,-29.991328903654505
1.4731386424798165,-40.991328903654505
1.4741353533339976,-61.991328903654505
1.4751320641881789,-51.991328903654505
1.4761287750423602,-13.991328903654505
1.4771254858965412,11.008671096345495
1.4781221967507225,24.008671096345495
1.4791189076049036,7.008671096345495
1.480115618459085,-8.991328903654505
1.4811123293132662,-15.991328903654505
1.4821090401674473,-7.991328903654505
1.4831057510216286,2.008671096345495
1.4841024618758096,3.008671096345495
1.485099172729991,12.008671096345495
1.486095883584172,12.008671096345495
1.4870925944383533,12.008671096345495
1.4880893052925346,12.008671096345495
1.4890860161467157,14.008671096345495
1.490082727000897,23.008671096345495
1.491079437855078,19.008671096345495
1.4920761487092593,3.008671096345495
1.4930728595634406,1.0086710963454948
1.4940695704176217,-8.991328903654505
1.495066281271803,-13.991328903654505
1.496062992125984,-14.991328903654505
1.4970597029801653,-13.991328903654505
1.4980564138343466,-14.991328903654505
1.4990531246885277,-12.991328903654505
1.500049835542709,-3.991328903654505
1.50104654639689,-6.991328903654505
1.5020432572510714,1.0086710963454948
1.5030399681052524,5.008671096345495
1.5040366789594337,5.008671096345495
1.505033389813615,6.008671096345495
1.506030100667796,9.008671096345495
1.5070268115219774,8.008671096345495
1.5080235223761584,9.008671096345495
1.5090202332303397,8.008671096345495
1.510016944084521,8.008671096345495
1.511013654938702,4.008671096345495
1.5120103657928834,-3.991328903654505
1.5130070766470645,-4.991328903654505
1.5140037875012458,-7.991328903654505
1.515000498355427,-1.9913289036545052
1.5159972092096081,3.008671096345495
1.5169939200637894,-2.991328903654505
1.5179906309179705,-6.991328903654505
1.5189873417721518,-9.991328903654505
1.519984052626333,-6.991328903654505
1.5209807634805141,-2.991328903654505
1.5219774743346954,0.008671096345494789
1.5229741851888765,2.008671096345495
1.5239708960430578,-3.991328903654505
1.5249676068972389,-0.9913289036545052
1.5259643177514202,11.008671096345495
1.5269610286056015,24.008671096345495
1.5279577394597825,20.008671096345495
1.5289544503139638,11.008671096345495
1.529951161168145,8.008671096345495
1.5309478720223262,-9.991328903654505
1.5319445828765075,-14.991328903654505
1.5329412937306885,3.008671096345495
1.5339380045848698,4.008671096345495
1.534934715439051,-9.991328903654505
1.5359314262932322,-6.991328903654505
1.5369281371474135,-6.991328903654505
1.5379248480015946,-4.991328903654505
1.5389215588557759,-11.991328903654505
1.539918269709957,-13.991328903654505
1.5409149805641382,-1.9913289036545052
1.5419116914183193,0.008671096345494789
1.5429084022725006,6.008671096345495
1.5439051131266819,7.008671096345495
1.544901823980863,10.008671096345495
1.5458985348350442,8.008671096345495
1.5468952456892253,16.008671096345495
1.5478919565434066,12.008671096345495
1.548888667397588,1.0086710963454948
1.549885378251769,0.008671096345494789
1.5508820891059503,-11.991328903654505
1.5518787999601313,-5.991328903654505
1.5528755108143126,4.008671096345495
1.553872221668494,5.008671096345495
1.554868932522675,-9.991328903654505
1.5558656433768563,-16.991328903654505
1.5568623542310374,-15.991328903654505
1.5578590650852187,-14.991328903654505
1.5588557759394,1.0086710963454948
1.559852486793581,18.008671096345495
1.5608491976477623,6.008671096345495
1.5618459085019434,-6.991328903654505
1.5628426193561247,-4.991328903654505
1.5638393302103057,8.008671096345495
1.564836041064487,17.008671096345495
1.5658327519186683,10.008671096345495
1.5668294627728494,15.008671096345495
1.5678261736270307,25.008671096345495
1.5688228844812118,20.008671096345495
1.569819595335393,10.008671096345495
1.5708163061895744,10.008671096345495
1.5718130170437554,-7.991328903654505
1.5728097278979367,-20.991328903654505
1.5738064387521178,-35.991328903654505
1.574803149606299,-44.991328903654505
1.5757998604604804,-25.991328903654505
1.5767965713146614,-9.991328903654505
1.5777932821688427,-17.991328903654505
1.5787899930230238,-5.991328903654505
1.579786703877205,11.008671096345495
1.5807834147313862,24.008671096345495
1.5817801255855675,33.008671096345495
1.5827768364397488,8.008671096345495
1.5837735472939298,-7.991328903654505
1.5847702581481111,-11.991328903654505
1.5857669690022922,5.008671096345495
1.5867636798564735,19.008671096345495
1.5877603907106548,25.008671096345495
1.5887571015648358,32.008671096345495
1.5897538124190171,20.008671096345495
1.5907505232731982,10.008671096345495
1.5917472341273795,-11.991328903654505
1.5927439449815608,-26.991328903654505
1.5937406558357419,-26.991328903654505
1.5947373666899232,-10.991328903654505
1.5957340775441042,11.008671096345495
1.5967307883982855,4.008671096345495
1.5977274992524668,-18.991328903654505
1.598724210106648,-11.991328903654505
1.5997209209608292,-9.991328903654505
1.6007176318150103,-7.991328903654505
1.6017143426691915,-2.991328903654505
1.6027110535233726,5.008671096345495
1.603707764377554,8.008671096345495
1.6047044752317352,-1.9913289036545052
1.6057011860859163,0.008671096345494789
1.6066978969400976,2.008671096345495
1.6076946077942786,6.008671096345495
1.60869131864846,16.008671096345495
1.6096880295026412,16.008671096345495
1.6106847403568223,16.008671096345495
1.6116814512110036,8.008671096345495
1.6126781620651847,1.0086710963454948
1.613674872919366,2.008671096345495
1.6146715837735472,-0.9913289036545052
1.6156682946277283,-3.991328903654505
1.6166650054819096,-13.991328903654505
1.6176617163360907,-19.991328903654505
1.618658427190272,-12.991328903654505
1.619655138044453,-8.991328903654505
1.6206518488986343,-4.991328903654505
1.6216485597528156,3.008671096345495
1.6226452706069967,8.008671096345495
1.623641981461178,9.008671096345495
1.624638692315359,15.008671096345495
1.6256354031695404,12.008671096345495
1.6266321140237217,-10.991328903654505
1.6276288248779027,0.008671096345494789
1.628625535732084,12.008671096345495
1.629622246586265,23.008671096345495
1.6306189574404464,19.008671096345495
1.6316156682946277,20.008671096345495
1.6326123791488087,7.008671096345495
1.63360909000299,-4.991328903654505
1.634605800857171,-8.991328903654505
1.6356025117113524,-10.991328903654505
1.6365992225655337,-20.991328903654505
1.6375959334197148,-21.991328903654505
1.638592644273896,-22.991328903654505
1.6395893551280771,-19.991328903654505
1.6405860659822584,-17.991328903654505
1.6415827768364395,-2.991328903654505
1.6425794876906208,2.008671096345495
1.643576198544802,15.008671096345495
1.6445729093989832,21.008671096345495
1.6455696202531644,23.008671096345495
1.6465663311073455,10.008671096345495
1.6475630419615268,7.008671096345495
1.648559752815708,7.008671096345495
1.6495564636698892,9.008671096345495
1.6505531745240705,7.008671096345495
1.6515498853782515,4.008671096345495
1.6525465962324328,0.008671096345494789
1.6535433070866141,-11.991328903654505
1.6545400179407952,-26.991328903654505
1.6555367287949765,-34.991328903654505
1.6565334396491576,-23.991328903654505
1.6575301505033389,-9.991328903654505
1.6585268613575201,-5.991328903654505
1.6595235722117012,-7.991328903654505
1.6605202830658825,-6.991328903654505
1.6615169939200636,-5.991328903654505
1.6625137047742449,-7.991328903654505
1.663510415628426,-3.991328903654505
1.6645071264826072,-1.9913289036545052
1.6655038373367885,0.008671096345494789
1.6665005481909696,13.008671096345495
1.667497259045151,26.008671096345495
1.668493969899332,43.008671096345495
1.6694906807535133,52.008671096345495
1.6704873916076945,20.008671096345495
1.6714841024618756,7.008671096345495
1.672480813316057,5.008671096345495
1.673477524170238,-8.991328903654505
1.6744742350244193,-21.991328903654505
1.6754709458786006,-16.991328903654505
1.6764676567327816,-19.991328903654505
1.677464367586963,-24.991328903654505
1.678461078441144,-18.991328903654505
1.6794577892953253,-9.991328903654505
1.6804545001495064,-7.991328903654505
1.6814512110036877,-9.991328903654505
1.682447921857869,-9.991328903654505
1.68344463271205,-3.991328903654505
1.6844413435662313,-0.9913289036545052
1.6854380544204124,2.008671096345495
1.6864347652745937,7.008671096345495
1.687431476128775,5.008671096345495
1.688428186982956,8.008671096345495
1.6894248978371373,17.008671096345495
1.6904216086913184,22.008671096345495
1.6914183195454997,11.008671096345495
1.692415030399681,16.008671096345495
1.693411741253862,18.008671096345495
1.6944084521080434,11.008671096345495
1.6954051629622244,-4.991328903654505
1.6964018738164057,-23.991328903654505
1.697398584670587,-21.991328903654505
1.698395295524768,-12.991328903654505
1.6993920063789494,-14.991328903654505
1.7003887172331305,-10.991328903654505
1.7013854280873117,-5.991328903654505
1.7023821389414928,2.008671096345495
1.703378849795674,8.008671096345495
1.7043755606498554,21.008671096345495
1.7053722715040365,23.008671096345495
1.7063689823582178,19.008671096345495
1.7073656932123988,14.008671096345495
1.7083624040665801,4.008671096345495
1.7093591149207614,3.008671096345495
1.7103558257749425,-3.991328903654505
1.7113525366291238,-7.991328903654505
1.7123492474833049,-3.991328903654505
1.7133459583374862,-6.991328903654505
1.7143426691916674,-8.991328903654505
1.7153393800458485,-6.991328903654505
1.7163360909000298,-5.991328903654505
1.7173328017542109,-3.991328903654505
1.7183295126083922,-1.9913289036545052
1.7193262234625732,-3.991328903654505
1.7203229343167545,16.008671096345495
1.7213196451709358,20.008671096345495
1.722316356025117,0.008671096345494789
1.7233130668792982,-1.9913289036545052
1.7243097777334793,0.008671096345494789
1.7253064885876606,0.008671096345494789
1.7263031994418419,6.008671096345495
1.727299910296023,8.008671096345495
1.7282966211502042,9.008671096345495
1.7292933320043853,4.008671096345495
1.7302900428585666,3.008671096345495
1.7312867537127479,-3.991328903654505
1.732283464566929,-4.991328903654505
1.7332801754211102,-8.991328903654505
1.7342768862752913,-11.991328903654505
1.7352735971294726,-11.991328903654505
1.736270307983654,-8.991328903654505
1.737267018837835,1.0086710963454948
1.7382637296920163,-1.9913289036545052
1.7392604405461973,-1.9913289036545052
1.7402571514003786,-3.991328903654505
1.7412538622545597,0.008671096345494789
1.742250573108741,3.008671096345495
1.7432472839629223,1.0086710963454948
1.7442439948171033,4.008671096345495
1.7452407056712846,6.008671096345495
1.7462374165254657,9.008671096345495
1.747234127379647,7.008671096345495
1.7482308382338283,10.008671096345495
1.7492275490880094,9.008671096345495
1.7502242599421907,0.008671096345494789
1.7512209707963717,-4.991328903654505
1.752217681650553,-3.991328903654505
1.7532143925047343,-4.991328903654505
1.7542111033589154,-8.991328903654505
1.7552078142130967,-11.991328903654505
1.7562045250672778,-13.991328903654505
1.757201235921459,-9.991328903654505
1.7581979467756401,-10.991328903654505
1.7591946576298214,-9.991328903654505
1.7601913684840027,2.008671096345495
1.7611880793381838,9.008671096345495
1.762184790192365,8.008671096345495
1.7631815010465461,4.008671096345495
1.7641782119007274,7.008671096345495
1.7651749227549087,8.008671096345495
1.7661716336090898,10.008671096345495
1.767168344463271,12.008671096345495
1.7681650553174522,9.008671096345495
1.7691617661716335,7.008671096345495
1.7701584770258147,3.008671096345495
1.7711551878799958,-1.9913289036545052
1.7721518987341771,-2.991328903654505
1.7731486095883582,-8.991328903654505
1.7741453204425395,-11.991328903654505
1.7751420312967208,-12.991328903654505
1.7761387421509018,-11.991328903654505
1.7771354530050831,-11.991328903654505
1.7781321638592642,-6.991328903654505
1.7791288747134455,-9.991328903654505
1.7801255855676266,-3.991328903654505
1.7811222964218079,10.008671096345495
1.7821190072759892,11.008671096345495
1.7831157181301702,4.008671096345495
1.7841124289843515,3.008671096345495
1.7851091398385326,4.008671096345495
1.7861058506927139,8.008671096345495
1.7871025615468952,6.008671096345495
1.7880992724010762,5.008671096345495
1.7890959832552575,10.008671096345495
1.7900926941094386,14.008671096345495
1.79108940496362,12.008671096345495
1.7920861158178012,14.008671096345495
1.7930828266719823,5.008671096345495
1.7940795375261636,-7.991328903654505
1.7950762483803446,-14.991328903654505
1.796072959234526,-14.991328903654505
1.797069670088707,-15.991328903654505
1.7980663809428883,-17.991328903654505
1.7990630917970696,-10.991328903654505
1.8000598026512507,-8.991328903654505
1.801056513505432,-1.9913289036545052
1.802053224359613,3.008671096345495
1.8030499352137943,3.008671096345495
1.8040466460679756,5.008671096345495
1.8050433569221567,6.008671096345495
1.806040067776338,8.008671096345495
1.807036778630519,9.008671096345495
1.8080334894847003,10.008671096345495
1.8090302003388816,10.008671096345495
1.8100269111930627,9.008671096345495
1.811023622047244,6.008671096345495
1.812020332901425,0.008671096345494789
1.8130170437556064,-6.991328903654505
1.8140137546097876,-12.991328903654505
1.8150104654639687,-8.991328903654505
1.81600717631815,-8.991328903654505
1.817003887172331,-10.991328903654505
1.8180005980265124,-9.991328903654505
1.8189973088806934,-6.991328903654505
1.8199940197348747,-4.991328903654505
1.820990730589056,1.0086710963454948
1.821987441443237,5.008671096345495
1.8229841522974184,3.008671096345495
1.8239808631515995,8.008671096345495
1.8249775740057808,8.008671096345495
1.825974284859962,12.008671096345495
1.8269709957141431,14.008671096345495
1.8279677065683244,12.008671096345495
1.8289644174225055,4.008671096345495
1.8299611282766868,4.008671096345495
1.830957839130868,3.008671096345495
1.8319545499850491,-2.991328903654505
1.8329512608392304,-5.991328903654505
1.8339479716934115,-6.991328903654505
1.8349446825475928,-11.991328903654505
1.8359413934017739,-12.991328903654505
1.8369381042559552,-11.991328903654505
1.8379348151101365,-11.991328903654505
1.8389315259643175,-3.991328903654505
1.8399282368184988,-3.991328903654505
1.84092494767268,2.008671096345495
1.8419216585268612,2.008671096345495
1.8429183693810425,5.008671096345495
1.8439150802352235,9.008671096345495
1.8449117910894048,11.008671096345495
1.845908501943586,11.008671096345495
1.8469052127977672,11.008671096345495
1.8479019236519485,11.008671096345495
1.8488986345061296,10.008671096345495
1.8498953453603109,4.008671096345495
1.850892056214492,0.008671096345494789
1.8518887670686732,-4.991328903654505
1.8528854779228545,-4.991328903654505
1.8538821887770356,-10.991328903654505
1.8548788996312169,-12.991328903654505
1.855875610485398,-16.991328903654505
1.8568723213395792,-12.991328903654505
1.8578690321937603,-9.991328903654505
1.8588657430479416,-6.991328903654505
1.859862453902123,-3.991328903654505
1.860859164756304,0.008671096345494789
1.8618558756104853,4.008671096345495
1.8628525864646663,4.008671096345495
1.8638492973188476,10.008671096345495
1.864846008173029,12.008671096345495
1.86584271902721,12.008671096345495
1.8668394298813913,9.008671096345495
1.8678361407355724,10.008671096345495
1.8688328515897537,8.008671096345495
1.869829562443935,3.008671096345495
1.870826273298116,2.008671096345495
1.8718229841522973,-3.991328903654505
1.8728196950064784,-7.991328903654505
1.8738164058606597,-9.991328903654505
1.8748131167148407,-9.991328903654505
1.875809827569022,-12.991328903654505
1.8768065384232033,-10.991328903654505
1.8778032492773844,-10.991328903654505
1.8787999601315657,-6.991328903654505
1.8797966709857468,-2.991328903654505
1.880793381839928,-1.9913289036545052
1.8817900926941094,4.008671096345495
1.8827868035482904,7.008671096345495
1.8837835144024717,11.008671096345495
1.8847802252566528,12.008671096345495
1.885776936110834,11.008671096345495
1.8867736469650154,10.008671096345495
1.8877703578191964,10.008671096345495
1.8887670686733777,8.008671096345495
1.8897637795275588,7.008671096345495
1.89076049038174,1.0086710963454948
1.8917572012359214,0.008671096345494789
1.8927539120901025,-1.9913289036545052
1.8937506229442838,-6.991328903654505
1.8947473337984648,-8.991328903654505
1.8957440446526461,-13.991328903654505
1.8967407555068272,-14.991328903654505
1.8977374663610085,-11.991328903654505
1.8987341772151898,-6.991328903654505
1.8997308880693708,-4.991328903654505
1.9007275989235521,-0.9913289036545052
1.9017243097777332,1.0086710963454948
1.9027210206319145,2.008671096345495
1.9037177314860958,7.008671096345495
1.9047144423402769,9.008671096345495
1.9057111531944582,9.008671096345495
1.9067078640486392,10.008671096345495
1.9077045749028205,13.008671096345495
1.9087012857570018,9.008671096345495
1.909697996611183,4.008671096345495
1.9106947074653642,0.008671096345494789
1.9116914183195453,-1.9913289036545052
1.9126881291737265,-5.991328903654505
1.9136848400279076,-9.991328903654505
1.914681550882089,-11.991328903654505
1.9156782617362702,-12.991328903654505
1.9166749725904513,-11.991328903654505
1.9176716834446326,-11.991328903654505
1.9186683942988136,-9.991328903654505
1.919665105152995,-2.991328903654505
1.9206618160071762,-1.9913289036545052
1.9216585268613573,3.008671096345495
1.9226552377155386,6.008671096345495
1.9236519485697197,12.008671096345495
1.924648659423901,10.008671096345495
1.9256453702780822,10.008671096345495
1.9266420811322633,12.008671096345495
1.9276387919864446,11.008671096345495
1.9286355028406257,11.008671096345495
1.929632213694807,6.008671096345495
1.9306289245489883,1.0086710963454948
1.9316256354031693,0.008671096345494789
1.9326223462573506,-2.991328903654505
1.9336190571115317,-9.991328903654505
1.934615767965713,-13.991328903654505
1.935612478819894,-12.991328903654505
1.9366091896740754,-10.991328903654505
1.9376059005282567,-8.991328903654505
1.9386026113824377,-7.991328903654505
1.939599322236619,-2.991328903654505
1.9405960330908,1.0086710963454948
1.9415927439449814,4.008671096345495
1.9425894547991627,5.008671096345495
1.9435861656533437,11.008671096345495
1.944582876507525,12.008671096345495
1.945579587361706,12.008671096345495
1.9465762982158874,12.008671096345495
1.9475730090700687,12.008671096345495
1.9485697199242498,12.008671096345495
1.949566430778431,6.008671096345495
1.9505631416326121,4.008671096345495
1.9515598524867934,0.008671096345494789
1.9525565633409747,-2.991328903654505
1.9535532741951558,-6.991328903654505
1.954549985049337,-10.991328903654505
1.9555466959035182,-14.991328903654505
1.9565434067576994,-11.991328903654505
1.9575401176118805,-10.991328903654505
1.9585368284660618,-7.991328903654505
1.959533539320243,-5.991328903654505
1.9605302501744242,0.008671096345494789
1.9615269610286055,4.008671096345495
1.9625236718827865,5.008671096345495
1.9635203827369678,7.008671096345495
1.9645170935911491,10.008671096345495
1.9655138044453302,12.008671096345495
1.9665105152995115,12.008671096345495
1.9675072261536926,11.008671096345495
1.9685039370078738,9.008671096345495
1.9695006478620551,5.008671096345495
1.9704973587162362,3.008671096345495
1.9714940695704175,-2.991328903654505
1.9724907804245986,-6.991328903654505
1.9734874912787799,-9.991328903654505
1.974484202132961,-14.991328903654505
1.9754809129871422,-13.991328903654505
1.9764776238413235,-9.991328903654505
1.9774743346955046,-10.991328903654505
1.978471045549686,-8.991328903654505
1.979467756403867,-2.991328903654505
1.9804644672580483,-1.9913289036545052
1.9814611781122295,4.008671096345495
1.9824578889664106,3.008671096345495
1.983454599820592,9.008671096345495
1.984451310674773,12.008671096345495
1.9854480215289543,11.008671096345495
1.9864447323831356,10.008671096345495
1.9874414432373166,10.008671096345495
1.988438154091498,9.008671096345495
1.989434864945679,6.008671096345495
1.9904315757998603,1.0086710963454948
1.9914282866540416,-2.991328903654505
1.9924249975082227,-5.991328903654505
1.993421708362404,-7.991328903654505
1.994418419216585,-11.991328903654505
1.9954151300707663,-13.991328903654505
1.9964118409249474,-12.991328903654505
1.9974085517791287,-11.991328903654505
1.99840526263331,-8.991328903654505
1.999401973487491,-4.991328903654505
2.0003986843416723,0.008671096345494789
2.0013953951958534,3.008671096345495
2.0023921060500345,5.008671096345495
2.003388816904216,8.008671096345495
2.004385527758397,10.008671096345495
2.005382238612578,10.008671096345495
2.0063789494667597,11.008671096345495
2.0073756603209407,11.008671096345495
2.008372371175122,8.008671096345495
2.0093690820293033,6.008671096345495
2.0103657928834844,1.0086710963454948
2.0113625037376655,-2.991328903654505
2.0123592145918465,-2.991328903654505
2.013355925446028,-8.991328903654505
2.014352636300209,-12.991328903654505
2.01534934715439,-14.991328903654505
2.0163460580085717,-13.991328903654505
2.0173427688627528,-10.991328903654505
2.018339479716934,-8.991328903654505
2.0193361905711154,-1.9913289036545052
2.0203329014252964,0.008671096345494789
2.0213296122794775,5.008671096345495
2.0223263231336586,5.008671096345495
2.02332303398784,8.008671096345495
2.024319744842021,9.008671096345495
2.0253164556962022,12.008671096345495
2.0263131665503837,13.008671096345495
2.027309877404565,12.008671096345495
2.028306588258746,10.008671096345495
2.029303299112927,5.008671096345495
2.0303000099671085,1.0086710963454948
2.0312967208212895,-0.9913289036545052
2.0322934316754706,-6.991328903654505
2.033290142529652,-7.991328903654505
2.034286853383833,-14.991328903654505
2.0352835642380143,-14.991328903654505
2.036280275092196,-11.991328903654505
2.037276985946377,-9.991328903654505
2.038273696800558,-7.991328903654505
2.039270407654739,-1.9913289036545052
2.0402671185089205,0.008671096345494789
2.0412638293631016,4.008671096345495
2.0422605402172826,5.008671096345495
2.043257251071464,10.008671096345495
2.0442539619256452,11.008671096345495
2.0452506727798263,10.008671096345495
2.0462473836340074,12.008671096345495
2.047244094488189,10.008671096345495
2.04824080534237,7.008671096345495
2.049237516196551,3.008671096345495
2.0502342270507325,2.008671096345495
2.0512309379049136,0.008671096345494789
2.0522276487590947,-5.991328903654505
2.053224359613276,-8.991328903654505
2.0542210704674573,-11.991328903654505
2.0552177813216383,-11.991328903654505
2.0562144921758194,-12.991328903654505
2.057211203030001,-9.991328903654505
2.058207913884182,-5.991328903654505
2.059204624738363,-2.991328903654505
2.0602013355925446,-1.9913289036545052
2.0611980464467257,3.008671096345495
2.0621947573009067,3.008671096345495
2.063191468155088,8.008671096345495
2.0641881790092693,10.008671096345495
2.0651848898634504,12.008671096345495
2.0661816007176315,12.008671096345495
2.067178311571813,11.008671096345495
2.068175022425994,6.008671096345495
2.069171733280175,5.008671096345495
2.0701684441343566,3.008671096345495
2.0711651549885377,-3.991328903654505
2.0721618658427188,-2.991328903654505
2.0731585766969,-6.991328903654505
2.0741552875510814,-10.991328903654505
2.0751519984052624,-13.991328903654505
2.0761487092594435,-12.991328903654505
2.077145420113625,-11.991328903654505
2.078142130967806,-7.991328903654505
2.079138841821987,-4.991328903654505
2.0801355526761687,-2.991328903654505
2.0811322635303497,2.008671096345495
2.082128974384531,1.0086710963454948
2.083125685238712,8.008671096345495
2.0841223960928934,9.008671096345495
2.0851191069470745,11.008671096345495
2.0861158178012555,12.008671096345495
2.087112528655437,11.008671096345495
2.088109239509618,9.008671096345495
2.089105950363799,9.008671096345495
2.0901026612179803,3.008671096345495
2.091099372072162,-1.9913289036545052
2.092096082926343,-5.991328903654505
2.093092793780524,-10.991328903654505
2.0940895046347054,-13.991328903654505
2.0950862154888865,-13.991328903654505
2.0960829263430676,-14.991328903654505
2.097079637197249,-10.991328903654505
2.09807634805143,-4.991328903654505
2.0990730589056112,-2.991328903654505
2.1000697697597923,-0.9913289036545052
2.101066480613974,3.008671096345495
2.102063191468155,3.008671096345495
2.103059902322336,8.008671096345495
2.1040566131765175,10.008671096345495
2.1050533240306986,11.008671096345495
2.1060500348848796,12.008671096345495
2.1070467457390607,9.008671096345495
2.108043456593242,8.008671096345495
2.1090401674474233,4.008671096345495
2.1100368783016044,1.0086710963454948
2.111033589155786,-3.991328903654505
2.112030300009967,-4.991328903654505
2.113027010864148,-7.991328903654505
2.1140237217183295,-9.991328903654505
2.1150204325725106,-10.991328903654505
2.1160171434266917,-11.991328903654505
2.1170138542808727,-13.991328903654505
2.1180105651350543,-7.991328903654505
2.1190072759892353,-3.991328903654505
2.1200039868434164,-0.9913289036545052
2.121000697697598,4.008671096345495
2.121997408551779,5.008671096345495
2.12299411940596,10.008671096345495
2.123990830260141,11.008671096345495
2.1249875411143226,12.008671096345495
2.1259842519685037,9.008671096345495
2.126980962822685,12.008671096345495
2.1279776736768663,9.008671096345495
2.1289743845310474,5.008671096345495
2.1299710953852284,3.008671096345495
2.13096780623941,-2.991328903654505
2.131964517093591,-4.991328903654505
2.132961227947772,-9.991328903654505
2.133957938801953,-10.991328903654505
2.1349546496561347,-12.991328903654505
2.1359513605103158,-10.991328903654505
2.136948071364497,-10.991328903654505
2.1379447822186783,-5.991328903654505
2.1389414930728594,-6.991328903654505
2.1399382039270405,-0.9913289036545052
2.1409349147812216,5.008671096345495
2.141931625635403,3.008671096345495
2.142928336489584,6.008671096345495
2.143925047343765,11.008671096345495
2.1449217581979467,15.008671096345495
2.145918469052128,12.008671096345495
2.146915179906309,12.008671096345495
2.1479118907604904,10.008671096345495
2.1489086016146715,4.008671096345495
2.1499053124688525,1.0086710963454948
2.1509020233230336,1.0086710963454948
2.151898734177215,-4.991328903654505
2.152895445031396,-9.991328903654505
2.1538921558855773,-10.991328903654505
2.1548888667397588,-12.991328903654505
2.15588557759394,-10.991328903654505
2.156882288448121,-10.991328903654505
2.1578789993023024,-5.991328903654505
2.1588757101564835,-6.991328903654505
2.1598724210106646,-0.9913289036545052
2.1608691318648456,4.008671096345495
2.161865842719027,2.008671096345495
2.1628625535732082,7.008671096345495
2.1638592644273893,12.008671096345495
2.164855975281571,8.008671096345495
2.165852686135752,13.008671096345495
2.166849396989933,9.008671096345495
2.167846107844114,8.008671096345495
2.1688428186982955,4.008671096345495
2.1698395295524766,1.0086710963454948
2.1708362404066577,-1.9913289036545052
2.171832951260839,-3.991328903654505
2.1728296621150203,-6.991328903654505
2.1738263729692013,-10.991328903654505
2.174823083823383,-13.991328903654505
2.175819794677564,-11.991328903654505
2.176816505531745,-7.991328903654505
2.177813216385926,-7.991328903654505
2.1788099272401076,-4.991328903654505
2.1798066380942887,-0.9913289036545052
2.1808033489484697,3.008671096345495
2.1818000598026512,3.008671096345495
2.1827967706568323,6.008671096345495
2.1837934815110134,11.008671096345495
2.1847901923651945,9.008671096345495
2.185786903219376,11.008671096345495
2.186783614073557,9.008671096345495
2.187780324927738,8.008671096345495
2.1887770357819196,6.008671096345495
2.1897737466361007,3.008671096345495
2.1907704574902818,-0.9913289036545052
2.1917671683444633,-4.991328903654505
2.1927638791986444,-7.991328903654505
2.1937605900528254,-8.991328903654505
2.1947573009070065,-12.991328903654505
2.195754011761188,-12.991328903654505
2.196750722615369,-8.991328903654505
2.19774743346955,-8.991328903654505
2.1987441443237317,-4.991328903654505
2.1997408551779127,0.008671096345494789
2.200737566032094,4.008671096345495
2.201734276886275,1.0086710963454948
2.2027309877404564,8.008671096345495
2.2037276985946375,10.008671096345495
2.2047244094488185,10.008671096345495
2.205721120303,11.008671096345495
2.206717831157181,9.008671096345495
2.207714542011362,6.008671096345495
2.2087112528655437,4.008671096345495
2.2097079637197248,1.0086710963454948
2.210704674573906,1.0086710963454948
2.211701385428087,-1.9913289036545052
2.2126980962822684,-5.991328903654505
2.2136948071364495,-9.991328903654505
2.2146915179906306,-12.991328903654505
2.215688228844812,-10.991328903654505
2.216684939698993,-10.991328903654505
2.2176816505531742,-7.991328903654505
2.2186783614073553,-5.991328903654505
2.219675072261537,-1.9913289036545052
2.220671783115718,5.008671096345495
2.221668493969899,4.008671096345495
2.2226652048240805,6.008671096345495
2.2236619156782615,8.008671096345495
2.2246586265324426,10.008671096345495
2.225655337386624,12.008671096345495
2.226652048240805,11.008671096345495
2.2276487590949863,9.008671096345495
2.2286454699491673,5.008671096345495
2.229642180803349,2.008671096345495
2.23063889165753,-0.9913289036545052
2.231635602511711,-5.991328903654505
2.2326323133658925,-9.991328903654505
2.2336290242200736,-11.991328903654505
2.2346257350742547,-10.991328903654505
2.235622445928436,-11.991328903654505
2.2366191567826172,-10.991328903654505
2.2376158676367983,-7.991328903654505
2.2386125784909794,-2.991328903654505
2.239609289345161,-1.9913289036545052
2.240606000199342,0.008671096345494789
2.241602711053523,4.008671096345495
2.2425994219077046,9.008671096345495
2.2435961327618856,11.008671096345495
2.2445928436160667,11.008671096345495
2.2455895544702478,10.008671096345495
2.2465862653244293,10.008671096345495
2.2475829761786104,9.008671096345495
2.2485796870327914,4.008671096345495
2.249576397886973,0.008671096345494789
2.250573108741154,-3.991328903654505
2.251569819595335,-2.991328903654505
2.2525665304495166,-6.991328903654505
2.2535632413036977,-11.991328903654505
2.2545599521578787,-12.991328903654505
2.25555666301206,-11.991328903654505
2.2565533738662413,-9.991328903654505
2.2575500847204224,-5.991328903654505
2.2585467955746035,-4.991328903654505
2.259543506428785,0.008671096345494789
2.260540217282966,4.008671096345495
2.261536928137147,5.008671096345495
2.262533638991328,9.008671096345495
2.2635303498455097,8.008671096345495
2.264527060699691,11.008671096345495
2.265523771553872,12.008671096345495
2.2665204824080534,11.008671096345495
2.2675171932622344,9.008671096345495
2.2685139041164155,4.008671096345495
2.269510614970597,2.008671096345495
2.270507325824778,-3.991328903654505
2.271504036678959,-2.991328903654505
2.2725007475331402,-6.991328903654505
2.2734974583873218,-11.991328903654505
2.274494169241503,-12.991328903654505
2.275490880095684,-12.991328903654505
2.2764875909498654,-10.991328903654505
2.2774843018040465,-7.991328903654505
2.2784810126582276,-4.991328903654505
2.2794777235124086,0.008671096345494789
2.28047443436659,4.008671096345495
2.281471145220771,4.008671096345495
2.2824678560749523,8.008671096345495
2.283464566929134,9.008671096345495
2.284461277783315,11.008671096345495
2.285457988637496,14.008671096345495
2.2864546994916775,11.008671096345495
2.2874514103458585,9.008671096345495
2.2884481212000396,6.008671096345495
2.2894448320542207,2.008671096345495
2.290441542908402,1.0086710963454948
2.2914382537625833,-4.991328903654505
2.2924349646167643,-5.991328903654505
2.293431675470946,-10.991328903654505
2.294428386325127,-11.991328903654505
2.295425097179308,-14.991328903654505
2.2964218080334895,-11.991328903654505
2.2974185188876706,-7.991328903654505
2.2984152297418516,-6.991328903654505
2.2994119405960327,0.008671096345494789
2.3004086514502142,3.008671096345495
2.3014053623043953,4.008671096345495
2.3024020731585764,8.008671096345495
2.303398784012758,10.008671096345495
2.304395494866939,13.008671096345495
2.30539220572112,11.008671096345495
2.306388916575301,10.008671096345495
2.3073856274294826,8.008671096345495
2.3083823382836637,6.008671096345495
2.3093790491378448,3.008671096345495
2.3103757599920263,-1.9913289036545052
2.3113724708462073,-5.991328903654505
2.3123691817003884,-7.991328903654505
2.31336589255457,-11.991328903654505
2.314362603408751,-11.991328903654505
2.315359314262932,-12.991328903654505
2.316356025117113,-10.991328903654505
2.3173527359712947,-6.991328903654505
2.3183494468254757,-5.991328903654505
2.319346157679657,0.008671096345494789
2.3203428685338383,3.008671096345495
2.3213395793880194,3.008671096345495
2.3223362902422005,8.008671096345495
2.3233330010963815,8.008671096345495
2.324329711950563,9.008671096345495
2.325326422804744,12.008671096345495
2.326323133658925,13.008671096345495
2.3273198445131067,9.008671096345495
2.3283165553672878,4.008671096345495
2.329313266221469,1.0086710963454948
2.3303099770756504,-0.9913289036545052
2.3313066879298314,-2.991328903654505
2.3323033987840125,-8.991328903654505
2.3333001096381936,-7.991328903654505
2.334296820492375,-12.991328903654505
2.335293531346556,-11.991328903654505
2.336290242200737,-10.991328903654505
2.3372869530549187,-10.991328903654505
2.3382836639091,-6.991328903654505
2.339280374763281,-1.9913289036545052
2.340277085617462,4.008671096345495
2.3412737964716435,5.008671096345495
2.3422705073258245,8.008671096345495
2.3432672181800056,11.008671096345495
2.344263929034187,10.008671096345495
2.345260639888368,12.008671096345495
2.3462573507425493,12.008671096345495
2.347254061596731,10.008671096345495
2.348250772450912,4.008671096345495
2.349247483305093,2.008671096345495
2.350244194159274,-2.991328903654505
2.3512409050134555,-4.991328903654505
2.3522376158676366,-9.991328903654505
2.3532343267218176,-10.991328903654505
2.354231037575999,-14.991328903654505
2.3552277484301802,-10.991328903654505
2.3562244592843613,-9.991328903654505
2.3572211701385424,-5.991328903654505
2.358217880992724,-2.991328903654505
2.359214591846905,-2.991328903654505
2.360211302701086,4.008671096345495
2.3612080135552675,5.008671096345495
2.3622047244094486,9.008671096345495
2.3632014352636297,11.008671096345495
2.364198146117811,11.008671096345495
2.3651948569719923,13.008671096345495
2.3661915678261733,13.008671096345495
2.3671882786803544,9.008671096345495
2.368184989534536,5.008671096345495
2.369181700388717,3.008671096345495
2.370178411242898,-2.991328903654505
2.3711751220970796,-4.991328903654505
2.3721718329512607,-9.991328903654505
2.3731685438054417,-14.991328903654505
2.3741652546596232,-13.991328903654505
2.3751619655138043,-10.991328903654505
2.3761586763679854,-9.991328903654505
2.3771553872221665,-8.991328903654505
2.378152098076348,-3.991328903654505
2.379148808930529,-1.9913289036545052
2.38014551978471,1.0086710963454948
2.3811422306388916,4.008671096345495
2.3821389414930727,9.008671096345495
2.3831356523472538,10.008671096345495
2.384132363201435,11.008671096345495
2.3851290740556164,9.008671096345495
2.3861257849097974,11.008671096345495
2.3871224957639785,7.008671096345495
2.38811920661816,7.008671096345495
2.389115917472341,2.008671096345495
2.390112628326522,1.0086710963454948
2.3911093391807037,-2.991328903654505
2.3921060500348847,-8.991328903654505
2.393102760889066,-9.991328903654505
2.394099471743247,-11.991328903654505
2.3950961825974284,-12.991328903654505
2.3960928934516095,-11.991328903654505
2.3970896043057905,-5.991328903654505
2.398086315159972,-3.991328903654505
2.399083026014153,0.008671096345494789
2.400079736868334,3.008671096345495
2.4010764477225153,4.008671096345495
2.402073158576697,7.008671096345495
2.403069869430878,9.008671096345495
2.404066580285059,12.008671096345495
2.4050632911392404,11.008671096345495
2.4060600019934215,9.008671096345495
2.4070567128476026,8.008671096345495
2.408053423701784,3.008671096345495
2.409050134555965,1.0086710963454948
2.4100468454101462,-1.9913289036545052
2.4110435562643273,-5.991328903654505
2.412040267118509,-6.991328903654505
2.41303697797269,-11.991328903654505
2.414033688826871,-11.991328903654505
2.4150303996810525,-11.991328903654505
2.4160271105352336,-11.991328903654505
2.4170238213894146,-8.991328903654505
2.4180205322435957,-2.991328903654505
2.419017243097777,-1.9913289036545052
2.4200139539519583,1.0086710963454948
2.4210106648061394,4.008671096345495
2.422007375660321,9.008671096345495
2.423004086514502,10.008671096345495
2.424000797368683,11.008671096345495
2.4249975082228645,11.008671096345495
2.4259942190770456,8.008671096345495
2.4269909299312267,8.008671096345495
2.4279876407854077,8.008671096345495
2.4289843516395893,4.008671096345495
2.4299810624937703,-1.9913289036545052
2.4309777733479514,-3.991328903654505
2.431974484202133,-6.991328903654505
2.432971195056314,-11.991328903654505
2.433967905910495,-12.991328903654505
2.434964616764676,-11.991328903654505
2.4359613276188576,-9.991328903654505
2.4369580384730387,-4.991328903654505
2.43795474932722,-3.991328903654505
2.4389514601814013,0.008671096345494789
2.4399481710355824,2.008671096345495
2.4409448818897634,5.008671096345495
2.441941592743945,8.008671096345495
2.442938303598126,9.008671096345495
2.443935014452307,11.008671096345495
2.444931725306488,12.008671096345495
2.4459284361606697,10.008671096345495
2.4469251470148508,8.008671096345495
2.447921857869032,4.008671096345495
2.4489185687232133,1.0086710963454948
2.4499152795773944,0.008671096345494789
2.4509119904315755,-7.991328903654505
2.451908701285757,-10.991328903654505
2.452905412139938,-13.991328903654505
2.453902122994119,-11.991328903654505
2.4548988338483,-12.991328903654505
2.4558955447024817,-13.991328903654505
2.456892255556663,-7.991328903654505
2.457888966410844,-3.991328903654505
2.4588856772650254,0.008671096345494789
2.4598823881192065,4.008671096345495
2.4608790989733875,3.008671096345495
2.4618758098275686,8.008671096345495
2.46287252068175,12.008671096345495
2.463869231535931,12.008671096345495
2.4648659423901123,11.008671096345495
2.4658626532442938,10.008671096345495
2.466859364098475,9.008671096345495
2.467856074952656,7.008671096345495
2.4688527858068374,4.008671096345495
2.4698494966610185,-2.991328903654505
2.4708462075151996,-4.991328903654505
2.4718429183693806,-6.991328903654505
2.472839629223562,-12.991328903654505
2.4738363400777432,-11.991328903654505
2.4748330509319243,-12.991328903654505
2.475829761786106,-10.991328903654505
2.476826472640287,-7.991328903654505
2.477823183494468,-6.991328903654505
2.478819894348649,-1.9913289036545052
2.4798166052028305,3.008671096345495
2.4808133160570116,6.008671096345495
2.4818100269111927,7.008671096345495
2.482806737765374,9.008671096345495
2.4838034486195553,12.008671096345495
2.4848001594737363,12.008671096345495
2.485796870327918,10.008671096345495
2.486793581182099,10.008671096345495
2.48779029203628,8.008671096345495
2.488787002890461,3.008671096345495
2.4897837137446426,2.008671096345495
2.4907804245988237,-2.991328903654505
2.4917771354530047,-8.991328903654505
2.4927738463071862,-10.991328903654505
2.4937705571613673,-12.991328903654505
2.4947672680155484,-11.991328903654505
2.4957639788697294,-10.991328903654505
2.496760689723911,-7.991328903654505
2.497757400578092,-4.991328903654505
2.498754111432273,-0.9913289036545052
2.4997508222864546,4.008671096345495
2.5007475331406357,4.008671096345495
2.5017442439948168,9.008671096345495
2.5027409548489983,10.008671096345495
2.5037376657031793,11.008671096345495
2.5047343765573604,12.008671096345495
2.5057310874115415,12.008671096345495
2.506727798265723,6.008671096345495
2.507724509119904,6.008671096345495
2.508721219974085,4.008671096345495
2.5097179308282667,1.0086710963454948
2.5107146416824477,-5.991328903654505
2.511711352536629,-8.991328903654505
2.51270806339081,-12.991328903654505
2.5137047742449914,-12.991328903654505
2.5147014850991725,-12.991328903654505
2.5156981959533535,-12.991328903654505
2.516694906807535,-6.991328903654505
2.517691617661716,-3.991328903654505
2.518688328515897,-0.9913289036545052
2.5196850393700787,5.008671096345495
2.5206817502242598,6.008671096345495
2.521678461078441,9.008671096345495
2.522675171932622,9.008671096345495
2.5236718827868034,11.008671096345495
2.5246685936409845,14.008671096345495
2.5256653044951656,11.008671096345495
2.526662015349347,8.008671096345495
2.527658726203528,4.008671096345495
2.5286554370577092,3.008671096345495
2.5296521479118907,-2.991328903654505
2.530648858766072,-5.991328903654505
2.531645569620253,-5.991328903654505
2.532642280474434,-7.991328903654505
2.5336389913286155,-13.991328903654505
2.5346357021827965,-10.991328903654505
2.5356324130369776,-8.991328903654505
2.536629123891159,-6.991328903654505
2.53762583474534,-3.991328903654505
2.5386225455995213,-2.991328903654505
2.5396192564537023,2.008671096345495
2.540615967307884,3.008671096345495
2.541612678162065,6.008671096345495
2.542609389016246,8.008671096345495
2.5436060998704275,10.008671096345495
2.5446028107246086,12.008671096345495
2.5455995215787897,12.008671096345495
2.546596232432971,7.008671096345495
2.5475929432871522,6.008671096345495
2.5485896541413333,3.008671096345495
2.5495863649955144,-2.991328903654505
2.550583075849696,-3.991328903654505
2.551579786703877,-6.991328903654505
2.552576497558058,-11.991328903654505
2.5535732084122396,-14.991328903654505
2.5545699192664206,-13.991328903654505
2.5555666301206017,-10.991328903654505
2.5565633409747828,-9.991328903654505
2.5575600518289643,-4.991328903654505
2.5585567626831454,-1.9913289036545052
2.5595534735373264,2.008671096345495
2.560550184391508,4.008671096345495
2.561546895245689,8.008671096345495
2.56254360609987,12.008671096345495
2.5635403169540516,13.008671096345495
2.5645370278082327,14.008671096345495
2.5655337386624137,12.008671096345495
2.566530449516595,10.008671096345495
2.5675271603707763,8.008671096345495
2.5685238712249574,2.008671096345495
2.5695205820791385,-1.9913289036545052
2.57051729293332,-2.991328903654505
2.571514003787501,-7.991328903654505
2.572510714641682,-10.991328903654505
2.573507425495863,-11.991328903654505
2.5745041363500447,-9.991328903654505
2.575500847204226,-10.991328903654505
2.576497558058407,-6.991328903654505
2.5774942689125884,-3.991328903654505
2.5784909797667694,-3.991328903654505
2.5794876906209505,0.008671096345494789
2.580484401475132,3.008671096345495
2.581481112329313,6.008671096345495
2.582477823183494,10.008671096345495
2.5834745340376752,11.008671096345495
2.5844712448918568,12.008671096345495
2.585467955746038,11.008671096345495
2.586464666600219,8.008671096345495
2.5874613774544004,6.008671096345495
2.5884580883085815,1.0086710963454948
2.5894547991627626,-0.9913289036545052
2.590451510016944,-5.991328903654505
2.591448220871125,-8.991328903654505
2.592444931725306,-10.991328903654505
2.5934416425794873,-13.991328903654505
2.594438353433669,-10.991328903654505
2.59543506428785,-11.991328903654505
2.596431775142031,-6.991328903654505
2.5974284859962125,-8.991328903654505
2.5984251968503935,-1.9913289036545052
2.5994219077045746,5.008671096345495
2.6004186185587557,3.008671096345495
2.601415329412937,6.008671096345495
2.6024120402671183,8.008671096345495
2.6034087511212993,12.008671096345495
2.604405461975481,12.008671096345495
2.605402172829662,8.008671096345495
2.606398883683843,8.008671096345495
2.6073955945380245,6.008671096345495
2.6083923053922056,1.0086710963454948
2.6093890162463866,-1.9913289036545052
2.6103857271005677,-2.991328903654505
2.6113824379547492,-7.991328903654505
2.6123791488089303,-11.991328903654505
2.6133758596631114,-11.991328903654505
2.614372570517293,-10.991328903654505
2.615369281371474,-9.991328903654505
2.616365992225655,-6.991328903654505
2.617362703079836,-2.991328903654505
2.6183594139340176,-1.9913289036545052
2.6193561247881987,2.008671096345495
2.6203528356423798,5.008671096345495
2.6213495464965613,8.008671096345495
2.6223462573507423,10.008671096345495
2.6233429682049234,13.008671096345495
2.624339679059105,12.008671096345495
2.625336389913286,12.008671096345495
2.626333100767467,10.008671096345495
2.627329811621648,6.008671096345495
2.6283265224758297,2.008671096345495
2.6293232333300107,-2.991328903654505
2.630319944184192,-3.991328903654505
2.6313166550383733,-6.991328903654505
2.6323133658925544,-9.991328903654505
2.6333100767467355,-11.991328903654505
2.6343067876009165,-12.991328903654505
2.635303498455098,-11.991328903654505
2.636300209309279,-6.991328903654505
2.63729692016346,-5.991328903654505
2.6382936310176417,-1.9913289036545052
2.6392903418718228,2.008671096345495
2.640287052726004,4.008671096345495
2.6412837635801854,7.008671096345495
2.6422804744343664,10.008671096345495
2.6432771852885475,11.008671096345495
2.6442738961427286,12.008671096345495
2.64527060699691,11.008671096345495
2.646267317851091,8.008671096345495
2.647264028705272,5.008671096345495
2.6482607395594537,3.008671096345495
2.649257450413635,-2.991328903654505
2.650254161267816,-3.991328903654505
2.651250872121997,-2.991328903654505
2.6522475829761785,-10.991328903654505
2.6532442938303595,-12.991328903654505
2.6542410046845406,-11.991328903654505
2.655237715538722,-10.991328903654505
2.656234426392903,-5.991328903654505
2.6572311372470843,-4.991328903654505
2.6582278481012658,-2.991328903654505
2.659224558955447,2.008671096345495
2.660221269809628,2.008671096345495
2.661217980663809,7.008671096345495
2.6622146915179905,11.008671096345495
2.6632114023721716,9.008671096345495
2.6642081132263526,13.008671096345495
2.665204824080534,10.008671096345495
2.6662015349347152,11.008671096345495
2.6671982457888963,7.008671096345495
2.668194956643078,4.008671096345495
2.669191667497259,-1.9913289036545052
2.67018837835144,-2.991328903654505
2.671185089205621,-6.991328903654505
2.6721818000598025,-13.991328903654505
2.6731785109139836,-11.991328903654505
2.6741752217681647,-12.991328903654505
2.675171932622346,-10.991328903654505
2.6761686434765273,-7.991328903654505
2.6771653543307083,-4.991328903654505
2.6781620651848894,-2.991328903654505
2.679158776039071,3.008671096345495
2.680155486893252,4.008671096345495
2.681152197747433,6.008671096345495
2.6821489086016146,8.008671096345495
2.6831456194557957,12.008671096345495
2.6841423303099767,12.008671096345495
2.6851390411641582,12.008671096345495
2.6861357520183393,10.008671096345495
2.6871324628725204,6.008671096345495
2.6881291737267015,3.008671096345495
2.689125884580883,1.0086710963454948
2.690122595435064,-5.991328903654505
2.691119306289245,-6.991328903654505
2.6921160171434266,-10.991328903654505
2.6931127279976077,-12.991328903654505
2.6941094388517888,-12.991328903654505
2.69510614970597,-11.991328903654505
2.6961028605601514,-7.991328903654505
2.6970995714143324,-7.991328903654505
2.6980962822685135,-1.9913289036545052
2.699092993122695,3.008671096345495
2.700089703976876,4.008671096345495
2.701086414831057,8.008671096345495
2.7020831256852387,10.008671096345495
2.7030798365394197,11.008671096345495
2.704076547393601,12.008671096345495
2.705073258247782,11.008671096345495
2.7060699691019634,12.008671096345495
2.7070666799561445,7.008671096345495
2.7080633908103255,4.008671096345495
2.709060101664507,0.008671096345494789
2.710056812518688,-3.991328903654505
2.711053523372869,-7.991328903654505
2.7120502342270503,-10.991328903654505
2.713046945081232,-14.991328903654505
2.714043655935413,-10.991328903654505
2.715040366789594,-10.991328903654505
2.7160370776437754,-8.991328903654505
2.7170337884979565,-4.991328903654505
2.7180304993521376,-1.9913289036545052
2.719027210206319,3.008671096345495
2.7200239210605,4.008671096345495
2.7210206319146812,5.008671096345495
2.7220173427688623,10.008671096345495
2.723014053623044,11.008671096345495
2.724010764477225,15.008671096345495
2.725007475331406,13.008671096345495
2.7260041861855875,8.008671096345495
2.7270008970397686,7.008671096345495
2.7279976078939496,4.008671096345495
2.7289943187481307,0.008671096345494789
2.729991029602312,-4.991328903654505
2.7309877404564933,-9.991328903654505
2.7319844513106744,-10.991328903654505
2.732981162164856,-14.991328903654505
2.733977873019037,-14.991328903654505
2.734974583873218,-12.991328903654505
2.7359712947273995,-4.991328903654505
2.7369680055815806,-3.991328903654505
2.7379647164357617,-0.9913289036545052
2.7389614272899427,4.008671096345495
2.7399581381441243,2.008671096345495
2.7409548489983053,7.008671096345495
2.7419515598524864,8.008671096345495
2.742948270706668,11.008671096345495
2.743944981560849,11.008671096345495
2.74494169241503,12.008671096345495
2.7459384032692116,8.008671096345495
2.7469351141233926,7.008671096345495
2.7479318249775737,3.008671096345495
2.748928535831755,-0.9913289036545052
2.7499252466859363,-2.991328903654505
2.7509219575401174,-7.991328903654505
2.7519186683942984,-11.991328903654505
2.75291537924848,-13.991328903654505
2.753912090102661,-12.991328903654505
2.754908800956842,-11.991328903654505
2.755905511811023,-5.991328903654505
2.7569022226652047,-4.991328903654505
2.7578989335193858,-2.991328903654505
2.758895644373567,2.008671096345495
2.7598923552277483,4.008671096345495
2.7608890660819294,8.008671096345495
2.7618857769361105,9.008671096345495
2.762882487790292,10.008671096345495
2.763879198644473,8.008671096345495
2.764875909498654,12.008671096345495
2.765872620352835,8.008671096345495
2.7668693312070167,5.008671096345495
2.767866042061198,4.008671096345495
2.768862752915379,-0.9913289036545052
2.7698594637695604,-3.991328903654505
2.7708561746237415,-5.991328903654505
2.7718528854779225,-11.991328903654505
2.7728495963321036,-11.991328903654505
2.773846307186285,-12.991328903654505
2.774843018040466,-11.991328903654505
2.7758397288946473,-10.991328903654505
2.7768364397488288,-4.991328903654505
2.77783315060301,-1.9913289036545052
2.778829861457191,4.008671096345495
2.7798265723113724,3.008671096345495
2.7808232831655535,6.008671096345495
2.7818199940197346,10.008671096345495
2.7828167048739156,11.008671096345495
2.783813415728097,11.008671096345495
2.7848101265822782,10.008671096345495
2.7858068374364593,9.008671096345495
2.786803548290641,5.008671096345495
2.787800259144822,1.0086710963454948
2.788796969999003,-2.991328903654505
2.789793680853184,-3.991328903654505
2.7907903917073655,-4.991328903654505
2.7917871025615466,-9.991328903654505
2.7927838134157277,-12.991328903654505
2.793780524269909,-10.991328903654505
2.7947772351240903,-10.991328903654505
2.7957739459782713,-7.991328903654505
2.796770656832453,-4.991328903654505
2.797767367686634,0.008671096345494789
2.798764078540815,3.008671096345495
2.799760789394996,4.008671096345495
2.8007575002491776,6.008671096345495
2.8017542111033586,8.008671096345495
2.8027509219575397,9.008671096345495
2.8037476328117212,11.008671096345495
2.8047443436659023,12.008671096345495
2.8057410545200834,11.008671096345495
2.8067377653742644,7.008671096345495
2.807734476228446,3.008671096345495
2.808731187082627,-0.9913289036545052
2.809727897936808,-3.991328903654505
2.8107246087909896,-7.991328903654505
2.8117213196451707,-12.991328903654505
2.8127180304993518,-11.991328903654505
2.8137147413535333,-10.991328903654505
2.8147114522077143,-12.991328903654505
2.8157081630618954,-7.991328903654505
2.8167048739160765,-5.991328903654505
2.817701584770258,-1.9913289036545052
2.818698295624439,3.008671096345495
2.81969500647862,3.008671096345495
2.8206917173328017,7.008671096345495
2.8216884281869827,10.008671096345495
2.822685139041164,12.008671096345495
2.8236818498953453,11.008671096345495
2.8246785607495264,11.008671096345495
2.8256752716037075,9.008671096345495
2.8266719824578885,5.008671096345495
2.82766869331207,5.008671096345495
2.828665404166251,-0.9913289036545052
2.829662115020432,-2.991328903654505
2.8306588258746137,-7.991328903654505
2.8316555367287948,-11.991328903654505
2.832652247582976,-11.991328903654505
2.833648958437157,-11.991328903654505
2.8346456692913384,-11.991328903654505
2.8356423801455195,-6.991328903654505
2.8366390909997006,-5.991328903654505
2.837635801853882,-0.9913289036545052
2.838632512708063,0.008671096345494789
2.8396292235622442,3.008671096345495
2.8406259344164257,6.008671096345495
2.841622645270607,12.008671096345495
2.842619356124788,11.008671096345495
2.843616066978969,9.008671096345495
2.8446127778331505,11.008671096345495
2.8456094886873315,8.008671096345495
2.8466061995415126,7.008671096345495
2.847602910395694,5.008671096345495
2.848599621249875,-1.9913289036545052
2.8495963321040563,-4.991328903654505
2.8505930429582373,-6.991328903654505
2.851589753812419,-11.991328903654505
2.8525864646666,-11.991328903654505
2.853583175520781,-11.991328903654505
2.8545798863749625,-12.991328903654505
2.8555765972291436,-10.991328903654505
2.8565733080833247,-4.991328903654505
2.857570018937506,-2.991328903654505
2.8585667297916872,2.008671096345495
2.8595634406458683,4.008671096345495
2.8605601515000494,6.008671096345495
2.861556862354231,10.008671096345495
2.862553573208412,11.008671096345495
2.863550284062593,11.008671096345495
2.8645469949167746,10.008671096345495
2.8655437057709556,6.008671096345495
2.8665404166251367,5.008671096345495
2.8675371274793178,5.008671096345495
2.8685338383334993,-3.991328903654505
2.8695305491876804,-3.991328903654505
2.8705272600418614,-5.991328903654505
2.871523970896043,-11.991328903654505
2.872520681750224,-10.991328903654505
2.873517392604405,-11.991328903654505
2.8745141034585866,-10.991328903654505
2.8755108143127677,-8.991328903654505
2.8765075251669487,-3.991328903654505
2.87750423602113,-0.9913289036545052
2.8785009468753113,1.0086710963454948
2.8794976577294924,3.008671096345495
2.8804943685836735,7.008671096345495
2.881491079437855,10.008671096345495
2.882487790292036,8.008671096345495
2.883484501146217,12.008671096345495
2.8844812120003986,11.008671096345495
2.8854779228545797,11.008671096345495
2.886474633708761,6.008671096345495
2.887471344562942,4.008671096345495
2.8884680554171234,-1.9913289036545052
2.8894647662713044,-3.991328903654505
2.8904614771254855,-6.991328903654505
2.891458187979667,-11.991328903654505
2.892454898833848,-12.991328903654505
2.893451609688029,-9.991328903654505
2.8944483205422102,-10.991328903654505
2.8954450313963918,-8.991328903654505
2.896441742250573,-4.991328903654505
2.897438453104754,-2.991328903654505
2.8984351639589354,1.0086710963454948
2.8994318748131165,4.008671096345495
2.9004285856672976,8.008671096345495
2.901425296521479,11.008671096345495
2.90242200737566,12.008671096345495
2.903418718229841,9.008671096345495
2.9044154290840223,10.008671096345495
2.905412139938204,7.008671096345495
2.906408850792385,5.008671096345495
2.907405561646566,1.0086710963454948
2.9084022725007475,-1.9913289036545052
2.9093989833549285,-4.991328903654505
2.9103956942091096,-6.991328903654505
2.9113924050632907,-9.991328903654505
2.912389115917472,-11.991328903654505
2.9133858267716533,-10.991328903654505
2.9143825376258343,-10.991328903654505
2.915379248480016,-5.991328903654505
2.916375959334197,-4.991328903654505
2.917372670188378,-2.991328903654505
2.9183693810425595,3.008671096345495
2.9193660918967406,4.008671096345495
2.9203628027509216,4.008671096345495
2.9213595136051027,9.008671096345495
2.9223562244592842,13.008671096345495
2.9233529353134653,11.008671096345495
2.9243496461676464,12.008671096345495
2.925346357021828,9.008671096345495
2.926343067876009,4.008671096345495
2.92733977873019,1.0086710963454948
2.928336489584371,-1.9913289036545052
2.9293332004385526,-2.991328903654505
2.9303299112927337,-4.991328903654505
2.9313266221469148,-10.991328903654505
2.9323233330010963,-10.991328903654505
2.9333200438552773,-10.991328903654505
2.9343167547094584,-9.991328903654505
2.93531346556364,-4.991328903654505
2.936310176417821,-4.991328903654505
2.937306887272002,-1.9913289036545052
2.938303598126183,2.008671096345495
2.9393003089803647,4.008671096345495
2.9402970198345457,6.008671096345495
2.941293730688727,9.008671096345495
2.9422904415429083,10.008671096345495
2.9432871523970894,12.008671096345495
2.9442838632512704,10.008671096345495
2.9452805741054515,9.008671096345495
2.946277284959633,4.008671096345495
2.947273995813814,3.008671096345495
2.948270706667995,-0.9913289036545052
2.9492674175221767,-1.9913289036545052
2.9502641283763578,-6.991328903654505
2.951260839230539,-8.991328903654505
2.9522575500847204,-13.991328903654505
2.9532542609389014,-12.991328903654505
2.9542509717930825,-9.991328903654505
2.9552476826472636,-8.991328903654505
2.956244393501445,-6.991328903654505
2.957241104355626,-2.991328903654505
2.958237815209807,3.008671096345495
2.9592345260639887,3.008671096345495
2.96023123691817,8.008671096345495
2.961227947772351,12.008671096345495
2.9622246586265324,10.008671096345495
2.9632213694807135,10.008671096345495
2.9642180803348945,8.008671096345495
2.9652147911890756,7.008671096345495
2.966211502043257,5.008671096345495
2.967208212897438,6.008671096345495
2.9682049237516193,-1.9913289036545052
2.9692016346058008,-5.991328903654505
2.970198345459982,-6.991328903654505
2.971195056314163,-11.991328903654505
2.972191767168344,-13.991328903654505
2.9731884780225255,-11.991328903654505
2.9741851888767066,-10.991328903654505
2.9751818997308876,-7.991328903654505
2.976178610585069,-4.991328903654505
2.9771753214392502,-0.9913289036545052
2.9781720322934313,6.008671096345495
2.979168743147613,5.008671096345495
2.980165454001794,6.008671096345495
2.981162164855975,8.008671096345495
2.982158875710156,10.008671096345495
2.9831555865643375,10.008671096345495
2.9841522974185186,8.008671096345495
2.9851490082726997,8.008671096345495
2.986145719126881,7.008671096345495
2.9871424299810623,4.008671096345495
2.9881391408352433,2.008671096345495
2.9891358516894244,-3.991328903654505
2.990132562543606,-8.991328903654505
2.991129273397787,-10.991328903654505
2.992125984251968,-10.991328903654505
2.9931226951061496,-11.991328903654505
2.9941194059603307,-11.991328903654505
2.9951161168145117,-4.991328903654505
2.9961128276686932,-3.991328903654505
2.9971095385228743,-0.9913289036545052
2.9981062493770554,2.008671096345495
2.9991029602312365,4.008671096345495
3.000099671085418,7.008671096345495
3.001096381939599,9.008671096345495
3.00209309279378,11.008671096345495
3.0030898036479616,11.008671096345495
3.0040865145021427,11.008671096345495
3.0050832253563238,9.008671096345495
3.006079936210505,8.008671096345495
3.0070766470646864,5.008671096345495
3.0080733579188674,1.0086710963454948
3.0090700687730485,-4.991328903654505
3.01006677962723,-6.991328903654505
3.011063490481411,-9.991328903654505
3.012060201335592,-14.991328903654505
3.0130569121897737,-12.991328903654505
3.0140536230439547,-10.991328903654505
3.015050333898136,-7.991328903654505
3.016047044752317,-6.991328903654505
3.0170437556064984,-0.9913289036545052
3.0180404664606795,2.008671096345495
3.0190371773148605,6.008671096345495
3.020033888169042,7.008671096345495
3.021030599023223,9.008671096345495
3.022027309877404,12.008671096345495
3.0230240207315853,11.008671096345495
3.024020731585767,12.008671096345495
3.025017442439948,8.008671096345495
3.026014153294129,5.008671096345495
3.0270108641483104,2.008671096345495
3.0280075750024915,-0.9913289036545052
3.0290042858566726,-2.991328903654505
3.030000996710854,-8.991328903654505
3.030997707565035,-10.991328903654505
3.0319944184192162,-10.991328903654505
3.0329911292733973,-10.991328903654505
3.033987840127579,-9.991328903654505
3.03498455098176,-3.991328903654505
3.035981261835941,-4.991328903654505
3.0369779726901225,-2.991328903654505
3.0379746835443036,4.008671096345495
3.0389713943984846,4.008671096345495
3.039968105252666,5.008671096345495
3.040964816106847,12.008671096345495
3.0419615269610283,9.008671096345495
3.0429582378152094,12.008671096345495
3.043954948669391,11.008671096345495
3.044951659523572,10.008671096345495
3.045948370377753,7.008671096345495
3.0469450812319345,3.008671096345495
3.0479417920861156,-1.9913289036545052
3.0489385029402967,-5.991328903654505
3.0499352137944777,-4.991328903654505
3.0509319246486593,-9.991328903654505
3.0519286355028403,-10.991328903654505
3.0529253463570214,-12.991328903654505
3.053922057211203,-11.991328903654505
3.054918768065384,-7.991328903654505
3.055915478919565,-6.991328903654505
3.0569121897737466,-4.991328903654505
3.0579089006279276,3.008671096345495
3.0589056114821087,5.008671096345495
3.05990232233629,5.008671096345495
3.0608990331904713,12.008671096345495
3.0618957440446524,11.008671096345495
3.0628924548988334,10.008671096345495
3.063889165753015,10.008671096345495
3.064885876607196,10.008671096345495
3.065882587461377,6.008671096345495
3.066879298315558,4.008671096345495
3.0678760091697397,1.0086710963454948
3.0688727200239208,-1.9913289036545052
3.069869430878102,-6.991328903654505
3.0708661417322833,-12.991328903654505
3.0718628525864644,-13.991328903654505
3.0728595634406455,-12.991328903654505
3.073856274294827,-11.991328903654505
3.074852985149008,-8.991328903654505
3.075849696003189,-6.991328903654505
3.07684640685737,0.008671096345494789
3.0778431177115517,3.008671096345495
3.078839828565733,2.008671096345495
3.079836539419914,5.008671096345495
3.0808332502740954,10.008671096345495
3.0818299611282765,7.008671096345495
3.0828266719824575,11.008671096345495
3.0838233828366386,11.008671096345495
3.08482009369082,9.008671096345495
3.085816804545001,8.008671096345495
3.0868135153991823,2.008671096345495
3.0878102262533638,0.008671096345494789
3.088806937107545,-4.991328903654505
3.089803647961726,-6.991328903654505
3.0908003588159074,-9.991328903654505
3.0917970696700885,-12.991328903654505
3.0927937805242696,-10.991328903654505
3.0937904913784506,-10.991328903654505
3.094787202232632,-7.991328903654505
3.095783913086813,-6.991328903654505
3.0967806239409943,1.0086710963454948
3.097777334795176,0.008671096345494789
3.098774045649357,3.008671096345495
3.099770756503538,7.008671096345495
3.1007674673577195,13.008671096345495
3.1017641782119005,10.008671096345495
3.1027608890660816,10.008671096345495
3.1037575999202627,10.008671096345495
3.104754310774444,7.008671096345495
3.1057510216286253,6.008671096345495
3.1067477324828063,3.008671096345495
3.107744443336988,-1.9913289036545052
3.108741154191169,-2.991328903654505
3.10973786504535,-6.991328903654505
3.110734575899531,-9.991328903654505
3.1117312867537126,-12.991328903654505
3.1127279976078936,-9.991328903654505
3.1137247084620747,-11.991328903654505
3.1147214193162562,-8.991328903654505
3.1157181301704373,-5.991328903654505
3.1167148410246184,-1.9913289036545052
3.1177115518788,3.008671096345495
3.118708262732981,1.0086710963454948
3.119704973587162,6.008671096345495
3.120701684441343,9.008671096345495
3.1216983952955246,11.008671096345495
3.1226951061497057,11.008671096345495
3.1236918170038868,10.008671096345495
3.1246885278580683,11.008671096345495
3.1256852387122493,6.008671096345495
3.1266819495664304,3.008671096345495
3.1276786604206115,0.008671096345494789
3.128675371274793,-1.9913289036545052
3.129672082128974,-8.991328903654505
3.130668792983155,-8.991328903654505
3.1316655038373367,-9.991328903654505
3.1326622146915177,-10.991328903654505
3.133658925545699,-10.991328903654505
3.1346556363998803,-7.991328903654505
3.1356523472540614,-3.991328903654505
3.1366490581082425,-1.9913289036545052
3.1376457689624235,2.008671096345495
3.138642479816605,4.008671096345495
3.139639190670786,8.008671096345495
3.140635901524967,9.008671096345495
3.1416326123791487,10.008671096345495
3.1426293232333298,9.008671096345495
3.143626034087511,10.008671096345495
3.144622744941692,10.008671096345495
3.1456194557958734,6.008671096345495
3.1466161666500545,2.008671096345495
3.1476128775042356,-2.991328903654505
3.148609588358417,-3.991328903654505
3.149606299212598,-5.991328903654505
3.1506030100667792,-10.991328903654505
3.1515997209209607,-11.991328903654505
3.152596431775142,-9.991328903654505
3.153593142629323,-12.991328903654505
3.154589853483504,-7.991328903654505
3.1555865643376855,-2.991328903654505
3.1565832751918665,1.0086710963454948
3.1575799860460476,2.008671096345495
3.158576696900229,4.008671096345495
3.15957340775441,8.008671096345495
3.1605701186085913,8.008671096345495
