Time,EMG
0.0,19.151196013289052
0.000996710854181202,21.151196013289052
0.001993421708362404,19.151196013289052
0.002990132562543606,17.151196013289052
0.003986843416724808,13.151196013289052
0.00498355427090601,9.151196013289052
0.005980265125087212,4.151196013289052
0.006976975979268414,0.1511960132890522
0.007973686833449616,-4.848803986710948
0.008970397687630818,-12.848803986710948
0.00996710854181202,-15.848803986710948
0.01096381939599322,-16.848803986710948
0.011960530250174423,-20.848803986710948
0.012957241104355626,-22.848803986710948
0.013953951958536827,-22.848803986710948
0.014950662812718028,-18.848803986710948
0.01594737366689923,-8.848803986710948
0.016944084521080434,-1.8488039867109478
0.017940795375261637,5.151196013289052
0.018937506229442836,14.151196013289052
0.01993421708362404,21.151196013289052
0.02093092793780524,22.151196013289052
0.02192763879198644,23.151196013289052
0.022924349646167644,20.151196013289052
0.023921060500348847,15.151196013289052
0.02491777135453005,14.151196013289052
0.025914482208711252,5.151196013289052
0.02691119306289245,1.1511960132890522
0.027907903917073654,-2.848803986710948
0.028904614771254857,-11.848803986710948
0.029901325625436057,-15.848803986710948
0.03089803647961726,-13.848803986710948
0.03189474733379846,-19.848803986710948
0.032891458187979665,-16.848803986710948
0.03388816904216087,-17.848803986710948
0.03488487989634207,-12.848803986710948
0.03588159075052327,-5.848803986710948
0.03687830160470447,-1.8488039867109478
0.03787501245888567,1.1511960132890522
0.038871723313066875,8.151196013289052
0.03986843416724808,16.151196013289052
0.04086514502142928,17.151196013289052
0.04186185587561048,20.151196013289052
0.042858566729791686,18.151196013289052
0.04385527758397288,17.151196013289052
0.044851988438154085,15.151196013289052
0.04584869929233529,9.151196013289052
0.04684541014651649,4.151196013289052
0.04784212100069769,-1.8488039867109478
0.048838831854878896,-9.848803986710948
0.0498355427090601,-12.848803986710948
0.0508322535632413,-17.848803986710948
0.051828964417422504,-18.848803986710948
0.0528256752716037,-17.848803986710948
0.0538223861257849,-15.848803986710948
0.054819096979966106,-11.848803986710948
0.05581580783414731,-5.848803986710948
0.05681251868832851,2.151196013289052
0.057809229542509714,5.151196013289052
0.05880594039669092,19.151196013289052
0.05980265125087211,24.151196013289052
0.060799362105053316,27.151196013289052
0.06179607295923452,30.151196013289052
0.06279278381341573,27.151196013289052
0.06378949466759692,24.151196013289052
0.06478620552177812,20.151196013289052
0.06578291637595933,13.151196013289052
0.06677962723014053,8.151196013289052
0.06777633808432174,5.151196013289052
0.06877304893850293,-4.848803986710948
0.06976975979268414,-9.848803986710948
0.07076647064686534,-13.848803986710948
0.07176318150104655,-16.848803986710948
0.07275989235522774,-18.848803986710948
0.07375660320940894,-16.848803986710948
0.07475331406359015,-14.848803986710948
0.07575002491777134,-9.848803986710948
0.07674673577195255,-5.848803986710948
0.07774344662613375,0.1511960132890522
0.07874015748031496,5.151196013289052
0.07973686833449616,12.151196013289052
0.08073357918867735,17.151196013289052
0.08173029004285856,13.151196013289052
0.08272700089703976,13.151196013289052
0.08372371175122097,11.151196013289052
0.08472042260540216,9.151196013289052
0.08571713345958337,3.151196013289052
0.08671384431376457,-2.848803986710948
0.08771055516794576,-4.848803986710948
0.08870726602212697,-8.848803986710948
0.08970397687630817,-17.848803986710948
0.09070068773048938,-20.848803986710948
0.09169739858467058,-24.848803986710948
0.09269410943885178,-21.848803986710948
0.09369082029303298,-20.848803986710948
0.09468753114721419,-15.848803986710948
0.09568424200139539,-7.848803986710948
0.09668095285557658,-2.848803986710948
0.09767766370975779,3.151196013289052
0.09867437456393899,11.151196013289052
0.0996710854181202,16.151196013289052
0.1006677962723014,19.151196013289052
0.1016645071264826,19.151196013289052
0.1026612179806638,19.151196013289052
0.10365792883484501,16.151196013289052
0.1046546396890262,12.151196013289052
0.1056513505432074,7.151196013289052
0.10664806139738861,3.151196013289052
0.1076447722515698,-2.848803986710948
0.10864148310575102,-11.848803986710948
0.10963819395993221,-17.848803986710948
0.11063490481411342,-18.848803986710948
0.11163161566829462,-19.848803986710948
0.11262832652247581,-19.848803986710948
0.11362503737665702,-20.848803986710948
0.11462174823083822,-15.848803986710948
0.11561845908501943,-11.848803986710948
0.11661516993920062,-5.848803986710948
0.11761188079338183,4.151196013289052
0.11860859164756303,12.151196013289052
0.11960530250174423,20.151196013289052
0.12060201335592544,20.151196013289052
0.12159872421010663,21.151196013289052
0.12259543506428784,21.151196013289052
0.12359214591846904,14.151196013289052
0.12458885677265025,12.151196013289052
0.12558556762683146,6.151196013289052
0.12658227848101264,1.1511960132890522
0.12757898933519385,-3.848803986710948
0.12857570018937506,-10.848803986710948
0.12957241104355624,-14.848803986710948
0.13056912189773745,-15.848803986710948
0.13156583275191866,-20.848803986710948
0.13256254360609987,-20.848803986710948
0.13355925446028105,-20.848803986710948
0.13455596531446226,-14.848803986710948
0.13555267616864347,-10.848803986710948
0.13654938702282465,-3.848803986710948
0.13754609787700586,4.151196013289052
0.13854280873118707,8.151196013289052
0.13953951958536828,15.151196013289052
0.14053623043954946,19.151196013289052
0.14153294129373067,25.151196013289052
0.14252965214791188,19.151196013289052
0.1435263630020931,17.151196013289052
0.14452307385627428,12.151196013289052
0.14551978471045549,6.151196013289052
0.1465164955646367,1.1511960132890522
0.14751320641881788,-2.848803986710948
0.1485099172729991,-8.848803986710948
0.1495066281271803,-17.848803986710948
0.1505033389813615,-17.848803986710948
0.1515000498355427,-18.848803986710948
0.1524967606897239,-20.848803986710948
0.1534934715439051,-21.848803986710948
0.1544901823980863,-16.848803986710948
0.1554868932522675,-9.848803986710948
0.1564836041064487,-2.848803986710948
0.15748031496062992,4.151196013289052
0.1584770258148111,9.151196013289052
0.1594737366689923,13.151196013289052
0.16047044752317352,18.151196013289052
0.1614671583773547,20.151196013289052
0.1624638692315359,18.151196013289052
0.16346058008571712,14.151196013289052
0.16445729093989833,11.151196013289052
0.1654540017940795,4.151196013289052
0.16645071264826072,-1.8488039867109478
0.16744742350244193,-3.848803986710948
0.16844413435662312,-12.848803986710948
0.16944084521080433,-14.848803986710948
0.17043755606498553,-19.848803986710948
0.17143426691916674,-23.848803986710948
0.17243097777334793,-21.848803986710948
0.17342768862752914,-20.848803986710948
0.17442439948171035,-16.848803986710948
0.17542111033589153,-9.848803986710948
0.17641782119007274,-2.848803986710948
0.17741453204425395,6.151196013289052
0.17841124289843516,11.151196013289052
0.17940795375261634,19.151196013289052
0.18040466460679755,22.151196013289052
0.18140137546097876,21.151196013289052
0.18239808631515997,21.151196013289052
0.18339479716934115,14.151196013289052
0.18439150802352236,10.151196013289052
0.18538821887770357,4.151196013289052
0.18638492973188475,1.1511960132890522
0.18738164058606596,-0.8488039867109478
0.18837835144024717,-12.848803986710948
0.18937506229442838,-15.848803986710948
0.19037177314860956,-15.848803986710948
0.19136848400279077,-18.848803986710948
0.19236519485697198,-15.848803986710948
0.19336190571115316,-15.848803986710948
0.19435861656533437,-10.848803986710948
0.19535532741951558,-4.848803986710948
0.1963520382736968,1.1511960132890522
0.19734874912787798,8.151196013289052
0.19834545998205919,13.151196013289052
0.1993421708362404,20.151196013289052
0.20033888169042158,21.151196013289052
0.2013355925446028,22.151196013289052
0.202332303398784,17.151196013289052
0.2033290142529652,13.151196013289052
0.2043257251071464,12.151196013289052
0.2053224359613276,6.151196013289052
0.2063191468155088,0.1511960132890522
0.20731585766969002,-1.8488039867109478
0.2083125685238712,-8.848803986710948
0.2093092793780524,-11.848803986710948
0.21030599023223362,-12.848803986710948
0.2113027010864148,-18.848803986710948
0.212299411940596,-18.848803986710948
0.21329612279477722,-15.848803986710948
0.21429283364895843,-9.848803986710948
0.2152895445031396,-6.848803986710948
0.21628625535732082,0.1511960132890522
0.21728296621150203,4.151196013289052
0.21827967706568321,10.151196013289052
0.21927638791986442,15.151196013289052
0.22027309877404563,19.151196013289052
0.22126980962822684,19.151196013289052
0.22226652048240803,16.151196013289052
0.22326323133658924,11.151196013289052
0.22425994219077044,4.151196013289052
0.22525665304495163,0.1511960132890522
0.22625336389913284,-6.848803986710948
0.22725007475331405,-9.848803986710948
0.22824678560749526,-13.848803986710948
0.22924349646167644,-19.848803986710948
0.23024020731585765,-20.848803986710948
0.23123691817003886,-23.848803986710948
0.23223362902422004,-21.848803986710948
0.23323033987840125,-19.848803986710948
0.23422705073258246,-14.848803986710948
0.23522376158676367,-4.848803986710948
0.23622047244094485,1.1511960132890522
0.23721718329512606,8.151196013289052
0.23821389414930727,13.151196013289052
0.23921060500348845,21.151196013289052
0.24020731585766966,22.151196013289052
0.24120402671185087,24.151196013289052
0.24220073756603208,23.151196013289052
0.24319744842021326,17.151196013289052
0.24419415927439447,14.151196013289052
0.24519087012857568,7.151196013289052
0.2461875809827569,6.151196013289052
0.24718429183693807,-1.8488039867109478
0.24818100269111928,-4.848803986710948
0.2491777135453005,-11.848803986710948
0.2501744243994817,-16.848803986710948
0.2511711352536629,-19.848803986710948
0.2521678461078441,-21.848803986710948
0.2531645569620253,-20.848803986710948
0.2541612678162065,-15.848803986710948
0.2551579786703877,-8.848803986710948
0.2561546895245689,-5.848803986710948
0.2571514003787501,-0.8488039867109478
0.2581481112329313,7.151196013289052
0.2591448220871125,13.151196013289052
0.2601415329412937,16.151196013289052
0.2611382437954749,22.151196013289052
0.26213495464965614,20.151196013289052
0.2631316655038373,15.151196013289052
0.2641283763580185,12.151196013289052
0.26512508721219974,4.151196013289052
0.2661217980663809,0.1511960132890522
0.2671185089205621,-2.848803986710948
0.26811521977474334,-7.848803986710948
0.2691119306289245,-14.848803986710948
0.2701086414831057,-15.848803986710948
0.27110535233728694,-18.848803986710948
0.2721020631914681,-18.848803986710948
0.2730987740456493,-18.848803986710948
0.27409548489983054,-12.848803986710948
0.2750921957540117,-7.848803986710948
0.27608890660819296,1.1511960132890522
0.27708561746237415,7.151196013289052
0.2780823283165553,14.151196013289052
0.27907903917073656,17.151196013289052
0.28007575002491775,20.151196013289052
0.28107246087909893,20.151196013289052
0.28206917173328017,20.151196013289052
0.28306588258746135,16.151196013289052
0.28406259344164253,11.151196013289052
0.28505930429582377,5.151196013289052
0.28605601515000495,0.1511960132890522
0.2870527260041862,-6.848803986710948
0.28804943685836737,-13.848803986710948
0.28904614771254855,-15.848803986710948
0.2900428585667298,-17.848803986710948
0.29103956942091097,-20.848803986710948
0.29203628027509215,-19.848803986710948
0.2930329911292734,-22.848803986710948
0.29402970198345457,-16.848803986710948
0.29502641283763575,-9.848803986710948
0.296023123691817,-4.848803986710948
0.2970198345459982,2.151196013289052
0.29801654540017936,9.151196013289052
0.2990132562543606,17.151196013289052
0.3000099671085418,21.151196013289052
0.301006677962723,22.151196013289052
0.3020033888169042,19.151196013289052
0.3030000996710854,15.151196013289052
0.3039968105252666,13.151196013289052
0.3049935213794478,5.151196013289052
0.305990232233629,-0.8488039867109478
0.3069869430878102,-2.848803986710948
0.3079836539419914,-9.848803986710948
0.3089803647961726,-12.848803986710948
0.3099770756503538,-12.848803986710948
0.310973786504535,-16.848803986710948
0.3119704973587162,-17.848803986710948
0.3129672082128974,-18.848803986710948
0.3139639190670786,-12.848803986710948
0.31496062992125984,-4.848803986710948
0.315957340775441,0.1511960132890522
0.3169540516296222,5.151196013289052
0.31795076248380344,16.151196013289052
0.3189474733379846,23.151196013289052
0.3199441841921658,21.151196013289052
0.32094089504634704,22.151196013289052
0.3219376059005282,20.151196013289052
0.3229343167547094,14.151196013289052
0.32393102760889064,9.151196013289052
0.3249277384630718,3.151196013289052
0.32592444931725306,0.1511960132890522
0.32692116017143424,-5.848803986710948
0.3279178710256154,-13.848803986710948
0.32891458187979666,-14.848803986710948
0.32991129273397785,-17.848803986710948
0.330908003588159,-20.848803986710948
0.33190471444234027,-18.848803986710948
0.33290142529652145,-18.848803986710948
0.33389813615070263,-15.848803986710948
0.33489484700488387,-7.848803986710948
0.33589155785906505,1.1511960132890522
0.33688826871324623,8.151196013289052
0.33788497956742747,13.151196013289052
0.33888169042160865,19.151196013289052
0.3398784012757899,19.151196013289052
0.34087511212997107,23.151196013289052
0.34187182298415225,21.151196013289052
0.3428685338383335,17.151196013289052
0.34386524469251467,12.151196013289052
0.34486195554669585,6.151196013289052
0.3458586664008771,2.151196013289052
0.3468553772550583,0.1511960132890522
0.34785208810923945,-9.848803986710948
0.3488487989634207,-14.848803986710948
0.3498455098176019,-12.848803986710948
0.35084222067178306,-17.848803986710948
0.3518389315259643,-16.848803986710948
0.3528356423801455,-17.848803986710948
0.3538323532343267,-12.848803986710948
0.3548290640885079,-9.848803986710948
0.3558257749426891,-2.848803986710948
0.3568224857968703,5.151196013289052
0.3578191966510515,11.151196013289052
0.3588159075052327,16.151196013289052
0.3598126183594139,21.151196013289052
0.3608093292135951,23.151196013289052
0.3618060400677763,19.151196013289052
0.3628027509219575,14.151196013289052
0.3637994617761387,11.151196013289052
0.36479617263031994,3.151196013289052
0.3657928834845011,-1.8488039867109478
0.3667895943386823,-2.848803986710948
0.36778630519286354,-12.848803986710948
0.3687830160470447,-14.848803986710948
0.3697797269012259,-19.848803986710948
0.37077643775540714,-20.848803986710948
0.3717731486095883,-21.848803986710948
0.3727698594637695,-21.848803986710948
0.37376657031795074,-14.848803986710948
0.3747632811721319,-9.848803986710948
0.3757599920263131,-2.848803986710948
0.37675670288049434,5.151196013289052
0.3777534137346755,8.151196013289052
0.37875012458885676,17.151196013289052
0.37974683544303794,21.151196013289052
0.3807435462972191,20.151196013289052
0.38174025715140036,19.151196013289052
0.38273696800558155,14.151196013289052
0.38373367885976273,12.151196013289052
0.38473038971394397,4.151196013289052
0.38572710056812515,0.1511960132890522
0.38672381142230633,-4.848803986710948
0.38772052227648757,-12.848803986710948
0.38871723313066875,-15.848803986710948
0.38971394398485,-17.848803986710948
0.39071065483903117,-20.848803986710948
0.39170736569321235,-19.848803986710948
0.3927040765473936,-17.848803986710948
0.39370078740157477,-14.848803986710948
0.39469749825575595,-6.848803986710948
0.3956942091099372,-0.8488039867109478
0.39669091996411837,5.151196013289052
0.39768763081829955,12.151196013289052
0.3986843416724808,16.151196013289052
0.399681052526662,22.151196013289052
0.40067776338084315,22.151196013289052
0.4016744742350244,18.151196013289052
0.4026711850892056,12.151196013289052
0.4036678959433868,10.151196013289052
0.404664606797568,5.151196013289052
0.4056613176517492,0.1511960132890522
0.4066580285059304,-5.848803986710948
0.4076547393601116,-13.848803986710948
0.4086514502142928,-14.848803986710948
0.409648161068474,-17.848803986710948
0.4106448719226552,-21.848803986710948
0.4116415827768364,-19.848803986710948
0.4126382936310176,-18.848803986710948
0.4136350044851988,-12.848803986710948
0.41463171533938004,-8.848803986710948
0.4156284261935612,-0.8488039867109478
0.4166251370477424,5.151196013289052
0.41762184790192364,12.151196013289052
0.4186185587561048,19.151196013289052
0.419615269610286,19.151196013289052
0.42061198046446724,21.151196013289052
0.4216086913186484,20.151196013289052
0.4226054021728296,13.151196013289052
0.42360211302701084,9.151196013289052
0.424598823881192,2.151196013289052
0.4255955347353732,-2.848803986710948
0.42659224558955444,-2.848803986710948
0.4275889564437356,-12.848803986710948
0.42858566729791686,-14.848803986710948
0.42958237815209804,-16.848803986710948
0.4305790890062792,-21.848803986710948
0.43157579986046046,-23.848803986710948
0.43257251071464164,-22.848803986710948
0.4335692215688228,-16.848803986710948
0.43456593242300406,-9.848803986710948
0.43556264327718525,-1.8488039867109478
0.43655935413136643,7.151196013289052
0.43755606498554767,13.151196013289052
0.43855277583972885,19.151196013289052
0.43954948669391003,19.151196013289052
0.44054619754809127,20.151196013289052
0.44154290840227245,18.151196013289052
0.4425396192564537,13.151196013289052
0.44353633011063487,11.151196013289052
0.44453304096481605,5.151196013289052
0.4455297518189973,-1.8488039867109478
0.44652646267317847,-4.848803986710948
0.44752317352735965,-10.848803986710948
0.4485198843815409,-11.848803986710948
0.44951659523572207,-17.848803986710948
0.45051330608990325,-19.848803986710948
0.4515100169440845,-17.848803986710948
0.4525067277982657,-18.848803986710948
0.4535034386524469,-14.848803986710948
0.4545001495066281,-8.848803986710948
0.4554968603608093,-4.848803986710948
0.4564935712149905,0.1511960132890522
0.4574902820691717,10.151196013289052
0.4584869929233529,13.151196013289052
0.4594837037775341,19.151196013289052
0.4604804146317153,21.151196013289052
0.4614771254858965,21.151196013289052
0.4624738363400777,17.151196013289052
0.4634705471942589,11.151196013289052
0.4644672580484401,5.151196013289052
0.4654639689026213,3.151196013289052
0.4664606797568025,-3.848803986710948
0.46745739061098374,-8.848803986710948
0.4684541014651649,-14.848803986710948
0.4694508123193461,-15.848803986710948
0.47044752317352734,-20.848803986710948
0.4714442340277085,-21.848803986710948
0.4724409448818897,-20.848803986710948
0.47343765573607094,-12.848803986710948
0.4744343665902521,-6.848803986710948
0.4754310774444333,-0.8488039867109478
0.47642778829861454,3.151196013289052
0.4774244991527957,9.151196013289052
0.4784212100069769,19.151196013289052
0.47941792086115814,21.151196013289052
0.4804146317153393,18.151196013289052
0.48141134256952056,18.151196013289052
0.48240805342370174,14.151196013289052
0.4834047642778829,12.151196013289052
0.48440147513206416,7.151196013289052
0.48539818598624535,2.151196013289052
0.4863948968404265,-3.848803986710948
0.48739160769460776,-11.848803986710948
0.48838831854878895,-13.848803986710948
0.48938502940297013,-17.848803986710948
0.49038174025715137,-16.848803986710948
0.49137845111133255,-19.848803986710948
0.4923751619655138,-19.848803986710948
0.49337187281969497,-12.848803986710948
0.49436858367387615,-8.848803986710948
0.4953652945280574,-1.8488039867109478
0.49636200538223857,5.151196013289052
0.49735871623641975,12.151196013289052
0.498355427090601,19.151196013289052
0.49935213794478217,21.151196013289052
0.5003488487989634,22.151196013289052
0.5013455596531445,19.151196013289052
0.5023422705073258,15.151196013289052
0.503338981361507,13.151196013289052
0.5043356922156882,4.151196013289052
0.5053324030698694,1.1511960132890522
0.5063291139240506,-2.848803986710948
0.5073258247782317,-11.848803986710948
0.508322535632413,-16.848803986710948
0.5093192464865942,-19.848803986710948
0.5103159573407754,-21.848803986710948
0.5113126681949566,-21.848803986710948
0.5123093790491378,-21.848803986710948
0.513306089903319,-15.848803986710948
0.5143028007575002,-10.848803986710948
0.5152995116116814,-5.848803986710948
0.5162962224658626,2.151196013289052
0.5172929333200438,9.151196013289052
0.518289644174225,16.151196013289052
0.5192863550284063,21.151196013289052
0.5202830658825874,22.151196013289052
0.5212797767367686,20.151196013289052
0.5222764875909498,17.151196013289052
0.523273198445131,12.151196013289052
0.5242699092993123,7.151196013289052
0.5252666201534935,1.1511960132890522
0.5262633310076746,-2.848803986710948
0.5272600418618558,-11.848803986710948
0.528256752716037,-12.848803986710948
0.5292534635702182,-15.848803986710948
0.5302501744243995,-20.848803986710948
0.5312468852785807,-20.848803986710948
0.5322435961327618,-20.848803986710948
0.533240306986943,-14.848803986710948
0.5342370178411242,-5.848803986710948
0.5352337286953054,-0.8488039867109478
0.5362304395494867,7.151196013289052
0.5372271504036679,16.151196013289052
0.538223861257849,22.151196013289052
0.5392205721120302,24.151196013289052
0.5402172829662114,26.151196013289052
0.5412139938203927,24.151196013289052
0.5422107046745739,19.151196013289052
0.5432074155287551,17.151196013289052
0.5442041263829362,9.151196013289052
0.5452008372371174,2.151196013289052
0.5461975480912986,-4.848803986710948
0.5471942589454799,-12.848803986710948
0.5481909697996611,-15.848803986710948
0.5491876806538423,-18.848803986710948
0.5501843915080235,-23.848803986710948
0.5511811023622046,-21.848803986710948
0.5521778132163859,-20.848803986710948
0.5531745240705671,-16.848803986710948
0.5541712349247483,-9.848803986710948
0.5551679457789295,-2.848803986710948
0.5561646566331107,5.151196013289052
0.5571613674872918,12.151196013289052
0.5581580783414731,17.151196013289052
0.5591547891956543,20.151196013289052
0.5601515000498355,21.151196013289052
0.5611482109040167,18.151196013289052
0.5621449217581979,15.151196013289052
0.5631416326123792,11.151196013289052
0.5641383434665603,3.151196013289052
0.5651350543207415,2.151196013289052
0.5661317651749227,-1.8488039867109478
0.5671284760291039,-10.848803986710948
0.5681251868832851,-13.848803986710948
0.5691218977374664,-15.848803986710948
0.5701186085916475,-19.848803986710948
0.5711153194458287,-20.848803986710948
0.5721120303000099,-19.848803986710948
0.5731087411541911,-15.848803986710948
0.5741054520083724,-8.848803986710948
0.5751021628625536,-4.848803986710948
0.5760988737167347,4.151196013289052
0.5770955845709159,13.151196013289052
0.5780922954250971,18.151196013289052
0.5790890062792783,19.151196013289052
0.5800857171334596,18.151196013289052
0.5810824279876408,18.151196013289052
0.5820791388418219,15.151196013289052
0.5830758496960031,12.151196013289052
0.5840725605501843,6.151196013289052
0.5850692714043655,1.1511960132890522
0.5860659822585468,-0.8488039867109478
0.587062693112728,-7.848803986710948
0.5880594039669091,-9.848803986710948
0.5890561148210903,-13.848803986710948
0.5900528256752715,-15.848803986710948
0.5910495365294528,-17.848803986710948
0.592046247383634,-15.848803986710948
0.5930429582378152,-13.848803986710948
0.5940396690919963,-6.848803986710948
0.5950363799461775,1.1511960132890522
0.5960330908003587,7.151196013289052
0.59702980165454,16.151196013289052
0.5980265125087212,19.151196013289052
0.5990232233629024,22.151196013289052
0.6000199342170836,21.151196013289052
0.6010166450712647,18.151196013289052
0.602013355925446,16.151196013289052
0.6030100667796272,11.151196013289052
0.6040067776338084,5.151196013289052
0.6050034884879896,-1.8488039867109478
0.6060001993421708,-2.848803986710948
0.6069969101963519,-11.848803986710948
0.6079936210505332,-17.848803986710948
0.6089903319047144,-16.848803986710948
0.6099870427588956,-20.848803986710948
0.6109837536130768,-20.848803986710948
0.611980464467258,-19.848803986710948
0.6129771753214392,-14.848803986710948
0.6139738861756204,-10.848803986710948
0.6149705970298016,-2.848803986710948
0.6159673078839828,4.151196013289052
0.616964018738164,11.151196013289052
0.6179607295923452,18.151196013289052
0.6189574404465265,20.151196013289052
0.6199541513007076,19.151196013289052
0.6209508621548888,19.151196013289052
0.62194757300907,15.151196013289052
0.6229442838632512,11.151196013289052
0.6239409947174324,5.151196013289052
0.6249377055716137,1.1511960132890522
0.6259344164257948,-2.848803986710948
0.626931127279976,-10.848803986710948
0.6279278381341572,-13.848803986710948
0.6289245489883384,-17.848803986710948
0.6299212598425197,-18.848803986710948
0.6309179706967009,-20.848803986710948
0.631914681550882,-19.848803986710948
0.6329113924050632,-14.848803986710948
0.6339081032592444,-7.848803986710948
0.6349048141134256,-1.8488039867109478
0.6359015249676069,3.151196013289052
0.6368982358217881,13.151196013289052
0.6378949466759692,20.151196013289052
0.6388916575301504,22.151196013289052
0.6398883683843316,22.151196013289052
0.6408850792385129,19.151196013289052
0.6418817900926941,16.151196013289052
0.6428785009468753,12.151196013289052
0.6438752118010564,3.151196013289052
0.6448719226552376,0.1511960132890522
0.6458686335094188,-2.848803986710948
0.6468653443636001,-10.848803986710948
0.6478620552177813,-14.848803986710948
0.6488587660719625,-16.848803986710948
0.6498554769261436,-16.848803986710948
0.6508521877803248,-16.848803986710948
0.6518488986345061,-16.848803986710948
0.6528456094886873,-10.848803986710948
0.6538423203428685,-6.848803986710948
0.6548390311970497,0.1511960132890522
0.6558357420512309,7.151196013289052
0.656832452905412,13.151196013289052
0.6578291637595933,16.151196013289052
0.6588258746137745,18.151196013289052
0.6598225854679557,20.151196013289052
0.6608192963221369,18.151196013289052
0.661816007176318,14.151196013289052
0.6628127180304992,9.151196013289052
0.6638094288846805,4.151196013289052
0.6648061397388617,1.1511960132890522
0.6658028505930429,-3.848803986710948
0.6667995614472241,-10.848803986710948
0.6677962723014053,-12.848803986710948
0.6687929831555866,-12.848803986710948
0.6697896940097677,-16.848803986710948
0.6707864048639489,-17.848803986710948
0.6717831157181301,-19.848803986710948
0.6727798265723113,-14.848803986710948
0.6737765374264925,-6.848803986710948
0.6747732482806738,0.1511960132890522
0.6757699591348549,6.151196013289052
0.6767666699890361,12.151196013289052
0.6777633808432173,18.151196013289052
0.6787600916973985,20.151196013289052
0.6797568025515798,20.151196013289052
0.680753513405761,20.151196013289052
0.6817502242599421,17.151196013289052
0.6827469351141233,11.151196013289052
0.6837436459683045,5.151196013289052
0.6847403568224857,1.1511960132890522
0.685737067676667,-4.848803986710948
0.6867337785308482,-13.848803986710948
0.6877304893850293,-14.848803986710948
0.6887272002392105,-18.848803986710948
0.6897239110933917,-20.848803986710948
0.690720621947573,-18.848803986710948
0.6917173328017542,-19.848803986710948
0.6927140436559354,-15.848803986710948
0.6937107545101165,-6.848803986710948
0.6947074653642977,-2.848803986710948
0.6957041762184789,5.151196013289052
0.6967008870726602,13.151196013289052
0.6976975979268414,18.151196013289052
0.6986943087810226,22.151196013289052
0.6996910196352037,21.151196013289052
0.7006877304893849,20.151196013289052
0.7016844413435661,17.151196013289052
0.7026811521977474,11.151196013289052
0.7036778630519286,4.151196013289052
0.7046745739061098,0.1511960132890522
0.705671284760291,-2.848803986710948
0.7066679956144721,-11.848803986710948
0.7076647064686534,-14.848803986710948
0.7086614173228346,-18.848803986710948
0.7096581281770158,-21.848803986710948
0.710654839031197,-19.848803986710948
0.7116515498853782,-17.848803986710948
0.7126482607395593,-13.848803986710948
0.7136449715937406,-9.848803986710948
0.7146416824479218,-1.8488039867109478
0.715638393302103,5.151196013289052
0.7166351041562842,11.151196013289052
0.7176318150104654,18.151196013289052
0.7186285258646467,20.151196013289052
0.7196252367188278,19.151196013289052
0.720621947573009,16.151196013289052
0.7216186584271902,14.151196013289052
0.7226153692813714,10.151196013289052
0.7236120801355526,2.151196013289052
0.7246087909897339,0.1511960132890522
0.725605501843915,-6.848803986710948
0.7266022126980962,-11.848803986710948
0.7275989235522774,-15.848803986710948
0.7285956344064586,-14.848803986710948
0.7295923452606399,-19.848803986710948
0.7305890561148211,-19.848803986710948
0.7315857669690022,-19.848803986710948
0.7325824778231834,-12.848803986710948
0.7335791886773646,-7.848803986710948
0.7345758995315458,-2.848803986710948
0.7355726103857271,5.151196013289052
0.7365693212399083,12.151196013289052
0.7375660320940894,18.151196013289052
0.7385627429482706,20.151196013289052
0.7395594538024518,18.151196013289052
0.7405561646566331,19.151196013289052
0.7415528755108143,14.151196013289052
0.7425495863649955,9.151196013289052
0.7435462972191766,2.151196013289052
0.7445430080733578,-0.8488039867109478
0.745539718927539,-3.848803986710948
0.7465364297817203,-10.848803986710948
0.7475331406359015,-14.848803986710948
0.7485298514900827,-15.848803986710948
0.7495265623442638,-19.848803986710948
0.750523273198445,-18.848803986710948
0.7515199840526262,-18.848803986710948
0.7525166949068075,-12.848803986710948
0.7535134057609887,-8.848803986710948
0.7545101166151699,-2.848803986710948
0.755506827469351,4.151196013289052
0.7565035383235322,13.151196013289052
0.7575002491777135,17.151196013289052
0.7584969600318947,22.151196013289052
0.7594936708860759,22.151196013289052
0.7604903817402571,21.151196013289052
0.7614870925944383,14.151196013289052
0.7624838034486194,12.151196013289052
0.7634805143028007,7.151196013289052
0.7644772251569819,2.151196013289052
0.7654739360111631,-2.848803986710948
0.7664706468653443,-11.848803986710948
0.7674673577195255,-14.848803986710948
0.7684640685737067,-17.848803986710948
0.7694607794278879,-22.848803986710948
0.7704574902820691,-18.848803986710948
0.7714542011362503,-17.848803986710948
0.7724509119904315,-14.848803986710948
0.7734476228446127,-8.848803986710948
0.774444333698794,-2.848803986710948
0.7754410445529751,4.151196013289052
0.7764377554071563,10.151196013289052
0.7774344662613375,19.151196013289052
0.7784311771155187,20.151196013289052
0.7794278879697,22.151196013289052
0.7804245988238812,20.151196013289052
0.7814213096780623,18.151196013289052
0.7824180205322435,13.151196013289052
0.7834147313864247,5.151196013289052
0.7844114422406059,0.1511960132890522
0.7854081530947872,-2.848803986710948
0.7864048639489684,-12.848803986710948
0.7874015748031495,-13.848803986710948
0.7883982856573307,-17.848803986710948
0.7893949965115119,-21.848803986710948
0.7903917073656931,-20.848803986710948
0.7913884182198744,-18.848803986710948
0.7923851290740556,-14.848803986710948
0.7933818399282367,-8.848803986710948
0.7943785507824179,-4.848803986710948
0.7953752616365991,3.151196013289052
0.7963719724907804,11.151196013289052
0.7973686833449616,16.151196013289052
0.7983653941991428,20.151196013289052
0.799362105053324,21.151196013289052
0.8003588159075051,20.151196013289052
0.8013555267616863,16.151196013289052
0.8023522376158676,12.151196013289052
0.8033489484700488,5.151196013289052
0.80434565932423,0.1511960132890522
0.8053423701784111,-2.848803986710948
0.8063390810325923,-9.848803986710948
0.8073357918867736,-13.848803986710948
0.8083325027409548,-14.848803986710948
0.809329213595136,-21.848803986710948
0.8103259244493172,-20.848803986710948
0.8113226353034984,-20.848803986710948
0.8123193461576795,-12.848803986710948
0.8133160570118608,-6.848803986710948
0.814312767866042,-3.848803986710948
0.8153094787202232,3.151196013289052
0.8163061895744044,9.151196013289052
0.8173029004285856,17.151196013289052
0.8182996112827668,21.151196013289052
0.819296322136948,22.151196013289052
0.8202930329911292,18.151196013289052
0.8212897438453104,15.151196013289052
0.8222864546994916,13.151196013289052
0.8232831655536728,8.151196013289052
0.824279876407854,4.151196013289052
0.8252765872620352,-0.8488039867109478
0.8262732981162164,-10.848803986710948
0.8272700089703976,-14.848803986710948
0.8282667198245788,-19.848803986710948
0.8292634306787601,-20.848803986710948
0.8302601415329413,-22.848803986710948
0.8312568523871224,-22.848803986710948
0.8322535632413036,-15.848803986710948
0.8332502740954848,-11.848803986710948
0.834246984949666,-2.848803986710948
0.8352436958038473,8.151196013289052
0.8362404066580285,13.151196013289052
0.8372371175122096,19.151196013289052
0.8382338283663908,21.151196013289052
0.839230539220572,22.151196013289052
0.8402272500747532,21.151196013289052
0.8412239609289345,15.151196013289052
0.8422206717831157,10.151196013289052
0.8432173826372968,3.151196013289052
0.844214093491478,1.1511960132890522
0.8452108043456592,-7.848803986710948
0.8462075151998405,-10.848803986710948
0.8472042260540217,-16.848803986710948
0.8482009369082029,-17.848803986710948
0.849197647762384,-18.848803986710948
0.8501943586165652,-20.848803986710948
0.8511910694707464,-18.848803986710948
0.8521877803249277,-14.848803986710948
0.8531844911791089,-7.848803986710948
0.8541812020332901,-1.8488039867109478
0.8551779128874712,7.151196013289052
0.8561746237416524,12.151196013289052
0.8571713345958337,16.151196013289052
0.8581680454500149,20.151196013289052
0.8591647563041961,20.151196013289052
0.8601614671583773,19.151196013289052
0.8611581780125585,13.151196013289052
0.8621548888667396,12.151196013289052
0.8631515997209209,4.151196013289052
0.8641483105751021,2.151196013289052
0.8651450214292833,-3.848803986710948
0.8661417322834645,-10.848803986710948
0.8671384431376457,-16.848803986710948
0.868135153991827,-18.848803986710948
0.8691318648460081,-21.848803986710948
0.8701285757001893,-21.848803986710948
0.8711252865543705,-19.848803986710948
0.8721219974085517,-13.848803986710948
0.8731187082627329,-7.848803986710948
0.8741154191169141,-4.848803986710948
0.8751121299710953,5.151196013289052
0.8761088408252765,12.151196013289052
0.8771055516794577,19.151196013289052
0.8781022625336389,24.151196013289052
0.8790989733878201,26.151196013289052
0.8800956842420014,22.151196013289052
0.8810923950961825,16.151196013289052
0.8820891059503637,12.151196013289052
0.8830858168045449,8.151196013289052
0.8840825276587261,3.151196013289052
0.8850792385129074,-3.848803986710948
0.8860759493670886,-10.848803986710948
0.8870726602212697,-13.848803986710948
0.8880693710754509,-14.848803986710948
0.8890660819296321,-16.848803986710948
0.8900627927838133,-15.848803986710948
0.8910595036379946,-18.848803986710948
0.8920562144921758,-14.848803986710948
0.8930529253463569,-9.848803986710948
0.8940496362005381,-4.848803986710948
0.8950463470547193,4.151196013289052
0.8960430579089006,10.151196013289052
0.8970397687630818,15.151196013289052
0.898036479617263,17.151196013289052
0.8990331904714441,17.151196013289052
0.9000299013256253,15.151196013289052
0.9010266121798065,12.151196013289052
0.9020233230339878,7.151196013289052
0.903020033888169,1.1511960132890522
0.9040167447423502,-2.848803986710948
0.9050134555965313,-7.848803986710948
0.9060101664507125,-10.848803986710948
0.9070068773048938,-13.848803986710948
0.908003588159075,-17.848803986710948
0.9090002990132562,-19.848803986710948
0.9099970098674374,-20.848803986710948
0.9109937207216185,-21.848803986710948
0.9119904315757997,-17.848803986710948
0.912987142429981,-10.848803986710948
0.9139838532841622,-4.848803986710948
0.9149805641383434,4.151196013289052
0.9159772749925246,11.151196013289052
0.9169739858467058,19.151196013289052
0.9179706967008869,18.151196013289052
0.9189674075550682,21.151196013289052
0.9199641184092494,22.151196013289052
0.9209608292634306,17.151196013289052
0.9219575401176118,12.151196013289052
0.922954250971793,6.151196013289052
0.9239509618259742,2.151196013289052
0.9249476726801554,-2.848803986710948
0.9259443835343366,-11.848803986710948
0.9269410943885178,-14.848803986710948
0.927937805242699,-13.848803986710948
0.9289345160968802,-19.848803986710948
0.9299312269510615,-17.848803986710948
0.9309279378052426,-17.848803986710948
0.9319246486594238,-16.848803986710948
0.932921359513605,-7.848803986710948
0.9339180703677862,-1.8488039867109478
0.9349147812219675,5.151196013289052
0.9359114920761487,14.151196013289052
0.9369082029303298,21.151196013289052
0.937904913784511,20.151196013289052
0.9389016246386922,21.151196013289052
0.9398983354928734,19.151196013289052
0.9408950463470547,19.151196013289052
0.9418917572012359,13.151196013289052
0.942888468055417,5.151196013289052
0.9438851789095982,4.151196013289052
0.9448818897637794,-2.848803986710948
0.9458786006179607,-6.848803986710948
0.9468753114721419,-10.848803986710948
0.9478720223263231,-12.848803986710948
0.9488687331805042,-18.848803986710948
0.9498654440346854,-16.848803986710948
0.9508621548888666,-20.848803986710948
0.9518588657430479,-14.848803986710948
0.9528555765972291,-9.848803986710948
0.9538522874514103,-5.848803986710948
0.9548489983055914,4.151196013289052
0.9558457091597726,12.151196013289052
0.9568424200139538,18.151196013289052
0.9578391308681351,20.151196013289052
0.9588358417223163,19.151196013289052
0.9598325525764975,20.151196013289052
0.9608292634306786,18.151196013289052
0.9618259742848598,12.151196013289052
0.9628226851390411,3.151196013289052
0.9638193959932223,-1.8488039867109478
0.9648161068474035,-5.848803986710948
0.9658128177015847,-12.848803986710948
0.9668095285557659,-17.848803986710948
0.967806239409947,-20.848803986710948
0.9688029502641283,-19.848803986710948
0.9697996611183095,-18.848803986710948
0.9707963719724907,-20.848803986710948
0.9717930828266719,-16.848803986710948
0.972789793680853,-9.848803986710948
0.9737865045350343,-2.848803986710948
0.9747832153892155,4.151196013289052
0.9757799262433967,12.151196013289052
0.9767766370975779,18.151196013289052
0.9777733479517591,22.151196013289052
0.9787700588059403,22.151196013289052
0.9797667696601216,17.151196013289052
0.9807634805143027,16.151196013289052
0.9817601913684839,9.151196013289052
0.9827569022226651,2.151196013289052
0.9837536130768463,-0.8488039867109478
0.9847503239310276,-2.848803986710948
0.9857470347852088,-10.848803986710948
0.9867437456393899,-9.848803986710948
0.9877404564935711,-14.848803986710948
0.9887371673477523,-14.848803986710948
0.9897338782019335,-16.848803986710948
0.9907305890561148,-17.848803986710948
0.991727299910296,-7.848803986710948
0.9927240107644771,-5.848803986710948
0.9937207216186583,-0.8488039867109478
0.9947174324728395,6.151196013289052
0.9957141433270208,14.151196013289052
0.996710854181202,19.151196013289052
0.9977075650353832,22.151196013289052
0.9987042758895643,24.151196013289052
0.9997009867437455,18.151196013289052
1.0006976975979267,15.151196013289052
1.001694408452108,11.151196013289052
1.002691119306289,3.151196013289052
1.0036878301604704,-2.848803986710948
1.0046845410146517,-7.848803986710948
1.0056812518688327,-13.848803986710948
1.006677962723014,-15.848803986710948
1.007674673577195,-17.848803986710948
1.0086713844313764,-19.848803986710948
1.0096680952855577,-18.848803986710948
1.0106648061397387,-21.848803986710948
1.01166151699392,-14.848803986710948
1.0126582278481011,-7.848803986710948
1.0136549387022824,-1.8488039867109478
1.0146516495564635,7.151196013289052
1.0156483604106448,15.151196013289052
1.016645071264826,21.151196013289052
1.0176417821190071,23.151196013289052
1.0186384929731884,23.151196013289052
1.0196352038273695,20.151196013289052
1.0206319146815508,14.151196013289052
1.021628625535732,12.151196013289052
1.0226253363899132,4.151196013289052
1.0236220472440944,-1.8488039867109478
1.0246187580982755,-4.848803986710948
1.0256154689524568,-11.848803986710948
1.026612179806638,-15.848803986710948
1.0276088906608192,-18.848803986710948
1.0286056015150005,-21.848803986710948
1.0296023123691815,-22.848803986710948
1.0305990232233628,-19.848803986710948
1.031595734077544,-13.848803986710948
1.0325924449317252,-3.848803986710948
1.0335891557859065,2.151196013289052
1.0345858666400876,10.151196013289052
1.0355825774942689,19.151196013289052
1.03657928834845,18.151196013289052
1.0375759992026312,11.151196013289052
1.0385727100568125,16.151196013289052
1.0395694209109936,17.151196013289052
1.0405661317651749,14.151196013289052
1.041562842619356,9.151196013289052
1.0425595534735372,4.151196013289052
1.0435562643277185,-1.8488039867109478
1.0445529751818996,-11.848803986710948
1.045549686036081,-20.848803986710948
1.046546396890262,-17.848803986710948
1.0475431077444433,-10.848803986710948
1.0485398185986246,-9.848803986710948
1.0495365294528056,-10.848803986710948
1.050533240306987,-17.848803986710948
1.051529951161168,-7.848803986710948
1.0525266620153493,6.151196013289052
1.0535233728695304,11.151196013289052
1.0545200837237116,2.151196013289052
1.055516794577893,4.151196013289052
1.056513505432074,16.151196013289052
1.0575102162862553,16.151196013289052
1.0585069271404364,11.151196013289052
1.0595036379946177,8.151196013289052
1.060500348848799,11.151196013289052
1.06149705970298,11.151196013289052
1.0624937705571613,-3.848803986710948
1.0634904814113424,-15.848803986710948
1.0644871922655237,-22.848803986710948
1.065483903119705,-25.848803986710948
1.066480613973886,-1.8488039867109478
1.0674773248280673,11.151196013289052
1.0684740356822484,7.151196013289052
1.0694707465364297,8.151196013289052
1.0704674573906108,-1.8488039867109478
1.071464168244792,-15.848803986710948
1.0724608790989734,-8.848803986710948
1.0734575899531544,-4.848803986710948
1.0744543008073357,17.151196013289052
1.0754510116615168,20.151196013289052
1.076447722515698,4.151196013289052
1.0774444333698794,-3.848803986710948
1.0784411442240605,-8.848803986710948
1.0794378550782417,6.151196013289052
1.0804345659324228,18.151196013289052
1.0814312767866041,24.151196013289052
1.0824279876407854,27.151196013289052
1.0834246984949665,29.151196013289052
1.0844214093491478,24.151196013289052
1.0854181202033288,-0.8488039867109478
1.0864148310575101,-29.848803986710948
1.0874115419116914,-40.84880398671095
1.0884082527658725,-41.84880398671095
1.0894049636200538,-46.84880398671095
1.0904016744742349,-38.84880398671095
1.0913983853284162,-12.848803986710948
1.0923950961825972,9.151196013289052
1.0933918070367785,25.151196013289052
1.0943885178909598,60.15119601328905
1.0953852287451409,51.15119601328905
1.0963819395993222,58.15119601328905
1.0973786504535032,81.15119601328905
1.0983753613076845,51.15119601328905
1.0993720721618658,35.15119601328905
1.100368783016047,12.151196013289052
1.1013654938702282,-20.848803986710948
1.1023622047244093,-27.848803986710948
1.1033589155785906,-24.848803986710948
1.1043556264327719,-14.848803986710948
1.105352337286953,-20.848803986710948
1.1063490481411342,-38.84880398671095
1.1073457589953153,-33.84880398671095
1.1083424698494966,8.151196013289052
1.1093391807036777,14.151196013289052
1.110335891557859,8.151196013289052
1.1113326024120402,-17.848803986710948
1.1123293132662213,6.151196013289052
1.1133260241204026,39.15119601328905
1.1143227349745837,47.15119601328905
1.115319445828765,39.15119601328905
1.1163161566829463,11.151196013289052
1.1173128675371273,-7.848803986710948
1.1183095783913086,-2.848803986710948
1.1193062892454897,17.151196013289052
1.120303000099671,13.151196013289052
1.1212997109538523,-4.848803986710948
1.1222964218080334,-18.848803986710948
1.1232931326622146,-17.848803986710948
1.1242898435163957,-23.848803986710948
1.125286554370577,-57.84880398671095
1.1262832652247583,-69.84880398671095
1.1272799760789394,-69.84880398671095
1.1282766869331207,-59.84880398671095
1.1292733977873017,-43.84880398671095
1.130270108641483,-6.848803986710948
1.131266819495664,9.151196013289052
1.1322635303498454,-14.848803986710948
1.1332602412040267,24.151196013289052
1.1342569520582078,52.15119601328905
1.135253662912389,70.15119601328905
1.1362503737665701,46.15119601328905
1.1372470846207514,-10.848803986710948
1.1382437954749327,-10.848803986710948
1.1392405063291138,67.15119601328905
1.140237217183295,96.15119601328905
1.1412339280374761,53.15119601328905
1.1422306388916574,45.15119601328905
1.1432273497458387,75.15119601328905
1.1442240606000198,93.15119601328905
1.145220771454201,63.15119601328905
1.1462174823083822,17.151196013289052
1.1472141931625635,-38.84880398671095
1.1482109040167447,-55.84880398671095
1.1492076148709258,-68.84880398671095
1.1502043257251071,-96.84880398671095
1.1512010365792882,-111.84880398671095
1.1521977474334695,-106.84880398671095
1.1531944582876505,-109.84880398671095
1.1541911691418318,-86.84880398671095
1.1551878799960131,-78.84880398671095
1.1561845908501942,-71.84880398671095
1.1571813017043755,-23.848803986710948
1.1581780125585566,17.151196013289052
1.1591747234127379,30.151196013289052
1.1601714342669192,67.15119601328905
1.1611681451211002,67.15119601328905
1.1621648559752815,55.15119601328905
1.1631615668294626,68.15119601328905
1.1641582776836439,94.15119601328905
1.1651549885378252,72.15119601328905
1.1661516993920062,71.15119601328905
1.1671484102461875,35.15119601328905
1.1681451211003686,-3.848803986710948
1.16914183195455,-67.84880398671095
1.170138542808731,-79.84880398671095
1.1711352536629123,-44.84880398671095
1.1721319645170936,-32.84880398671095
1.1731286753712746,-54.84880398671095
1.174125386225456,-58.84880398671095
1.175122097079637,-113.84880398671095
1.1761188079338183,-107.84880398671095
1.1771155187879996,-68.84880398671095
1.1781122296421807,-65.84880398671095
1.179108940496362,22.151196013289052
1.180105651350543,112.15119601328905
1.1811023622047243,164.15119601328905
1.1820990730589056,200.15119601328905
1.1830957839130867,210.15119601328905
1.184092494767268,95.15119601328905
1.185089205621449,24.151196013289052
1.1860859164756303,-13.848803986710948
1.1870826273298116,-63.84880398671095
1.1880793381839927,-82.84880398671095
1.189076049038174,-46.84880398671095
1.190072759892355,-17.848803986710948
1.1910694707465364,-47.84880398671095
1.1920661816007174,-99.84880398671095
1.1930628924548987,-91.84880398671095
1.19405960330908,-45.84880398671095
1.195056314163261,-46.84880398671095
1.1960530250174424,-14.848803986710948
1.1970497358716234,-3.848803986710948
1.1980464467258047,10.151196013289052
1.199043157579986,41.15119601328905
1.200039868434167,84.15119601328905
1.2010365792883484,100.15119601328905
1.2020332901425295,127.15119601328905
1.2030300009967108,131.15119601328905
1.204026711850892,24.151196013289052
1.2050234227050731,-109.84880398671095
1.2060201335592544,-186.84880398671095
1.2070168444134355,-171.84880398671095
1.2080135552676168,-109.84880398671095
1.2090102661217978,8.151196013289052
1.2100069769759791,112.15119601328905
1.2110036878301604,125.15119601328905
1.2120003986843415,65.15119601328905
1.2129971095385228,3.151196013289052
1.2139938203927039,-66.84880398671095
1.2149905312468852,-61.84880398671095
1.2159872421010665,-54.84880398671095
1.2169839529552475,-6.848803986710948
1.2179806638094288,51.15119601328905
1.21897737466361,30.151196013289052
1.2199740855177912,49.15119601328905
1.2209707963719725,45.15119601328905
1.2219675072261535,37.15119601328905
1.2229642180803348,19.151196013289052
1.223960928934516,-30.848803986710948
1.2249576397886972,-53.84880398671095
1.2259543506428785,-58.84880398671095
1.2269510614970596,-83.84880398671095
1.2279477723512409,-57.84880398671095
1.228944483205422,-31.848803986710948
1.2299411940596032,-68.84880398671095
1.2309379049137843,-35.84880398671095
1.2319346157679656,28.151196013289052
1.2329313266221469,33.15119601328905
1.233928037476328,13.151196013289052
1.2349247483305092,29.151196013289052
1.2359214591846903,30.151196013289052
1.2369181700388716,32.15119601328905
1.237914880893053,17.151196013289052
1.238911591747234,28.151196013289052
1.2399083026014153,23.151196013289052
1.2409050134555963,30.151196013289052
1.2419017243097776,35.15119601328905
1.242898435163959,24.151196013289052
1.24389514601814,12.151196013289052
1.2448918568723213,-9.848803986710948
1.2458885677265024,-2.848803986710948
1.2468852785806837,-67.84880398671095
1.2478819894348647,-103.84880398671095
1.248878700289046,-57.84880398671095
1.2498754111432273,51.15119601328905
1.2508721219974084,56.15119601328905
1.2518688328515897,-3.848803986710948
1.2528655437057707,-42.84880398671095
1.253862254559952,-55.84880398671095
1.2548589654141333,-66.84880398671095
1.2558556762683144,-2.848803986710948
1.2568523871224957,86.15119601328905
1.2578490979766768,73.15119601328905
1.258845808830858,47.15119601328905
1.2598425196850394,63.15119601328905
1.2608392305392204,19.151196013289052
1.2618359413934017,-46.84880398671095
1.2628326522475828,-60.84880398671095
1.263829363101764,-17.848803986710948
1.2648260739559454,-14.848803986710948
1.2658227848101264,-57.84880398671095
1.2668194956643077,-83.84880398671095
1.2678162065184888,-105.84880398671095
1.26881291737267,-73.84880398671095
1.2698096282268512,-44.84880398671095
1.2708063390810325,12.151196013289052
1.2718030499352138,64.15119601328905
1.2727997607893948,-3.848803986710948
1.2737964716435761,-30.848803986710948
1.2747931824977572,-21.848803986710948
1.2757898933519385,-2.848803986710948
1.2767866042061198,61.15119601328905
1.2777833150603009,92.15119601328905
1.2787800259144821,22.151196013289052
1.2797767367686632,56.15119601328905
1.2807734476228445,61.15119601328905
1.2817701584770258,-42.84880398671095
1.2827668693312069,-68.84880398671095
1.2837635801853882,-80.84880398671095
1.2847602910395692,-82.84880398671095
1.2857570018937505,-61.84880398671095
1.2867537127479316,-98.84880398671095
1.287750423602113,-162.84880398671095
1.2887471344562942,-156.84880398671095
1.2897438453104753,-113.84880398671095
1.2907405561646565,43.15119601328905
1.2917372670188376,179.15119601328905
1.292733977873019,211.15119601328905
1.2937306887272002,142.15119601328905
1.2947273995813813,33.15119601328905
1.2957241104355626,-35.84880398671095
1.2967208212897436,-43.84880398671095
1.297717532143925,-2.848803986710948
1.2987142429981062,7.151196013289052
1.2997109538522873,2.151196013289052
1.3007076647064686,-9.848803986710948
1.3017043755606497,-43.84880398671095
1.302701086414831,-12.848803986710948
1.3036977972690122,49.15119601328905
1.3046945081231933,59.15119601328905
1.3056912189773746,47.15119601328905
1.3066879298315557,9.151196013289052
1.307684640685737,-39.84880398671095
1.308681351539918,-44.84880398671095
1.3096780623940993,-51.84880398671095
1.3106747732482806,-49.84880398671095
1.3116714841024617,17.151196013289052
1.312668194956643,24.151196013289052
1.313664905810824,-15.848803986710948
1.3146616166650054,5.151196013289052
1.3156583275191867,53.15119601328905
1.3166550383733677,98.15119601328905
1.317651749227549,73.15119601328905
1.31864846008173,-0.8488039867109478
1.3196451709359114,-55.84880398671095
1.3206418817900927,-152.84880398671095
1.3216385926442737,-177.84880398671095
1.322635303498455,-81.84880398671095
1.323632014352636,26.151196013289052
1.3246287252068174,43.15119601328905
1.3256254360609985,57.15119601328905
1.3266221469151798,86.15119601328905
1.327618857769361,96.15119601328905
1.3286155686235421,23.151196013289052
1.3296122794777234,-28.848803986710948
1.3306089903319045,-43.84880398671095
1.3316057011860858,-37.84880398671095
1.332602412040267,17.151196013289052
1.3335991228944482,47.15119601328905
1.3345958337486294,67.15119601328905
1.3355925446028105,147.15119601328905
1.3365892554569918,119.15119601328905
1.337585966311173,86.15119601328905
1.3385826771653542,66.15119601328905
1.3395793880195355,36.15119601328905
1.3405760988737165,-34.84880398671095
1.3415728097278978,-74.84880398671095
1.3425695205820791,-90.84880398671095
1.3435662314362602,-21.848803986710948
1.3445629422904415,82.15119601328905
1.3455596531446226,105.15119601328905
1.3465563639988039,37.15119601328905
1.347553074852985,-11.848803986710948
1.3485497857071662,-70.84880398671095
1.3495464965613475,-119.84880398671095
1.3505432074155286,-127.84880398671095
1.3515399182697099,-81.84880398671095
1.352536629123891,-90.84880398671095
1.3535333399780722,-55.84880398671095
1.3545300508322535,31.151196013289052
1.3555267616864346,77.15119601328905
1.356523472540616,123.15119601328905
1.357520183394797,75.15119601328905
1.3585168942489783,-29.848803986710948
1.3595136051031596,-23.848803986710948
1.3605103159573406,15.151196013289052
1.361507026811522,74.15119601328905
1.362503737665703,80.15119601328905
1.3635004485198843,18.151196013289052
1.3644971593740653,8.151196013289052
1.3654938702282466,16.151196013289052
1.366490581082428,-24.848803986710948
1.367487291936609,-83.84880398671095
1.3684840027907903,-107.84880398671095
1.3694807136449714,-78.84880398671095
1.3704774244991527,-35.84880398671095
1.371474135353334,0.1511960132890522
1.372470846207515,-14.848803986710948
1.3734675570616963,-63.84880398671095
1.3744642679158774,-21.848803986710948
1.3754609787700587,7.151196013289052
1.37645768962424,79.15119601328905
1.377454400478421,106.15119601328905
1.3784511113326023,58.15119601328905
1.3794478221867834,57.15119601328905
1.3804445330409647,78.15119601328905
1.381441243895146,24.151196013289052
1.382437954749327,-23.848803986710948
1.3834346656035084,-11.848803986710948
1.3844313764576894,5.151196013289052
1.3854280873118707,-39.84880398671095
1.3864247981660518,-102.84880398671095
1.387421509020233,-108.84880398671095
1.3884182198744144,-25.848803986710948
1.3894149307285955,39.15119601328905
1.3904116415827767,130.15119601328905
1.3914083524369578,131.15119601328905
1.3924050632911391,65.15119601328905
1.3934017741453204,7.151196013289052
1.3943984849995015,-65.84880398671095
1.3953951958536828,-79.84880398671095
1.3963919067078638,-47.84880398671095
1.3973886175620451,-20.848803986710948
1.3983853284162264,36.15119601328905
1.3993820392704075,56.15119601328905
1.4003787501245888,12.151196013289052
1.4013754609787699,-38.84880398671095
1.4023721718329512,-61.84880398671095
1.4033688826871322,-52.84880398671095
1.4043655935413135,-32.84880398671095
1.4053623043954948,-18.848803986710948
1.4063590152496759,-9.848803986710948
1.4073557261038572,6.151196013289052
1.4083524369580382,7.151196013289052
1.4093491478122195,-17.848803986710948
1.4103458586664008,1.1511960132890522
1.411342569520582,-10.848803986710948
1.4123392803747632,18.151196013289052
1.4133359912289443,62.15119601328905
1.4143327020831256,38.15119601328905
1.4153294129373069,4.151196013289052
1.416326123791488,8.151196013289052
1.4173228346456692,29.151196013289052
1.4183195454998503,31.151196013289052
1.4193162563540316,21.151196013289052
1.4203129672082129,40.15119601328905
1.421309678062394,5.151196013289052
1.4223063889165752,-58.84880398671095
1.4233030997707563,-66.84880398671095
1.4242998106249376,-68.84880398671095
1.4252965214791187,-56.84880398671095
1.4262932323333,-49.84880398671095
1.4272899431874813,-19.848803986710948
1.4282866540416623,-1.8488039867109478
1.4292833648958436,-38.84880398671095
1.4302800757500247,-56.84880398671095
1.431276786604206,-59.84880398671095
1.4322734974583873,-54.84880398671095
1.4332702083125684,-55.84880398671095
1.4342669191667496,-43.84880398671095
1.4352636300209307,-10.848803986710948
1.436260340875112,5.151196013289052
1.4372570517292933,25.151196013289052
1.4382537625834744,64.15119601328905
1.4392504734376557,23.151196013289052
1.4402471842918367,-18.848803986710948
1.441243895146018,-19.848803986710948
1.4422406060001993,-15.848803986710948
1.4432373168543804,-33.84880398671095
1.4442340277085617,-13.848803986710948
1.4452307385627428,9.151196013289052
1.446227449416924,22.151196013289052
1.4472241602711051,55.15119601328905
1.4482208711252864,63.15119601328905
1.4492175819794677,39.15119601328905
1.4502142928336488,21.151196013289052
1.45121100368783,22.151196013289052
1.4522077145420111,50.15119601328905
1.4532044253961924,43.15119601328905
1.4542011362503737,38.15119601328905
1.4551978471045548,33.15119601328905
1.456194557958736,43.15119601328905
1.4571912688129172,50.15119601328905
1.4581879796670985,43.15119601328905
1.4591846905212797,38.15119601328905
1.4601814013754608,31.151196013289052
1.4611781122296421,22.151196013289052
1.4621748230838232,19.151196013289052
1.4631715339380045,14.151196013289052
1.4641682447921855,3.151196013289052
1.4651649556463668,-1.8488039867109478
1.4661616665005481,-4.848803986710948
1.4671583773547292,-14.848803986710948
1.4681550882089105,-11.848803986710948
1.4691517990630916,-9.848803986710948
1.4701485099172729,-12.848803986710948
1.4711452207714542,-5.848803986710948
1.4721419316256352,1.1511960132890522
1.4731386424798165,17.151196013289052
1.4741353533339976,24.151196013289052
1.4751320641881789,25.151196013289052
1.4761287750423602,27.151196013289052
1.4771254858965412,21.151196013289052
1.4781221967507225,18.151196013289052
1.4791189076049036,12.151196013289052
1.480115618459085,5.151196013289052
1.4811123293132662,0.1511960132890522
1.4821090401674473,-2.848803986710948
1.4831057510216286,-12.848803986710948
1.4841024618758096,-22.848803986710948
1.485099172729991,-26.848803986710948
1.486095883584172,-31.848803986710948
1.4870925944383533,-40.84880398671095
1.4880893052925346,-46.84880398671095
1.4890860161467157,-39.84880398671095
1.490082727000897,-31.848803986710948
1.491079437855078,-19.848803986710948
1.4920761487092593,5.151196013289052
1.4930728595634406,20.151196013289052
1.4940695704176217,22.151196013289052
1.495066281271803,35.15119601328905
1.496062992125984,64.15119601328905
1.4970597029801653,58.15119601328905
1.4980564138343466,24.151196013289052
1.4990531246885277,16.151196013289052
1.500049835542709,19.151196013289052
1.50104654639689,4.151196013289052
1.5020432572510714,-7.848803986710948
1.5030399681052524,-13.848803986710948
1.5040366789594337,-11.848803986710948
1.505033389813615,-13.848803986710948
1.506030100667796,-21.848803986710948
1.5070268115219774,-25.848803986710948
1.5080235223761584,-25.848803986710948
1.5090202332303397,-26.848803986710948
1.510016944084521,-17.848803986710948
1.511013654938702,-14.848803986710948
1.5120103657928834,-10.848803986710948
1.5130070766470645,-8.848803986710948
1.5140037875012458,1.1511960132890522
1.515000498355427,18.151196013289052
1.5159972092096081,41.15119601328905
1.5169939200637894,75.15119601328905
1.5179906309179705,48.15119601328905
1.5189873417721518,11.151196013289052
1.519984052626333,12.151196013289052
1.5209807634805141,45.15119601328905
1.5219774743346954,32.15119601328905
1.5229741851888765,9.151196013289052
1.5239708960430578,9.151196013289052
1.5249676068972389,1.1511960132890522
1.5259643177514202,-25.848803986710948
1.5269610286056015,-33.84880398671095
1.5279577394597825,-30.848803986710948
1.5289544503139638,-39.84880398671095
1.529951161168145,-26.848803986710948
1.5309478720223262,-17.848803986710948
1.5319445828765075,-7.848803986710948
1.5329412937306885,1.1511960132890522
1.5339380045848698,17.151196013289052
1.534934715439051,29.151196013289052
1.5359314262932322,20.151196013289052
1.5369281371474135,18.151196013289052
1.5379248480015946,17.151196013289052
1.5389215588557759,12.151196013289052
1.539918269709957,12.151196013289052
1.5409149805641382,7.151196013289052
1.5419116914183193,1.1511960132890522
1.5429084022725006,-3.848803986710948
1.5439051131266819,-15.848803986710948
1.544901823980863,-30.848803986710948
1.5458985348350442,-26.848803986710948
1.5468952456892253,-26.848803986710948
1.5478919565434066,-22.848803986710948
1.548888667397588,5.151196013289052
1.549885378251769,17.151196013289052
1.5508820891059503,2.151196013289052
1.5518787999601313,14.151196013289052
1.5528755108143126,19.151196013289052
1.553872221668494,22.151196013289052
1.554868932522675,17.151196013289052
1.5558656433768563,14.151196013289052
1.5568623542310374,13.151196013289052
1.5578590650852187,11.151196013289052
1.5588557759394,5.151196013289052
1.559852486793581,2.151196013289052
1.5608491976477623,-1.8488039867109478
1.5618459085019434,0.1511960132890522
1.5628426193561247,1.1511960132890522
1.5638393302103057,-16.848803986710948
1.564836041064487,-20.848803986710948
1.5658327519186683,-16.848803986710948
1.5668294627728494,-16.848803986710948
1.5678261736270307,-12.848803986710948
1.5688228844812118,-24.848803986710948
1.569819595335393,-19.848803986710948
1.5708163061895744,-10.848803986710948
1.5718130170437554,-8.848803986710948
1.5728097278979367,24.151196013289052
1.5738064387521178,34.15119601328905
1.574803149606299,17.151196013289052
1.5757998604604804,4.151196013289052
1.5767965713146614,15.151196013289052
1.5777932821688427,30.151196013289052
1.5787899930230238,31.151196013289052
1.579786703877205,20.151196013289052
1.5807834147313862,4.151196013289052
1.5817801255855675,5.151196013289052
1.5827768364397488,5.151196013289052
1.5837735472939298,-10.848803986710948
1.5847702581481111,-14.848803986710948
1.5857669690022922,-16.848803986710948
1.5867636798564735,-22.848803986710948
1.5877603907106548,-25.848803986710948
1.5887571015648358,-23.848803986710948
1.5897538124190171,-15.848803986710948
1.5907505232731982,-10.848803986710948
1.5917472341273795,-1.8488039867109478
1.5927439449815608,8.151196013289052
1.5937406558357419,17.151196013289052
1.5947373666899232,24.151196013289052
1.5957340775441042,28.151196013289052
1.5967307883982855,24.151196013289052
1.5977274992524668,22.151196013289052
1.598724210106648,20.151196013289052
1.5997209209608292,12.151196013289052
1.6007176318150103,5.151196013289052
1.6017143426691915,-1.8488039867109478
1.6027110535233726,-3.848803986710948
1.603707764377554,-7.848803986710948
1.6047044752317352,-7.848803986710948
1.6057011860859163,-18.848803986710948
1.6066978969400976,-14.848803986710948
1.6076946077942786,-15.848803986710948
1.60869131864846,-12.848803986710948
1.6096880295026412,4.151196013289052
1.6106847403568223,14.151196013289052
1.6116814512110036,14.151196013289052
1.6126781620651847,17.151196013289052
1.613674872919366,24.151196013289052
1.6146715837735472,27.151196013289052
1.6156682946277283,27.151196013289052
1.6166650054819096,23.151196013289052
1.6176617163360907,22.151196013289052
1.618658427190272,17.151196013289052
1.619655138044453,24.151196013289052
1.6206518488986343,16.151196013289052
1.6216485597528156,1.1511960132890522
1.6226452706069967,-5.848803986710948
1.623641981461178,-16.848803986710948
1.624638692315359,-14.848803986710948
1.6256354031695404,5.151196013289052
1.6266321140237217,-0.8488039867109478
1.6276288248779027,-1.8488039867109478
1.628625535732084,-0.8488039867109478
1.629622246586265,-5.848803986710948
1.6306189574404464,-1.8488039867109478
1.6316156682946277,0.1511960132890522
1.6326123791488087,2.151196013289052
1.63360909000299,11.151196013289052
1.634605800857171,20.151196013289052
1.6356025117113524,19.151196013289052
1.6365992225655337,25.151196013289052
1.6375959334197148,26.151196013289052
1.638592644273896,37.15119601328905
1.6395893551280771,36.15119601328905
1.6405860659822584,15.151196013289052
1.6415827768364395,6.151196013289052
1.6425794876906208,11.151196013289052
1.643576198544802,-4.848803986710948
1.6445729093989832,-6.848803986710948
1.6455696202531644,-14.848803986710948
1.6465663311073455,-12.848803986710948
1.6475630419615268,-8.848803986710948
1.648559752815708,-26.848803986710948
1.6495564636698892,-30.848803986710948
1.6505531745240705,-26.848803986710948
1.6515498853782515,-16.848803986710948
1.6525465962324328,-5.848803986710948
1.6535433070866141,1.1511960132890522
1.6545400179407952,11.151196013289052
1.6555367287949765,14.151196013289052
1.6565334396491576,16.151196013289052
1.6575301505033389,17.151196013289052
1.6585268613575201,12.151196013289052
1.6595235722117012,0.1511960132890522
1.6605202830658825,-15.848803986710948
1.6615169939200636,-28.848803986710948
1.6625137047742449,-34.84880398671095
1.663510415628426,-15.848803986710948
1.6645071264826072,19.151196013289052
1.6655038373367885,23.151196013289052
1.6665005481909696,11.151196013289052
1.667497259045151,-8.848803986710948
1.668493969899332,-15.848803986710948
1.6694906807535133,-18.848803986710948
1.6704873916076945,-14.848803986710948
1.6714841024618756,-17.848803986710948
1.672480813316057,-11.848803986710948
1.673477524170238,-4.848803986710948
1.6744742350244193,6.151196013289052
1.6754709458786006,13.151196013289052
1.6764676567327816,12.151196013289052
1.677464367586963,14.151196013289052
1.678461078441144,7.151196013289052
1.6794577892953253,3.151196013289052
1.6804545001495064,-0.8488039867109478
1.6814512110036877,-6.848803986710948
1.682447921857869,-10.848803986710948
1.68344463271205,-13.848803986710948
1.6844413435662313,-11.848803986710948
1.6854380544204124,-20.848803986710948
1.6864347652745937,-26.848803986710948
1.687431476128775,-28.848803986710948
1.688428186982956,-24.848803986710948
1.6894248978371373,-6.848803986710948
1.6904216086913184,-5.848803986710948
1.6914183195454997,-2.848803986710948
1.692415030399681,4.151196013289052
1.693411741253862,12.151196013289052
1.6944084521080434,14.151196013289052
1.6954051629622244,12.151196013289052
1.6964018738164057,17.151196013289052
1.697398584670587,17.151196013289052
1.698395295524768,10.151196013289052
1.6993920063789494,6.151196013289052
1.7003887172331305,1.1511960132890522
1.7013854280873117,-2.848803986710948
1.7023821389414928,-8.848803986710948
1.703378849795674,-17.848803986710948
1.7043755606498554,-20.848803986710948
1.7053722715040365,-23.848803986710948
1.7063689823582178,-26.848803986710948
1.7073656932123988,-25.848803986710948
1.7083624040665801,-25.848803986710948
1.7093591149207614,-18.848803986710948
1.7103558257749425,-10.848803986710948
1.7113525366291238,-7.848803986710948
1.7123492474833049,-0.8488039867109478
1.7133459583374862,7.151196013289052
1.7143426691916674,12.151196013289052
1.7153393800458485,21.151196013289052
1.7163360909000298,25.151196013289052
1.7173328017542109,19.151196013289052
1.7183295126083922,12.151196013289052
1.7193262234625732,8.151196013289052
1.7203229343167545,2.151196013289052
1.7213196451709358,-5.848803986710948
1.722316356025117,-10.848803986710948
1.7233130668792982,-17.848803986710948
1.7243097777334793,-21.848803986710948
1.7253064885876606,-19.848803986710948
1.7263031994418419,-20.848803986710948
1.727299910296023,-20.848803986710948
1.7282966211502042,-24.848803986710948
1.7292933320043853,-21.848803986710948
1.7302900428585666,-17.848803986710948
1.7312867537127479,-14.848803986710948
1.732283464566929,-16.848803986710948
1.7332801754211102,-19.848803986710948
1.7342768862752913,0.1511960132890522
1.7352735971294726,47.15119601328905
1.736270307983654,81.15119601328905
1.737267018837835,62.15119601328905
1.7382637296920163,35.15119601328905
1.7392604405461973,14.151196013289052
1.7402571514003786,11.151196013289052
1.7412538622545597,14.151196013289052
1.742250573108741,5.151196013289052
1.7432472839629223,-11.848803986710948
1.7442439948171033,-12.848803986710948
1.7452407056712846,-21.848803986710948
1.7462374165254657,-35.84880398671095
1.747234127379647,-35.84880398671095
1.7482308382338283,-31.848803986710948
1.7492275490880094,-26.848803986710948
1.7502242599421907,-17.848803986710948
1.7512209707963717,-8.848803986710948
1.752217681650553,2.151196013289052
1.7532143925047343,9.151196013289052
1.7542111033589154,19.151196013289052
1.7552078142130967,19.151196013289052
1.7562045250672778,19.151196013289052
1.757201235921459,17.151196013289052
1.7581979467756401,11.151196013289052
1.7591946576298214,8.151196013289052
1.7601913684840027,4.151196013289052
1.7611880793381838,1.1511960132890522
1.762184790192365,-0.8488039867109478
1.7631815010465461,-14.848803986710948
1.7641782119007274,-16.848803986710948
1.7651749227549087,-17.848803986710948
1.7661716336090898,-18.848803986710948
1.767168344463271,-20.848803986710948
1.7681650553174522,-21.848803986710948
1.7691617661716335,-15.848803986710948
1.7701584770258147,-9.848803986710948
1.7711551878799958,-3.848803986710948
1.7721518987341771,3.151196013289052
1.7731486095883582,9.151196013289052
1.7741453204425395,17.151196013289052
1.7751420312967208,21.151196013289052
1.7761387421509018,20.151196013289052
1.7771354530050831,19.151196013289052
1.7781321638592642,16.151196013289052
1.7791288747134455,10.151196013289052
1.7801255855676266,4.151196013289052
1.7811222964218079,0.1511960132890522
1.7821190072759892,-7.848803986710948
1.7831157181301702,-10.848803986710948
1.7841124289843515,-15.848803986710948
1.7851091398385326,-20.848803986710948
1.7861058506927139,-22.848803986710948
1.7871025615468952,-21.848803986710948
1.7880992724010762,-26.848803986710948
1.7890959832552575,-23.848803986710948
1.7900926941094386,-9.848803986710948
1.79108940496362,10.151196013289052
1.7920861158178012,24.151196013289052
1.7930828266719823,33.15119601328905
1.7940795375261636,23.151196013289052
1.7950762483803446,19.151196013289052
1.796072959234526,19.151196013289052
1.797069670088707,15.151196013289052
1.7980663809428883,11.151196013289052
1.7990630917970696,4.151196013289052
1.8000598026512507,-2.848803986710948
1.801056513505432,-6.848803986710948
1.802053224359613,-10.848803986710948
1.8030499352137943,-19.848803986710948
1.8040466460679756,-19.848803986710948
1.8050433569221567,-21.848803986710948
1.806040067776338,-24.848803986710948
1.807036778630519,-21.848803986710948
1.8080334894847003,-23.848803986710948
1.8090302003388816,-17.848803986710948
1.8100269111930627,-10.848803986710948
1.811023622047244,-1.8488039867109478
1.812020332901425,7.151196013289052
1.8130170437556064,15.151196013289052
1.8140137546097876,22.151196013289052
1.8150104654639687,20.151196013289052
1.81600717631815,24.151196013289052
1.817003887172331,19.151196013289052
1.8180005980265124,18.151196013289052
1.8189973088806934,16.151196013289052
1.8199940197348747,8.151196013289052
1.820990730589056,2.151196013289052
1.821987441443237,-2.848803986710948
1.8229841522974184,-10.848803986710948
1.8239808631515995,-16.848803986710948
1.8249775740057808,-19.848803986710948
1.825974284859962,-20.848803986710948
1.8269709957141431,-22.848803986710948
1.8279677065683244,-22.848803986710948
1.8289644174225055,-14.848803986710948
1.8299611282766868,-7.848803986710948
1.830957839130868,-2.848803986710948
1.8319545499850491,4.151196013289052
1.8329512608392304,11.151196013289052
1.8339479716934115,20.151196013289052
1.8349446825475928,19.151196013289052
1.8359413934017739,22.151196013289052
1.8369381042559552,20.151196013289052
1.8379348151101365,14.151196013289052
1.8389315259643175,13.151196013289052
1.8399282368184988,6.151196013289052
1.84092494767268,0.1511960132890522
1.8419216585268612,-2.848803986710948
1.8429183693810425,-12.848803986710948
1.8439150802352235,-16.848803986710948
1.8449117910894048,-19.848803986710948
1.845908501943586,-22.848803986710948
1.8469052127977672,-20.848803986710948
1.8479019236519485,-22.848803986710948
1.8488986345061296,-14.848803986710948
1.8498953453603109,-8.848803986710948
1.850892056214492,-2.848803986710948
1.8518887670686732,5.151196013289052
1.8528854779228545,11.151196013289052
1.8538821887770356,17.151196013289052
1.8548788996312169,19.151196013289052
1.855875610485398,20.151196013289052
1.8568723213395792,19.151196013289052
1.8578690321937603,13.151196013289052
1.8588657430479416,8.151196013289052
1.859862453902123,1.1511960132890522
1.860859164756304,-2.848803986710948
1.8618558756104853,-6.848803986710948
1.8628525864646663,-11.848803986710948
1.8638492973188476,-14.848803986710948
1.864846008173029,-17.848803986710948
1.86584271902721,-19.848803986710948
1.8668394298813913,-21.848803986710948
1.8678361407355724,-22.848803986710948
1.8688328515897537,-17.848803986710948
1.869829562443935,-10.848803986710948
1.870826273298116,-4.848803986710948
1.8718229841522973,0.1511960132890522
1.8728196950064784,8.151196013289052
1.8738164058606597,15.151196013289052
1.8748131167148407,16.151196013289052
1.875809827569022,17.151196013289052
1.8768065384232033,16.151196013289052
1.8778032492773844,11.151196013289052
1.8787999601315657,8.151196013289052
1.8797966709857468,2.151196013289052
1.880793381839928,0.1511960132890522
1.8817900926941094,-2.848803986710948
1.8827868035482904,-10.848803986710948
1.8837835144024717,-13.848803986710948
1.8847802252566528,-15.848803986710948
1.885776936110834,-19.848803986710948
1.8867736469650154,-18.848803986710948
1.8877703578191964,-19.848803986710948
1.8887670686733777,-12.848803986710948
1.8897637795275588,-5.848803986710948
1.89076049038174,-1.8488039867109478
1.8917572012359214,7.151196013289052
1.8927539120901025,12.151196013289052
1.8937506229442838,18.151196013289052
1.8947473337984648,20.151196013289052
1.8957440446526461,22.151196013289052
1.8967407555068272,22.151196013289052
1.8977374663610085,16.151196013289052
1.8987341772151898,12.151196013289052
1.8997308880693708,6.151196013289052
1.9007275989235521,3.151196013289052
1.9017243097777332,0.1511960132890522
1.9027210206319145,-5.848803986710948
1.9037177314860958,-8.848803986710948
1.9047144423402769,-11.848803986710948
1.9057111531944582,-15.848803986710948
1.9067078640486392,-15.848803986710948
1.9077045749028205,-17.848803986710948
1.9087012857570018,-14.848803986710948
1.909697996611183,-10.848803986710948
1.9106947074653642,-4.848803986710948
1.9116914183195453,4.151196013289052
1.9126881291737265,7.151196013289052
1.9136848400279076,14.151196013289052
1.914681550882089,18.151196013289052
1.9156782617362702,17.151196013289052
1.9166749725904513,15.151196013289052
1.9176716834446326,14.151196013289052
1.9186683942988136,10.151196013289052
1.919665105152995,7.151196013289052
1.9206618160071762,5.151196013289052
1.9216585268613573,1.1511960132890522
1.9226552377155386,-4.848803986710948
1.9236519485697197,-9.848803986710948
1.924648659423901,-8.848803986710948
1.9256453702780822,-11.848803986710948
1.9266420811322633,-11.848803986710948
1.9276387919864446,-9.848803986710948
1.9286355028406257,-3.848803986710948
1.929632213694807,1.1511960132890522
1.9306289245489883,8.151196013289052
1.9316256354031693,12.151196013289052
1.9326223462573506,17.151196013289052
1.9336190571115317,22.151196013289052
1.934615767965713,22.151196013289052
1.935612478819894,21.151196013289052
1.9366091896740754,17.151196013289052
1.9376059005282567,15.151196013289052
1.9386026113824377,11.151196013289052
1.939599322236619,3.151196013289052
1.9405960330908,1.1511960132890522
1.9415927439449814,-2.848803986710948
1.9425894547991627,-10.848803986710948
1.9435861656533437,-12.848803986710948
1.944582876507525,-15.848803986710948
1.945579587361706,-19.848803986710948
1.9465762982158874,-17.848803986710948
1.9475730090700687,-17.848803986710948
1.9485697199242498,-10.848803986710948
1.949566430778431,-7.848803986710948
1.9505631416326121,-1.8488039867109478
1.9515598524867934,6.151196013289052
1.9525565633409747,10.151196013289052
1.9535532741951558,14.151196013289052
1.954549985049337,16.151196013289052
1.9555466959035182,17.151196013289052
1.9565434067576994,16.151196013289052
1.9575401176118805,9.151196013289052
1.9585368284660618,7.151196013289052
1.959533539320243,1.1511960132890522
1.9605302501744242,-4.848803986710948
1.9615269610286055,-11.848803986710948
1.9625236718827865,-17.848803986710948
1.9635203827369678,-22.848803986710948
1.9645170935911491,-23.848803986710948
1.9655138044453302,-25.848803986710948
1.9665105152995115,-21.848803986710948
1.9675072261536926,-23.848803986710948
1.9685039370078738,-19.848803986710948
1.9695006478620551,-9.848803986710948
1.9704973587162362,-4.848803986710948
1.9714940695704175,7.151196013289052
1.9724907804245986,12.151196013289052
1.9734874912787799,18.151196013289052
1.974484202132961,21.151196013289052
1.9754809129871422,20.151196013289052
1.9764776238413235,19.151196013289052
1.9774743346955046,17.151196013289052
1.978471045549686,12.151196013289052
1.979467756403867,6.151196013289052
1.9804644672580483,3.151196013289052
1.9814611781122295,-2.848803986710948
1.9824578889664106,-11.848803986710948
1.983454599820592,-10.848803986710948
1.984451310674773,-11.848803986710948
1.9854480215289543,-15.848803986710948
1.9864447323831356,-14.848803986710948
1.9874414432373166,-14.848803986710948
1.988438154091498,-9.848803986710948
1.989434864945679,-6.848803986710948
1.9904315757998603,0.1511960132890522
1.9914282866540416,8.151196013289052
1.9924249975082227,17.151196013289052
1.993421708362404,21.151196013289052
1.994418419216585,29.151196013289052
1.9954151300707663,26.151196013289052
1.9964118409249474,26.151196013289052
1.9974085517791287,20.151196013289052
1.99840526263331,19.151196013289052
1.999401973487491,10.151196013289052
2.0003986843416723,5.151196013289052
2.0013953951958534,-1.8488039867109478
2.0023921060500345,-11.848803986710948
2.003388816904216,-13.848803986710948
2.004385527758397,-15.848803986710948
2.005382238612578,-17.848803986710948
2.0063789494667597,-16.848803986710948
2.0073756603209407,-17.848803986710948
2.008372371175122,-10.848803986710948
2.0093690820293033,-4.848803986710948
2.0103657928834844,-0.8488039867109478
2.0113625037376655,10.151196013289052
2.0123592145918465,14.151196013289052
2.013355925446028,20.151196013289052
2.014352636300209,21.151196013289052
2.01534934715439,20.151196013289052
2.0163460580085717,15.151196013289052
2.0173427688627528,14.151196013289052
2.018339479716934,8.151196013289052
2.0193361905711154,4.151196013289052
2.0203329014252964,-0.8488039867109478
2.0213296122794775,-8.848803986710948
2.0223263231336586,-13.848803986710948
2.02332303398784,-15.848803986710948
2.024319744842021,-22.848803986710948
2.0253164556962022,-22.848803986710948
2.0263131665503837,-22.848803986710948
2.027309877404565,-20.848803986710948
2.028306588258746,-16.848803986710948
2.029303299112927,-5.848803986710948
2.0303000099671085,1.1511960132890522
2.0312967208212895,10.151196013289052
2.0322934316754706,16.151196013289052
2.033290142529652,20.151196013289052
2.034286853383833,22.151196013289052
2.0352835642380143,24.151196013289052
2.036280275092196,21.151196013289052
2.037276985946377,16.151196013289052
2.038273696800558,13.151196013289052
2.039270407654739,5.151196013289052
2.0402671185089205,-4.848803986710948
2.0412638293631016,-9.848803986710948
2.0422605402172826,-12.848803986710948
2.043257251071464,-13.848803986710948
2.0442539619256452,-15.848803986710948
2.0452506727798263,-19.848803986710948
2.0462473836340074,-19.848803986710948
2.047244094488189,-16.848803986710948
2.04824080534237,-11.848803986710948
2.049237516196551,-6.848803986710948
2.0502342270507325,1.1511960132890522
2.0512309379049136,9.151196013289052
2.0522276487590947,12.151196013289052
2.053224359613276,17.151196013289052
2.0542210704674573,21.151196013289052
2.0552177813216383,21.151196013289052
2.0562144921758194,19.151196013289052
2.057211203030001,16.151196013289052
2.058207913884182,16.151196013289052
2.059204624738363,10.151196013289052
2.0602013355925446,5.151196013289052
2.0611980464467257,0.1511960132890522
2.0621947573009067,-7.848803986710948
2.063191468155088,-10.848803986710948
2.0641881790092693,-13.848803986710948
2.0651848898634504,-19.848803986710948
2.0661816007176315,-19.848803986710948
2.067178311571813,-19.848803986710948
2.068175022425994,-14.848803986710948
2.069171733280175,-7.848803986710948
2.0701684441343566,-2.848803986710948
2.0711651549885377,7.151196013289052
2.0721618658427188,12.151196013289052
2.0731585766969,20.151196013289052
2.0741552875510814,23.151196013289052
2.0751519984052624,21.151196013289052
2.0761487092594435,22.151196013289052
2.077145420113625,17.151196013289052
2.078142130967806,12.151196013289052
2.079138841821987,5.151196013289052
2.0801355526761687,2.151196013289052
2.0811322635303497,-4.848803986710948
2.082128974384531,-13.848803986710948
2.083125685238712,-15.848803986710948
2.0841223960928934,-21.848803986710948
2.0851191069470745,-23.848803986710948
2.0861158178012555,-24.848803986710948
2.087112528655437,-19.848803986710948
2.088109239509618,-15.848803986710948
2.089105950363799,-9.848803986710948
2.0901026612179803,-6.848803986710948
2.091099372072162,2.151196013289052
2.092096082926343,9.151196013289052
2.093092793780524,17.151196013289052
2.0940895046347054,20.151196013289052
2.0950862154888865,21.151196013289052
2.0960829263430676,19.151196013289052
2.097079637197249,14.151196013289052
2.09807634805143,9.151196013289052
2.0990730589056112,2.151196013289052
2.1000697697597923,-4.848803986710948
2.101066480613974,-7.848803986710948
2.102063191468155,-14.848803986710948
2.103059902322336,-18.848803986710948
2.1040566131765175,-19.848803986710948
2.1050533240306986,-23.848803986710948
2.1060500348848796,-19.848803986710948
2.1070467457390607,-22.848803986710948
2.108043456593242,-16.848803986710948
2.1090401674474233,-10.848803986710948
2.1100368783016044,-0.8488039867109478
2.111033589155786,7.151196013289052
2.112030300009967,13.151196013289052
2.113027010864148,18.151196013289052
2.1140237217183295,22.151196013289052
2.1150204325725106,23.151196013289052
2.1160171434266917,20.151196013289052
2.1170138542808727,14.151196013289052
2.1180105651350543,11.151196013289052
2.1190072759892353,3.151196013289052
2.1200039868434164,-0.8488039867109478
2.121000697697598,-5.848803986710948
2.121997408551779,-13.848803986710948
2.12299411940596,-15.848803986710948
2.123990830260141,-19.848803986710948
2.1249875411143226,-23.848803986710948
2.1259842519685037,-20.848803986710948
2.126980962822685,-18.848803986710948
2.1279776736768663,-13.848803986710948
2.1289743845310474,-7.848803986710948
2.1299710953852284,-1.8488039867109478
2.13096780623941,7.151196013289052
2.131964517093591,13.151196013289052
2.132961227947772,20.151196013289052
2.133957938801953,18.151196013289052
2.1349546496561347,20.151196013289052
2.1359513605103158,17.151196013289052
2.136948071364497,16.151196013289052
2.1379447822186783,9.151196013289052
2.1389414930728594,2.151196013289052
2.1399382039270405,-2.848803986710948
2.1409349147812216,-6.848803986710948
2.141931625635403,-11.848803986710948
2.142928336489584,-17.848803986710948
2.143925047343765,-19.848803986710948
2.1449217581979467,-19.848803986710948
2.145918469052128,-18.848803986710948
2.146915179906309,-18.848803986710948
2.1479118907604904,-14.848803986710948
2.1489086016146715,-9.848803986710948
2.1499053124688525,-2.848803986710948
2.1509020233230336,5.151196013289052
2.151898734177215,12.151196013289052
2.152895445031396,19.151196013289052
2.1538921558855773,22.151196013289052
2.1548888667397588,21.151196013289052
2.15588557759394,17.151196013289052
2.156882288448121,14.151196013289052
2.1578789993023024,8.151196013289052
2.1588757101564835,2.151196013289052
2.1598724210106646,-2.848803986710948
2.1608691318648456,-8.848803986710948
2.161865842719027,-15.848803986710948
2.1628625535732082,-18.848803986710948
2.1638592644273893,-18.848803986710948
2.164855975281571,-21.848803986710948
2.165852686135752,-19.848803986710948
2.166849396989933,-16.848803986710948
2.167846107844114,-10.848803986710948
2.1688428186982955,-4.848803986710948
2.1698395295524766,-0.8488039867109478
2.1708362404066577,7.151196013289052
2.171832951260839,14.151196013289052
2.1728296621150203,19.151196013289052
2.1738263729692013,20.151196013289052
2.174823083823383,23.151196013289052
2.175819794677564,23.151196013289052
2.176816505531745,17.151196013289052
2.177813216385926,12.151196013289052
2.1788099272401076,5.151196013289052
2.1798066380942887,1.1511960132890522
2.1808033489484697,0.1511960132890522
2.1818000598026512,-9.848803986710948
2.1827967706568323,-11.848803986710948
2.1837934815110134,-14.848803986710948
2.1847901923651945,-18.848803986710948
2.185786903219376,-17.848803986710948
2.186783614073557,-15.848803986710948
2.187780324927738,-9.848803986710948
2.1887770357819196,-3.848803986710948
2.1897737466361007,0.1511960132890522
2.1907704574902818,8.151196013289052
2.1917671683444633,16.151196013289052
2.1927638791986444,22.151196013289052
2.1937605900528254,26.151196013289052
2.1947573009070065,25.151196013289052
2.195754011761188,21.151196013289052
2.196750722615369,16.151196013289052
2.19774743346955,11.151196013289052
2.1987441443237317,4.151196013289052
2.1997408551779127,-1.8488039867109478
2.200737566032094,-7.848803986710948
2.201734276886275,-12.848803986710948
2.2027309877404564,-19.848803986710948
2.2037276985946375,-21.848803986710948
2.2047244094488185,-24.848803986710948
2.205721120303,-23.848803986710948
2.206717831157181,-23.848803986710948
2.207714542011362,-18.848803986710948
2.2087112528655437,-10.848803986710948
2.2097079637197248,-2.848803986710948
2.210704674573906,4.151196013289052
2.211701385428087,14.151196013289052
2.2126980962822684,21.151196013289052
2.2136948071364495,24.151196013289052
2.2146915179906306,24.151196013289052
2.215688228844812,22.151196013289052
2.216684939698993,20.151196013289052
2.2176816505531742,14.151196013289052
2.2186783614073553,5.151196013289052
2.219675072261537,-2.848803986710948
2.220671783115718,-4.848803986710948
2.221668493969899,-12.848803986710948
2.2226652048240805,-16.848803986710948
2.2236619156782615,-19.848803986710948
2.2246586265324426,-23.848803986710948
2.225655337386624,-20.848803986710948
2.226652048240805,-19.848803986710948
2.2276487590949863,-11.848803986710948
2.2286454699491673,-4.848803986710948
2.229642180803349,1.1511960132890522
2.23063889165753,11.151196013289052
2.231635602511711,19.151196013289052
2.2326323133658925,26.151196013289052
2.2336290242200736,25.151196013289052
2.2346257350742547,27.151196013289052
2.235622445928436,21.151196013289052
2.2366191567826172,16.151196013289052
2.2376158676367983,11.151196013289052
2.2386125784909794,4.151196013289052
2.239609289345161,-1.8488039867109478
2.240606000199342,-6.848803986710948
2.241602711053523,-9.848803986710948
2.2425994219077046,-15.848803986710948
2.2435961327618856,-19.848803986710948
2.2445928436160667,-22.848803986710948
2.2455895544702478,-22.848803986710948
2.2465862653244293,-19.848803986710948
2.2475829761786104,-13.848803986710948
2.2485796870327914,-7.848803986710948
2.249576397886973,-2.848803986710948
2.250573108741154,8.151196013289052
2.251569819595335,12.151196013289052
2.2525665304495166,17.151196013289052
2.2535632413036977,20.151196013289052
2.2545599521578787,20.151196013289052
2.25555666301206,17.151196013289052
2.2565533738662413,14.151196013289052
2.2575500847204224,11.151196013289052
2.2585467955746035,4.151196013289052
2.259543506428785,-1.8488039867109478
2.260540217282966,-6.848803986710948
2.261536928137147,-14.848803986710948
2.262533638991328,-15.848803986710948
2.2635303498455097,-18.848803986710948
2.264527060699691,-22.848803986710948
2.265523771553872,-21.848803986710948
2.2665204824080534,-20.848803986710948
2.2675171932622344,-13.848803986710948
2.2685139041164155,-6.848803986710948
2.269510614970597,-1.8488039867109478
2.270507325824778,4.151196013289052
2.271504036678959,12.151196013289052
2.2725007475331402,16.151196013289052
2.2734974583873218,20.151196013289052
2.274494169241503,21.151196013289052
2.275490880095684,20.151196013289052
2.2764875909498654,15.151196013289052
2.2774843018040465,6.151196013289052
2.2784810126582276,2.151196013289052
2.2794777235124086,-1.8488039867109478
2.28047443436659,-5.848803986710948
2.281471145220771,-13.848803986710948
2.2824678560749523,-16.848803986710948
2.283464566929134,-20.848803986710948
2.284461277783315,-23.848803986710948
2.285457988637496,-23.848803986710948
2.2864546994916775,-19.848803986710948
2.2874514103458585,-13.848803986710948
2.2884481212000396,-8.848803986710948
2.2894448320542207,-1.8488039867109478
2.290441542908402,11.151196013289052
2.2914382537625833,14.151196013289052
2.2924349646167643,23.151196013289052
2.293431675470946,23.151196013289052
2.294428386325127,26.151196013289052
2.295425097179308,22.151196013289052
2.2964218080334895,19.151196013289052
2.2974185188876706,11.151196013289052
2.2984152297418516,8.151196013289052
2.2994119405960327,1.1511960132890522
2.3004086514502142,-4.848803986710948
2.3014053623043953,-12.848803986710948
2.3024020731585764,-16.848803986710948
2.303398784012758,-18.848803986710948
2.304395494866939,-23.848803986710948
2.30539220572112,-21.848803986710948
2.306388916575301,-23.848803986710948
2.3073856274294826,-11.848803986710948
2.3083823382836637,-6.848803986710948
2.3093790491378448,-2.848803986710948
2.3103757599920263,7.151196013289052
2.3113724708462073,14.151196013289052
2.3123691817003884,20.151196013289052
2.31336589255457,20.151196013289052
2.314362603408751,22.151196013289052
2.315359314262932,19.151196013289052
2.316356025117113,17.151196013289052
2.3173527359712947,12.151196013289052
2.3183494468254757,4.151196013289052
2.319346157679657,0.1511960132890522
2.3203428685338383,-4.848803986710948
2.3213395793880194,-12.848803986710948
2.3223362902422005,-15.848803986710948
2.3233330010963815,-17.848803986710948
2.324329711950563,-22.848803986710948
2.325326422804744,-19.848803986710948
2.326323133658925,-19.848803986710948
2.3273198445131067,-10.848803986710948
2.3283165553672878,-2.848803986710948
2.329313266221469,1.1511960132890522
2.3303099770756504,13.151196013289052
2.3313066879298314,17.151196013289052
2.3323033987840125,25.151196013289052
2.3333001096381936,28.151196013289052
2.334296820492375,24.151196013289052
2.335293531346556,21.151196013289052
2.336290242200737,18.151196013289052
2.3372869530549187,13.151196013289052
2.3382836639091,7.151196013289052
2.339280374763281,1.1511960132890522
2.340277085617462,-4.848803986710948
2.3412737964716435,-11.848803986710948
2.3422705073258245,-15.848803986710948
2.3432672181800056,-20.848803986710948
2.344263929034187,-23.848803986710948
2.345260639888368,-22.848803986710948
2.3462573507425493,-19.848803986710948
2.347254061596731,-13.848803986710948
2.348250772450912,-6.848803986710948
2.349247483305093,-2.848803986710948
2.350244194159274,5.151196013289052
2.3512409050134555,12.151196013289052
2.3522376158676366,19.151196013289052
2.3532343267218176,20.151196013289052
2.354231037575999,22.151196013289052
2.3552277484301802,20.151196013289052
2.3562244592843613,13.151196013289052
2.3572211701385424,7.151196013289052
2.358217880992724,4.151196013289052
2.359214591846905,-1.8488039867109478
2.360211302701086,-5.848803986710948
2.3612080135552675,-12.848803986710948
2.3622047244094486,-19.848803986710948
2.3632014352636297,-22.848803986710948
2.364198146117811,-26.848803986710948
2.3651948569719923,-25.848803986710948
2.3661915678261733,-23.848803986710948
2.3671882786803544,-16.848803986710948
2.368184989534536,-8.848803986710948
2.369181700388717,1.1511960132890522
2.370178411242898,10.151196013289052
2.3711751220970796,20.151196013289052
2.3721718329512607,23.151196013289052
2.3731685438054417,26.151196013289052
2.3741652546596232,24.151196013289052
2.3751619655138043,22.151196013289052
2.3761586763679854,15.151196013289052
2.3771553872221665,12.151196013289052
2.378152098076348,6.151196013289052
2.379148808930529,2.151196013289052
2.38014551978471,-6.848803986710948
2.3811422306388916,-14.848803986710948
2.3821389414930727,-16.848803986710948
2.3831356523472538,-19.848803986710948
2.384132363201435,-22.848803986710948
2.3851290740556164,-21.848803986710948
2.3861257849097974,-20.848803986710948
2.3871224957639785,-12.848803986710948
2.38811920661816,-7.848803986710948
2.389115917472341,-1.8488039867109478
2.390112628326522,7.151196013289052
2.3911093391807037,13.151196013289052
2.3921060500348847,21.151196013289052
2.393102760889066,23.151196013289052
2.394099471743247,25.151196013289052
2.3950961825974284,20.151196013289052
2.3960928934516095,15.151196013289052
2.3970896043057905,9.151196013289052
2.398086315159972,5.151196013289052
2.399083026014153,-0.8488039867109478
2.400079736868334,-5.848803986710948
2.4010764477225153,-12.848803986710948
2.402073158576697,-12.848803986710948
2.403069869430878,-17.848803986710948
2.404066580285059,-21.848803986710948
2.4050632911392404,-19.848803986710948
2.4060600019934215,-18.848803986710948
2.4070567128476026,-11.848803986710948
2.408053423701784,-6.848803986710948
2.409050134555965,0.1511960132890522
2.4100468454101462,8.151196013289052
2.4110435562643273,15.151196013289052
2.412040267118509,20.151196013289052
2.41303697797269,22.151196013289052
2.414033688826871,23.151196013289052
2.4150303996810525,21.151196013289052
2.4160271105352336,15.151196013289052
2.4170238213894146,9.151196013289052
2.4180205322435957,3.151196013289052
2.419017243097777,-1.8488039867109478
2.4200139539519583,-4.848803986710948
2.4210106648061394,-14.848803986710948
2.422007375660321,-17.848803986710948
2.423004086514502,-19.848803986710948
2.424000797368683,-20.848803986710948
2.4249975082228645,-21.848803986710948
2.4259942190770456,-24.848803986710948
2.4269909299312267,-15.848803986710948
2.4279876407854077,-7.848803986710948
2.4289843516395893,-1.8488039867109478
2.4299810624937703,6.151196013289052
2.4309777733479514,12.151196013289052
2.431974484202133,21.151196013289052
2.432971195056314,24.151196013289052
2.433967905910495,24.151196013289052
2.434964616764676,20.151196013289052
2.4359613276188576,19.151196013289052
2.4369580384730387,12.151196013289052
2.43795474932722,6.151196013289052
2.4389514601814013,0.1511960132890522
2.4399481710355824,-7.848803986710948
2.4409448818897634,-14.848803986710948
2.441941592743945,-15.848803986710948
2.442938303598126,-17.848803986710948
2.443935014452307,-23.848803986710948
2.444931725306488,-22.848803986710948
2.4459284361606697,-20.848803986710948
2.4469251470148508,-14.848803986710948
2.447921857869032,-3.848803986710948
2.4489185687232133,1.1511960132890522
2.4499152795773944,11.151196013289052
2.4509119904315755,14.151196013289052
2.451908701285757,21.151196013289052
2.452905412139938,27.151196013289052
2.453902122994119,24.151196013289052
2.4548988338483,24.151196013289052
2.4558955447024817,18.151196013289052
2.456892255556663,12.151196013289052
2.457888966410844,7.151196013289052
2.4588856772650254,4.151196013289052
2.4598823881192065,-3.848803986710948
2.4608790989733875,-9.848803986710948
2.4618758098275686,-14.848803986710948
2.46287252068175,-14.848803986710948
2.463869231535931,-19.848803986710948
2.4648659423901123,-16.848803986710948
2.4658626532442938,-18.848803986710948
2.466859364098475,-13.848803986710948
2.467856074952656,-4.848803986710948
2.4688527858068374,2.151196013289052
2.4698494966610185,8.151196013289052
2.4708462075151996,12.151196013289052
2.4718429183693806,22.151196013289052
2.472839629223562,24.151196013289052
2.4738363400777432,23.151196013289052
2.4748330509319243,19.151196013289052
2.475829761786106,16.151196013289052
2.476826472640287,12.151196013289052
2.477823183494468,6.151196013289052
2.478819894348649,3.151196013289052
2.4798166052028305,-6.848803986710948
2.4808133160570116,-12.848803986710948
2.4818100269111927,-17.848803986710948
2.482806737765374,-19.848803986710948
2.4838034486195553,-19.848803986710948
2.4848001594737363,-19.848803986710948
2.485796870327918,-16.848803986710948
2.486793581182099,-12.848803986710948
2.48779029203628,-6.848803986710948
2.488787002890461,-0.8488039867109478
2.4897837137446426,8.151196013289052
2.4907804245988237,20.151196013289052
2.4917771354530047,24.151196013289052
2.4927738463071862,23.151196013289052
2.4937705571613673,23.151196013289052
2.4947672680155484,20.151196013289052
2.4957639788697294,13.151196013289052
2.496760689723911,7.151196013289052
2.497757400578092,4.151196013289052
2.498754111432273,4.151196013289052
2.4997508222864546,-2.848803986710948
2.5007475331406357,-10.848803986710948
2.5017442439948168,-17.848803986710948
2.5027409548489983,-18.848803986710948
2.5037376657031793,-19.848803986710948
2.5047343765573604,-20.848803986710948
2.5057310874115415,-21.848803986710948
2.506727798265723,-14.848803986710948
2.507724509119904,-7.848803986710948
2.508721219974085,-2.848803986710948
2.5097179308282667,7.151196013289052
2.5107146416824477,15.151196013289052
2.511711352536629,20.151196013289052
2.51270806339081,20.151196013289052
2.5137047742449914,22.151196013289052
2.5147014850991725,19.151196013289052
2.5156981959533535,16.151196013289052
2.516694906807535,10.151196013289052
2.517691617661716,4.151196013289052
2.518688328515897,0.1511960132890522
2.5196850393700787,-5.848803986710948
2.5206817502242598,-12.848803986710948
2.521678461078441,-16.848803986710948
2.522675171932622,-18.848803986710948
2.5236718827868034,-20.848803986710948
2.5246685936409845,-19.848803986710948
2.5256653044951656,-19.848803986710948
2.526662015349347,-14.848803986710948
2.527658726203528,-8.848803986710948
2.5286554370577092,-2.848803986710948
2.5296521479118907,6.151196013289052
2.530648858766072,14.151196013289052
2.531645569620253,20.151196013289052
2.532642280474434,22.151196013289052
2.5336389913286155,24.151196013289052
2.5346357021827965,23.151196013289052
2.5356324130369776,17.151196013289052
2.536629123891159,11.151196013289052
2.53762583474534,3.151196013289052
2.5386225455995213,-2.848803986710948
2.5396192564537023,-4.848803986710948
2.540615967307884,-13.848803986710948
2.541612678162065,-12.848803986710948
2.542609389016246,-20.848803986710948
2.5436060998704275,-22.848803986710948
2.5446028107246086,-22.848803986710948
2.5455995215787897,-25.848803986710948
2.546596232432971,-15.848803986710948
2.5475929432871522,-7.848803986710948
2.5485896541413333,-2.848803986710948
2.5495863649955144,5.151196013289052
2.550583075849696,9.151196013289052
2.551579786703877,16.151196013289052
2.552576497558058,20.151196013289052
2.5535732084122396,20.151196013289052
2.5545699192664206,17.151196013289052
2.5555666301206017,15.151196013289052
2.5565633409747828,11.151196013289052
2.5575600518289643,5.151196013289052
2.5585567626831454,-1.8488039867109478
2.5595534735373264,-7.848803986710948
2.560550184391508,-14.848803986710948
2.561546895245689,-17.848803986710948
2.56254360609987,-19.848803986710948
2.5635403169540516,-24.848803986710948
2.5645370278082327,-21.848803986710948
2.5655337386624137,-20.848803986710948
2.566530449516595,-15.848803986710948
2.5675271603707763,-6.848803986710948
2.5685238712249574,-2.848803986710948
2.5695205820791385,6.151196013289052
2.57051729293332,13.151196013289052
2.571514003787501,18.151196013289052
2.572510714641682,22.151196013289052
2.573507425495863,24.151196013289052
2.5745041363500447,22.151196013289052
2.575500847204226,15.151196013289052
2.576497558058407,9.151196013289052
2.5774942689125884,4.151196013289052
2.5784909797667694,-1.8488039867109478
2.5794876906209505,-6.848803986710948
2.580484401475132,-13.848803986710948
2.581481112329313,-14.848803986710948
2.582477823183494,-20.848803986710948
2.5834745340376752,-21.848803986710948
2.5844712448918568,-22.848803986710948
2.585467955746038,-18.848803986710948
2.586464666600219,-14.848803986710948
2.5874613774544004,-8.848803986710948
2.5884580883085815,-0.8488039867109478
2.5894547991627626,10.151196013289052
2.590451510016944,16.151196013289052
2.591448220871125,20.151196013289052
2.592444931725306,24.151196013289052
2.5934416425794873,21.151196013289052
2.594438353433669,20.151196013289052
2.59543506428785,17.151196013289052
2.596431775142031,12.151196013289052
2.5974284859962125,4.151196013289052
2.5984251968503935,-1.8488039867109478
2.5994219077045746,-4.848803986710948
2.6004186185587557,-13.848803986710948
2.601415329412937,-15.848803986710948
2.6024120402671183,-17.848803986710948
2.6034087511212993,-21.848803986710948
2.604405461975481,-18.848803986710948
2.605402172829662,-19.848803986710948
2.606398883683843,-14.848803986710948
2.6073955945380245,-5.848803986710948
2.6083923053922056,1.1511960132890522
2.6093890162463866,9.151196013289052
2.6103857271005677,20.151196013289052
2.6113824379547492,20.151196013289052
2.6123791488089303,24.151196013289052
2.6133758596631114,23.151196013289052
2.614372570517293,17.151196013289052
2.615369281371474,14.151196013289052
2.616365992225655,8.151196013289052
2.617362703079836,2.151196013289052
2.6183594139340176,1.1511960132890522
2.6193561247881987,-5.848803986710948
2.6203528356423798,-10.848803986710948
2.6213495464965613,-17.848803986710948
2.6223462573507423,-19.848803986710948
2.6233429682049234,-20.848803986710948
2.624339679059105,-19.848803986710948
2.625336389913286,-17.848803986710948
2.626333100767467,-11.848803986710948
2.627329811621648,-7.848803986710948
2.6283265224758297,-3.848803986710948
2.6293232333300107,6.151196013289052
2.630319944184192,11.151196013289052
2.6313166550383733,18.151196013289052
2.6323133658925544,20.151196013289052
2.6333100767467355,22.151196013289052
2.6343067876009165,18.151196013289052
2.635303498455098,14.151196013289052
2.636300209309279,11.151196013289052
2.63729692016346,5.151196013289052
2.6382936310176417,0.1511960132890522
2.6392903418718228,-2.848803986710948
2.640287052726004,-12.848803986710948
2.6412837635801854,-14.848803986710948
2.6422804744343664,-18.848803986710948
2.6432771852885475,-20.848803986710948
2.6442738961427286,-19.848803986710948
2.64527060699691,-18.848803986710948
2.646267317851091,-13.848803986710948
2.647264028705272,-6.848803986710948
2.6482607395594537,-0.8488039867109478
2.649257450413635,7.151196013289052
2.650254161267816,16.151196013289052
2.651250872121997,20.151196013289052
2.6522475829761785,23.151196013289052
2.6532442938303595,23.151196013289052
2.6542410046845406,20.151196013289052
2.655237715538722,13.151196013289052
2.656234426392903,9.151196013289052
2.6572311372470843,1.1511960132890522
2.6582278481012658,-0.8488039867109478
2.659224558955447,-8.848803986710948
2.660221269809628,-14.848803986710948
2.661217980663809,-18.848803986710948
2.6622146915179905,-21.848803986710948
2.6632114023721716,-23.848803986710948
2.6642081132263526,-20.848803986710948
2.665204824080534,-19.848803986710948
2.6662015349347152,-11.848803986710948
2.6671982457888963,-7.848803986710948
2.668194956643078,-1.8488039867109478
2.669191667497259,8.151196013289052
2.67018837835144,14.151196013289052
2.671185089205621,20.151196013289052
2.6721818000598025,20.151196013289052
2.6731785109139836,21.151196013289052
2.6741752217681647,20.151196013289052
2.675171932622346,15.151196013289052
2.6761686434765273,10.151196013289052
2.6771653543307083,4.151196013289052
2.6781620651848894,-0.8488039867109478
2.679158776039071,-6.848803986710948
2.680155486893252,-9.848803986710948
2.681152197747433,-14.848803986710948
2.6821489086016146,-16.848803986710948
2.6831456194557957,-18.848803986710948
2.6841423303099767,-18.848803986710948
2.6851390411641582,-13.848803986710948
2.6861357520183393,-12.848803986710948
2.6871324628725204,-4.848803986710948
2.6881291737267015,0.1511960132890522
2.689125884580883,9.151196013289052
2.690122595435064,14.151196013289052
2.691119306289245,19.151196013289052
2.6921160171434266,21.151196013289052
2.6931127279976077,24.151196013289052
2.6941094388517888,20.151196013289052
2.69510614970597,16.151196013289052
2.6961028605601514,10.151196013289052
2.6970995714143324,4.151196013289052
2.6980962822685135,2.151196013289052
2.699092993122695,-5.848803986710948
2.700089703976876,-11.848803986710948
2.701086414831057,-14.848803986710948
2.7020831256852387,-13.848803986710948
2.7030798365394197,-19.848803986710948
2.704076547393601,-17.848803986710948
2.705073258247782,-15.848803986710948
2.7060699691019634,-11.848803986710948
2.7070666799561445,-6.848803986710948
2.7080633908103255,1.1511960132890522
2.709060101664507,9.151196013289052
2.710056812518688,14.151196013289052
2.711053523372869,18.151196013289052
2.7120502342270503,18.151196013289052
2.713046945081232,20.151196013289052
2.714043655935413,18.151196013289052
2.715040366789594,12.151196013289052
2.7160370776437754,8.151196013289052
2.7170337884979565,1.1511960132890522
2.7180304993521376,-3.848803986710948
2.719027210206319,-7.848803986710948
2.7200239210605,-14.848803986710948
2.7210206319146812,-17.848803986710948
2.7220173427688623,-19.848803986710948
2.723014053623044,-22.848803986710948
2.724010764477225,-19.848803986710948
2.725007475331406,-17.848803986710948
2.7260041861855875,-12.848803986710948
2.7270008970397686,-10.848803986710948
2.7279976078939496,-3.848803986710948
2.7289943187481307,4.151196013289052
2.729991029602312,11.151196013289052
2.7309877404564933,20.151196013289052
2.7319844513106744,23.151196013289052
2.732981162164856,23.151196013289052
2.733977873019037,17.151196013289052
2.734974583873218,14.151196013289052
2.7359712947273995,10.151196013289052
2.7369680055815806,3.151196013289052
2.7379647164357617,0.1511960132890522
2.7389614272899427,-4.848803986710948
2.7399581381441243,-14.848803986710948
2.7409548489983053,-16.848803986710948
2.7419515598524864,-18.848803986710948
2.742948270706668,-20.848803986710948
2.743944981560849,-17.848803986710948
2.74494169241503,-18.848803986710948
2.7459384032692116,-13.848803986710948
2.7469351141233926,-7.848803986710948
2.7479318249775737,-3.848803986710948
2.748928535831755,7.151196013289052
2.7499252466859363,9.151196013289052
2.7509219575401174,15.151196013289052
2.7519186683942984,18.151196013289052
2.75291537924848,20.151196013289052
2.753912090102661,17.151196013289052
2.754908800956842,12.151196013289052
2.755905511811023,11.151196013289052
2.7569022226652047,4.151196013289052
2.7578989335193858,1.1511960132890522
2.758895644373567,-3.848803986710948
2.7598923552277483,-11.848803986710948
2.7608890660819294,-12.848803986710948
2.7618857769361105,-17.848803986710948
2.762882487790292,-22.848803986710948
2.763879198644473,-22.848803986710948
2.764875909498654,-14.848803986710948
2.765872620352835,-10.848803986710948
2.7668693312070167,-4.848803986710948
2.767866042061198,0.1511960132890522
2.768862752915379,9.151196013289052
2.7698594637695604,15.151196013289052
2.7708561746237415,21.151196013289052
2.7718528854779225,22.151196013289052
2.7728495963321036,22.151196013289052
2.773846307186285,21.151196013289052
2.774843018040466,16.151196013289052
2.7758397288946473,9.151196013289052
2.7768364397488288,5.151196013289052
2.77783315060301,0.1511960132890522
2.778829861457191,-4.848803986710948
2.7798265723113724,-12.848803986710948
2.7808232831655535,-17.848803986710948
2.7818199940197346,-17.848803986710948
2.7828167048739156,-22.848803986710948
2.783813415728097,-20.848803986710948
2.7848101265822782,-20.848803986710948
2.7858068374364593,-10.848803986710948
2.786803548290641,-6.848803986710948
2.787800259144822,-1.8488039867109478
2.788796969999003,7.151196013289052
2.789793680853184,14.151196013289052
2.7907903917073655,21.151196013289052
2.7917871025615466,23.151196013289052
2.7927838134157277,22.151196013289052
2.793780524269909,17.151196013289052
2.7947772351240903,12.151196013289052
2.7957739459782713,8.151196013289052
2.796770656832453,2.151196013289052
2.797767367686634,-2.848803986710948
2.798764078540815,-10.848803986710948
2.799760789394996,-14.848803986710948
2.8007575002491776,-17.848803986710948
2.8017542111033586,-18.848803986710948
2.8027509219575397,-20.848803986710948
2.8037476328117212,-19.848803986710948
2.8047443436659023,-20.848803986710948
2.8057410545200834,-9.848803986710948
2.8067377653742644,-3.848803986710948
2.807734476228446,3.151196013289052
2.808731187082627,9.151196013289052
2.809727897936808,15.151196013289052
2.8107246087909896,24.151196013289052
2.8117213196451707,24.151196013289052
2.8127180304993518,23.151196013289052
2.8137147413535333,20.151196013289052
2.8147114522077143,18.151196013289052
2.8157081630618954,13.151196013289052
2.8167048739160765,6.151196013289052
2.817701584770258,-2.848803986710948
2.818698295624439,-7.848803986710948
2.81969500647862,-15.848803986710948
2.8206917173328017,-15.848803986710948
2.8216884281869827,-19.848803986710948
2.822685139041164,-20.848803986710948
2.8236818498953453,-19.848803986710948
2.8246785607495264,-16.848803986710948
2.8256752716037075,-14.848803986710948
2.8266719824578885,-5.848803986710948
2.82766869331207,1.1511960132890522
2.828665404166251,8.151196013289052
2.829662115020432,14.151196013289052
2.8306588258746137,22.151196013289052
2.8316555367287948,25.151196013289052
2.832652247582976,24.151196013289052
2.833648958437157,22.151196013289052
2.8346456692913384,16.151196013289052
2.8356423801455195,13.151196013289052
2.8366390909997006,4.151196013289052
2.837635801853882,1.1511960132890522
2.838632512708063,-7.848803986710948
2.8396292235622442,-15.848803986710948
2.8406259344164257,-16.848803986710948
2.841622645270607,-19.848803986710948
2.842619356124788,-24.848803986710948
2.843616066978969,-19.848803986710948
2.8446127778331505,-19.848803986710948
2.8456094886873315,-14.848803986710948
2.8466061995415126,-7.848803986710948
2.847602910395694,-1.8488039867109478
2.848599621249875,8.151196013289052
2.8495963321040563,14.151196013289052
2.8505930429582373,19.151196013289052
2.851589753812419,22.151196013289052
2.8525864646666,20.151196013289052
2.853583175520781,20.151196013289052
2.8545798863749625,13.151196013289052
2.8555765972291436,8.151196013289052
2.8565733080833247,-0.8488039867109478
2.857570018937506,-1.8488039867109478
2.8585667297916872,-10.848803986710948
2.8595634406458683,-15.848803986710948
2.8605601515000494,-19.848803986710948
2.861556862354231,-21.848803986710948
2.862553573208412,-22.848803986710948
2.863550284062593,-19.848803986710948
2.8645469949167746,-17.848803986710948
2.8655437057709556,-11.848803986710948
2.8665404166251367,-2.848803986710948
2.8675371274793178,3.151196013289052
2.8685338383334993,8.151196013289052
2.8695305491876804,14.151196013289052
2.8705272600418614,23.151196013289052
2.871523970896043,24.151196013289052
2.872520681750224,21.151196013289052
2.873517392604405,20.151196013289052
2.8745141034585866,16.151196013289052
2.8755108143127677,9.151196013289052
2.8765075251669487,5.151196013289052
2.87750423602113,-0.8488039867109478
2.8785009468753113,-7.848803986710948
2.8794976577294924,-12.848803986710948
2.8804943685836735,-16.848803986710948
2.881491079437855,-19.848803986710948
2.882487790292036,-20.848803986710948
2.883484501146217,-22.848803986710948
2.8844812120003986,-19.848803986710948
2.8854779228545797,-14.848803986710948
2.886474633708761,-7.848803986710948
2.887471344562942,1.1511960132890522
2.8884680554171234,11.151196013289052
2.8894647662713044,17.151196013289052
2.8904614771254855,21.151196013289052
2.891458187979667,22.151196013289052
2.892454898833848,25.151196013289052
2.893451609688029,19.151196013289052
2.8944483205422102,16.151196013289052
2.8954450313963918,10.151196013289052
2.896441742250573,2.151196013289052
2.897438453104754,1.1511960132890522
2.8984351639589354,-4.848803986710948
2.8994318748131165,-10.848803986710948
2.9004285856672976,-15.848803986710948
2.901425296521479,-20.848803986710948
2.90242200737566,-24.848803986710948
2.903418718229841,-22.848803986710948
2.9044154290840223,-20.848803986710948
2.905412139938204,-16.848803986710948
2.906408850792385,-7.848803986710948
2.907405561646566,-0.8488039867109478
2.9084022725007475,9.151196013289052
2.9093989833549285,14.151196013289052
2.9103956942091096,21.151196013289052
2.9113924050632907,21.151196013289052
2.912389115917472,22.151196013289052
2.9133858267716533,18.151196013289052
2.9143825376258343,12.151196013289052
2.915379248480016,9.151196013289052
2.916375959334197,4.151196013289052
2.917372670188378,-3.848803986710948
2.9183693810425595,-7.848803986710948
2.9193660918967406,-12.848803986710948
2.9203628027509216,-17.848803986710948
2.9213595136051027,-22.848803986710948
2.9223562244592842,-21.848803986710948
2.9233529353134653,-21.848803986710948
2.9243496461676464,-19.848803986710948
2.925346357021828,-12.848803986710948
2.926343067876009,-5.848803986710948
2.92733977873019,1.1511960132890522
2.928336489584371,9.151196013289052
2.9293332004385526,14.151196013289052
2.9303299112927337,21.151196013289052
2.9313266221469148,21.151196013289052
2.9323233330010963,25.151196013289052
2.9333200438552773,20.151196013289052
2.9343167547094584,16.151196013289052
2.93531346556364,12.151196013289052
2.936310176417821,5.151196013289052
2.937306887272002,1.1511960132890522
2.938303598126183,-6.848803986710948
2.9393003089803647,-12.848803986710948
2.9402970198345457,-12.848803986710948
2.941293730688727,-18.848803986710948
2.9422904415429083,-22.848803986710948
2.9432871523970894,-20.848803986710948
2.9442838632512704,-18.848803986710948
2.9452805741054515,-11.848803986710948
2.946277284959633,-5.848803986710948
2.947273995813814,1.1511960132890522
2.948270706667995,10.151196013289052
2.9492674175221767,16.151196013289052
2.9502641283763578,27.151196013289052
2.951260839230539,26.151196013289052
2.9522575500847204,26.151196013289052
2.9532542609389014,24.151196013289052
2.9542509717930825,13.151196013289052
2.9552476826472636,11.151196013289052
2.956244393501445,2.151196013289052
2.957241104355626,-2.848803986710948
2.958237815209807,-4.848803986710948
2.9592345260639887,-14.848803986710948
2.96023123691817,-18.848803986710948
2.961227947772351,-19.848803986710948
2.9622246586265324,-23.848803986710948
2.9632213694807135,-21.848803986710948
2.9642180803348945,-19.848803986710948
2.9652147911890756,-11.848803986710948
2.966211502043257,-6.848803986710948
2.967208212897438,-0.8488039867109478
2.9682049237516193,8.151196013289052
2.9692016346058008,17.151196013289052
2.970198345459982,20.151196013289052
2.971195056314163,20.151196013289052
2.972191767168344,19.151196013289052
2.9731884780225255,17.151196013289052
2.9741851888767066,13.151196013289052
2.9751818997308876,8.151196013289052
2.976178610585069,2.151196013289052
2.9771753214392502,-2.848803986710948
2.9781720322934313,-6.848803986710948
2.979168743147613,-12.848803986710948
2.980165454001794,-12.848803986710948
2.981162164855975,-15.848803986710948
2.982158875710156,-20.848803986710948
2.9831555865643375,-19.848803986710948
2.9841522974185186,-19.848803986710948
2.9851490082726997,-9.848803986710948
2.986145719126881,-4.848803986710948
2.9871424299810623,-0.8488039867109478
2.9881391408352433,8.151196013289052
2.9891358516894244,13.151196013289052
2.990132562543606,20.151196013289052
2.991129273397787,20.151196013289052
2.992125984251968,22.151196013289052
2.9931226951061496,19.151196013289052
2.9941194059603307,17.151196013289052
2.9951161168145117,12.151196013289052
2.9961128276686932,5.151196013289052
2.9971095385228743,0.1511960132890522
2.9981062493770554,-6.848803986710948
2.9991029602312365,-14.848803986710948
3.000099671085418,-18.848803986710948
3.001096381939599,-18.848803986710948
3.00209309279378,-22.848803986710948
3.0030898036479616,-18.848803986710948
3.0040865145021427,-17.848803986710948
3.0050832253563238,-11.848803986710948
3.006079936210505,-4.848803986710948
3.0070766470646864,0.1511960132890522
3.0080733579188674,8.151196013289052
3.0090700687730485,15.151196013289052
3.01006677962723,18.151196013289052
3.011063490481411,23.151196013289052
3.012060201335592,20.151196013289052
3.0130569121897737,17.151196013289052
3.0140536230439547,15.151196013289052
3.015050333898136,7.151196013289052
3.016047044752317,4.151196013289052
3.0170437556064984,-2.848803986710948
3.0180404664606795,-7.848803986710948
3.0190371773148605,-11.848803986710948
3.020033888169042,-14.848803986710948
3.021030599023223,-19.848803986710948
3.022027309877404,-21.848803986710948
3.0230240207315853,-19.848803986710948
3.024020731585767,-17.848803986710948
3.025017442439948,-14.848803986710948
3.026014153294129,-7.848803986710948
3.0270108641483104,-3.848803986710948
3.0280075750024915,7.151196013289052
3.0290042858566726,12.151196013289052
3.030000996710854,21.151196013289052
3.030997707565035,17.151196013289052
3.0319944184192162,20.151196013289052
3.0329911292733973,17.151196013289052
3.033987840127579,15.151196013289052
3.03498455098176,12.151196013289052
3.035981261835941,3.151196013289052
3.0369779726901225,-2.848803986710948
3.0379746835443036,-10.848803986710948
3.0389713943984846,-15.848803986710948
3.039968105252666,-13.848803986710948
3.040964816106847,-19.848803986710948
3.0419615269610283,-23.848803986710948
3.0429582378152094,-19.848803986710948
3.043954948669391,-22.848803986710948
3.044951659523572,-15.848803986710948
3.045948370377753,-4.848803986710948
3.0469450812319345,0.1511960132890522
3.0479417920861156,9.151196013289052
3.0489385029402967,14.151196013289052
3.0499352137944777,17.151196013289052
3.0509319246486593,23.151196013289052
3.0519286355028403,26.151196013289052
3.0529253463570214,20.151196013289052
3.053922057211203,19.151196013289052
3.054918768065384,12.151196013289052
3.055915478919565,5.151196013289052
3.0569121897737466,1.1511960132890522
3.0579089006279276,-6.848803986710948
3.0589056114821087,-14.848803986710948
3.05990232233629,-17.848803986710948
3.0608990331904713,-16.848803986710948
3.0618957440446524,-20.848803986710948
3.0628924548988334,-19.848803986710948
3.063889165753015,-18.848803986710948
3.064885876607196,-12.848803986710948
3.065882587461377,-5.848803986710948
3.066879298315558,-1.8488039867109478
3.0678760091697397,8.151196013289052
3.0688727200239208,16.151196013289052
3.069869430878102,19.151196013289052
3.0708661417322833,22.151196013289052
3.0718628525864644,22.151196013289052
3.0728595634406455,20.151196013289052
3.073856274294827,16.151196013289052
3.074852985149008,11.151196013289052
3.075849696003189,5.151196013289052
3.07684640685737,1.1511960132890522
3.0778431177115517,-4.848803986710948
3.078839828565733,-14.848803986710948
3.079836539419914,-12.848803986710948
3.0808332502740954,-17.848803986710948
3.0818299611282765,-19.848803986710948
3.0828266719824575,-18.848803986710948
3.0838233828366386,-18.848803986710948
3.08482009369082,-8.848803986710948
3.085816804545001,-4.848803986710948
3.0868135153991823,1.1511960132890522
3.0878102262533638,8.151196013289052
3.088806937107545,13.151196013289052
3.089803647961726,16.151196013289052
3.0908003588159074,22.151196013289052
3.0917970696700885,22.151196013289052
3.0927937805242696,19.151196013289052
3.0937904913784506,14.151196013289052
3.094787202232632,11.151196013289052
3.095783913086813,1.1511960132890522
3.0967806239409943,-3.848803986710948
3.097777334795176,-8.848803986710948
3.098774045649357,-14.848803986710948
3.099770756503538,-18.848803986710948
3.1007674673577195,-21.848803986710948
3.1017641782119005,-21.848803986710948
3.1027608890660816,-22.848803986710948
3.1037575999202627,-19.848803986710948
3.104754310774444,-10.848803986710948
3.1057510216286253,-5.848803986710948
3.1067477324828063,-1.8488039867109478
3.107744443336988,7.151196013289052
3.108741154191169,15.151196013289052
3.10973786504535,19.151196013289052
3.110734575899531,20.151196013289052
3.1117312867537126,20.151196013289052
3.1127279976078936,19.151196013289052
3.1137247084620747,18.151196013289052
3.1147214193162562,14.151196013289052
3.1157181301704373,7.151196013289052
3.1167148410246184,1.1511960132890522
3.1177115518788,-4.848803986710948
3.118708262732981,-12.848803986710948
3.119704973587162,-13.848803986710948
3.120701684441343,-19.848803986710948
3.1216983952955246,-23.848803986710948
3.1226951061497057,-22.848803986710948
3.1236918170038868,-21.848803986710948
3.1246885278580683,-16.848803986710948
3.1256852387122493,-7.848803986710948
3.1266819495664304,-3.848803986710948
3.1276786604206115,8.151196013289052
3.128675371274793,15.151196013289052
3.129672082128974,19.151196013289052
3.130668792983155,22.151196013289052
3.1316655038373367,21.151196013289052
3.1326622146915177,21.151196013289052
3.133658925545699,16.151196013289052
3.1346556363998803,11.151196013289052
3.1356523472540614,5.151196013289052
3.1366490581082425,2.151196013289052
3.1376457689624235,-6.848803986710948
3.138642479816605,-11.848803986710948
3.139639190670786,-17.848803986710948
3.140635901524967,-20.848803986710948
3.1416326123791487,-23.848803986710948
3.1426293232333298,-17.848803986710948
3.143626034087511,-17.848803986710948
3.144622744941692,-12.848803986710948
