Time,EMG
0.0,15.94305647840531
0.000996710854181202,-1.0569435215946896
0.001993421708362404,-11.05694352159469
0.002990132562543606,-18.05694352159469
0.003986843416724808,-36.05694352159469
0.00498355427090601,-42.05694352159469
0.005980265125087212,-43.05694352159469
0.006976975979268414,-43.05694352159469
0.007973686833449616,-31.05694352159469
0.008970397687630818,-21.05694352159469
0.00996710854181202,-11.05694352159469
0.01096381939599322,-0.05694352159468963
0.011960530250174423,8.94305647840531
0.012957241104355626,17.94305647840531
0.013953951958536827,27.94305647840531
0.014950662812718028,32.94305647840531
0.01594737366689923,36.94305647840531
0.016944084521080434,35.94305647840531
0.017940795375261637,32.94305647840531
0.018937506229442836,24.94305647840531
0.01993421708362404,15.94305647840531
0.02093092793780524,-1.0569435215946896
0.02192763879198644,-10.05694352159469
0.022924349646167644,-19.05694352159469
0.023921060500348847,-33.05694352159469
0.02491777135453005,-39.05694352159469
0.025914482208711252,-43.05694352159469
0.02691119306289245,-44.05694352159469
0.027907903917073654,-33.05694352159469
0.028904614771254857,-20.05694352159469
0.029901325625436057,-12.05694352159469
0.03089803647961726,0.9430564784053104
0.03189474733379846,8.94305647840531
0.032891458187979665,17.94305647840531
0.03388816904216087,26.94305647840531
0.03488487989634207,34.94305647840531
0.03588159075052327,37.94305647840531
0.03687830160470447,36.94305647840531
0.03787501245888567,32.94305647840531
0.038871723313066875,24.94305647840531
0.03986843416724808,14.94305647840531
0.04086514502142928,0.9430564784053104
0.04186185587561048,-12.05694352159469
0.042858566729791686,-18.05694352159469
0.04385527758397288,-36.05694352159469
0.044851988438154085,-40.05694352159469
0.04584869929233529,-44.05694352159469
0.04684541014651649,-42.05694352159469
0.04784212100069769,-31.05694352159469
0.048838831854878896,-24.05694352159469
0.0498355427090601,-13.05694352159469
0.0508322535632413,0.9430564784053104
0.051828964417422504,10.94305647840531
0.0528256752716037,18.94305647840531
0.0538223861257849,29.94305647840531
0.054819096979966106,34.94305647840531
0.05581580783414731,38.94305647840531
0.05681251868832851,38.94305647840531
0.057809229542509714,34.94305647840531
0.05880594039669092,28.94305647840531
0.05980265125087211,15.94305647840531
0.060799362105053316,1.9430564784053104
0.06179607295923452,-10.05694352159469
0.06279278381341573,-15.05694352159469
0.06378949466759692,-34.05694352159469
0.06478620552177812,-40.05694352159469
0.06578291637595933,-44.05694352159469
0.06677962723014053,-42.05694352159469
0.06777633808432174,-29.05694352159469
0.06877304893850293,-20.05694352159469
0.06976975979268414,-8.05694352159469
0.07076647064686534,5.94305647840531
0.07176318150104655,11.94305647840531
0.07275989235522774,20.94305647840531
0.07375660320940894,33.94305647840531
0.07475331406359015,35.94305647840531
0.07575002491777134,35.94305647840531
0.07674673577195255,37.94305647840531
0.07774344662613375,34.94305647840531
0.07874015748031496,24.94305647840531
0.07973686833449616,12.94305647840531
0.08073357918867735,0.9430564784053104
0.08173029004285856,-11.05694352159469
0.08272700089703976,-20.05694352159469
0.08372371175122097,-36.05694352159469
0.08472042260540216,-41.05694352159469
0.08571713345958337,-43.05694352159469
0.08671384431376457,-40.05694352159469
0.08771055516794576,-30.05694352159469
0.08870726602212697,-19.05694352159469
0.08970397687630817,-7.05694352159469
0.09070068773048938,3.9430564784053104
0.09169739858467058,12.94305647840531
0.09269410943885178,18.94305647840531
0.09369082029303298,32.94305647840531
0.09468753114721419,37.94305647840531
0.09568424200139539,35.94305647840531
0.09668095285557658,41.94305647840531
0.09767766370975779,33.94305647840531
0.09867437456393899,24.94305647840531
0.0996710854181202,13.94305647840531
0.1006677962723014,-0.05694352159468963
0.1016645071264826,-13.05694352159469
0.1026612179806638,-21.05694352159469
0.10365792883484501,-35.05694352159469
0.1046546396890262,-40.05694352159469
0.1056513505432074,-43.05694352159469
0.10664806139738861,-40.05694352159469
0.1076447722515698,-29.05694352159469
0.10864148310575102,-20.05694352159469
0.10963819395993221,-7.05694352159469
0.11063490481411342,3.9430564784053104
0.11163161566829462,12.94305647840531
0.11262832652247581,18.94305647840531
0.11362503737665702,31.94305647840531
0.11462174823083822,35.94305647840531
0.11561845908501943,36.94305647840531
0.11661516993920062,38.94305647840531
0.11761188079338183,32.94305647840531
0.11860859164756303,24.94305647840531
0.11960530250174423,16.94305647840531
0.12060201335592544,-0.05694352159468963
0.12159872421010663,-14.05694352159469
0.12259543506428784,-20.05694352159469
0.12359214591846904,-34.05694352159469
0.12458885677265025,-39.05694352159469
0.12558556762683146,-44.05694352159469
0.12658227848101264,-44.05694352159469
0.12757898933519385,-29.05694352159469
0.12857570018937506,-24.05694352159469
0.12957241104355624,-8.05694352159469
0.13056912189773745,4.94305647840531
0.13156583275191866,11.94305647840531
0.13256254360609987,18.94305647840531
0.13355925446028105,32.94305647840531
0.13455596531446226,35.94305647840531
0.13555267616864347,34.94305647840531
0.13654938702282465,37.94305647840531
0.13754609787700586,35.94305647840531
0.13854280873118707,27.94305647840531
0.13953951958536828,18.94305647840531
0.14053623043954946,4.94305647840531
0.14153294129373067,-8.05694352159469
0.14252965214791188,-15.05694352159469
0.1435263630020931,-32.05694352159469
0.14452307385627428,-38.05694352159469
0.14551978471045549,-45.05694352159469
0.1465164955646367,-39.05694352159469
0.14751320641881788,-26.05694352159469
0.1485099172729991,-21.05694352159469
0.1495066281271803,-8.05694352159469
0.1505033389813615,1.9430564784053104
0.1515000498355427,12.94305647840531
0.1524967606897239,19.94305647840531
0.1534934715439051,31.94305647840531
0.1544901823980863,35.94305647840531
0.1554868932522675,35.94305647840531
0.1564836041064487,35.94305647840531
0.15748031496062992,33.94305647840531
0.1584770258148111,28.94305647840531
0.1594737366689923,16.94305647840531
0.16047044752317352,0.9430564784053104
0.1614671583773547,-10.05694352159469
0.1624638692315359,-16.05694352159469
0.16346058008571712,-35.05694352159469
0.16445729093989833,-42.05694352159469
0.1654540017940795,-45.05694352159469
0.16645071264826072,-38.05694352159469
0.16744742350244193,-30.05694352159469
0.16844413435662312,-19.05694352159469
0.16944084521080433,-7.05694352159469
0.17043755606498553,3.9430564784053104
0.17143426691916674,11.94305647840531
0.17243097777334793,16.94305647840531
0.17342768862752914,32.94305647840531
0.17442439948171035,36.94305647840531
0.17542111033589153,35.94305647840531
0.17641782119007274,37.94305647840531
0.17741453204425395,32.94305647840531
0.17841124289843516,27.94305647840531
0.17940795375261634,16.94305647840531
0.18040466460679755,2.9430564784053104
0.18140137546097876,-8.05694352159469
0.18239808631515997,-15.05694352159469
0.18339479716934115,-35.05694352159469
0.18439150802352236,-40.05694352159469
0.18538821887770357,-41.05694352159469
0.18638492973188475,-38.05694352159469
0.18738164058606596,-29.05694352159469
0.18837835144024717,-20.05694352159469
0.18937506229442838,-9.05694352159469
0.19037177314860956,3.9430564784053104
0.19136848400279077,11.94305647840531
0.19236519485697198,16.94305647840531
0.19336190571115316,29.94305647840531
0.19435861656533437,32.94305647840531
0.19535532741951558,33.94305647840531
0.1963520382736968,35.94305647840531
0.19734874912787798,31.94305647840531
0.19834545998205919,22.94305647840531
0.1993421708362404,13.94305647840531
0.20033888169042158,-3.0569435215946896
0.2013355925446028,-16.05694352159469
0.202332303398784,-21.05694352159469
0.2033290142529652,-39.05694352159469
0.2043257251071464,-45.05694352159469
0.2053224359613276,-45.05694352159469
0.2063191468155088,-43.05694352159469
0.20731585766969002,-33.05694352159469
0.2083125685238712,-22.05694352159469
0.2093092793780524,-10.05694352159469
0.21030599023223362,4.94305647840531
0.2113027010864148,12.94305647840531
0.212299411940596,19.94305647840531
0.21329612279477722,29.94305647840531
0.21429283364895843,35.94305647840531
0.2152895445031396,34.94305647840531
0.21628625535732082,38.94305647840531
0.21728296621150203,34.94305647840531
0.21827967706568321,28.94305647840531
0.21927638791986442,16.94305647840531
0.22027309877404563,-0.05694352159468963
0.22126980962822684,-11.05694352159469
0.22226652048240803,-19.05694352159469
0.22326323133658924,-34.05694352159469
0.22425994219077044,-40.05694352159469
0.22525665304495163,-41.05694352159469
0.22625336389913284,-39.05694352159469
0.22725007475331405,-29.05694352159469
0.22824678560749526,-21.05694352159469
0.22924349646167644,-10.05694352159469
0.23024020731585765,4.94305647840531
0.23123691817003886,12.94305647840531
0.23223362902422004,19.94305647840531
0.23323033987840125,30.94305647840531
0.23422705073258246,35.94305647840531
0.23522376158676367,34.94305647840531
0.23622047244094485,36.94305647840531
0.23721718329512606,31.94305647840531
0.23821389414930727,25.94305647840531
0.23921060500348845,12.94305647840531
0.24020731585766966,-1.0569435215946896
0.24120402671185087,-13.05694352159469
0.24220073756603208,-17.05694352159469
0.24319744842021326,-35.05694352159469
0.24419415927439447,-44.05694352159469
0.24519087012857568,-44.05694352159469
0.2461875809827569,-40.05694352159469
0.24718429183693807,-28.05694352159469
0.24818100269111928,-20.05694352159469
0.2491777135453005,-12.05694352159469
0.2501744243994817,1.9430564784053104
0.2511711352536629,11.94305647840531
0.2521678461078441,16.94305647840531
0.2531645569620253,28.94305647840531
0.2541612678162065,36.94305647840531
0.2551579786703877,34.94305647840531
0.2561546895245689,34.94305647840531
0.2571514003787501,30.94305647840531
0.2581481112329313,22.94305647840531
0.2591448220871125,14.94305647840531
0.2601415329412937,0.9430564784053104
0.2611382437954749,-12.05694352159469
0.26213495464965614,-21.05694352159469
0.2631316655038373,-38.05694352159469
0.2641283763580185,-43.05694352159469
0.26512508721219974,-44.05694352159469
0.2661217980663809,-42.05694352159469
0.2671185089205621,-29.05694352159469
0.26811521977474334,-21.05694352159469
0.2691119306289245,-7.05694352159469
0.2701086414831057,2.9430564784053104
0.27110535233728694,11.94305647840531
0.2721020631914681,18.94305647840531
0.2730987740456493,28.94305647840531
0.27409548489983054,34.94305647840531
0.2750921957540117,34.94305647840531
0.27608890660819296,39.94305647840531
0.27708561746237415,34.94305647840531
0.2780823283165553,25.94305647840531
0.27907903917073656,16.94305647840531
0.28007575002491775,0.9430564784053104
0.28107246087909893,-12.05694352159469
0.28206917173328017,-20.05694352159469
0.28306588258746135,-38.05694352159469
0.28406259344164253,-44.05694352159469
0.28505930429582377,-47.05694352159469
0.28605601515000495,-40.05694352159469
0.2870527260041862,-31.05694352159469
0.28804943685836737,-21.05694352159469
0.28904614771254855,-9.05694352159469
0.2900428585667298,2.9430564784053104
0.29103956942091097,11.94305647840531
0.29203628027509215,17.94305647840531
0.2930329911292734,27.94305647840531
0.29402970198345457,33.94305647840531
0.29502641283763575,34.94305647840531
0.296023123691817,36.94305647840531
0.2970198345459982,32.94305647840531
0.29801654540017936,27.94305647840531
0.2990132562543606,15.94305647840531
0.3000099671085418,0.9430564784053104
0.301006677962723,-9.05694352159469
0.3020033888169042,-17.05694352159469
0.3030000996710854,-36.05694352159469
0.3039968105252666,-42.05694352159469
0.3049935213794478,-43.05694352159469
0.305990232233629,-41.05694352159469
0.3069869430878102,-31.05694352159469
0.3079836539419914,-23.05694352159469
0.3089803647961726,-10.05694352159469
0.3099770756503538,3.9430564784053104
0.310973786504535,13.94305647840531
0.3119704973587162,19.94305647840531
0.3129672082128974,31.94305647840531
0.3139639190670786,34.94305647840531
0.31496062992125984,35.94305647840531
0.315957340775441,37.94305647840531
0.3169540516296222,32.94305647840531
0.31795076248380344,25.94305647840531
0.3189474733379846,14.94305647840531
0.3199441841921658,-2.0569435215946896
0.32094089504634704,-12.05694352159469
0.3219376059005282,-19.05694352159469
0.3229343167547094,-36.05694352159469
0.32393102760889064,-42.05694352159469
0.3249277384630718,-45.05694352159469
0.32592444931725306,-38.05694352159469
0.32692116017143424,-27.05694352159469
0.3279178710256154,-18.05694352159469
0.32891458187979666,-8.05694352159469
0.32991129273397785,1.9430564784053104
0.330908003588159,8.94305647840531
0.33190471444234027,15.94305647840531
0.33290142529652145,29.94305647840531
0.33389813615070263,36.94305647840531
0.33489484700488387,38.94305647840531
0.33589155785906505,37.94305647840531
0.33688826871324623,34.94305647840531
0.33788497956742747,27.94305647840531
0.33888169042160865,15.94305647840531
0.3398784012757899,-3.0569435215946896
0.34087511212997107,-11.05694352159469
0.34187182298415225,-20.05694352159469
0.3428685338383335,-37.05694352159469
0.34386524469251467,-43.05694352159469
0.34486195554669585,-42.05694352159469
0.3458586664008771,-39.05694352159469
0.3468553772550583,-27.05694352159469
0.34785208810923945,-19.05694352159469
0.3488487989634207,-7.05694352159469
0.3498455098176019,4.94305647840531
0.35084222067178306,14.94305647840531
0.3518389315259643,23.94305647840531
0.3528356423801455,31.94305647840531
0.3538323532343267,37.94305647840531
0.3548290640885079,36.94305647840531
0.3558257749426891,37.94305647840531
0.3568224857968703,31.94305647840531
0.3578191966510515,24.94305647840531
0.3588159075052327,14.94305647840531
0.3598126183594139,-1.0569435215946896
0.3608093292135951,-11.05694352159469
0.3618060400677763,-21.05694352159469
0.3628027509219575,-40.05694352159469
0.3637994617761387,-42.05694352159469
0.36479617263031994,-45.05694352159469
0.3657928834845011,-39.05694352159469
0.3667895943386823,-30.05694352159469
0.36778630519286354,-18.05694352159469
0.3687830160470447,-10.05694352159469
0.3697797269012259,4.94305647840531
0.37077643775540714,11.94305647840531
0.3717731486095883,19.94305647840531
0.3727698594637695,30.94305647840531
0.37376657031795074,36.94305647840531
0.3747632811721319,36.94305647840531
0.3757599920263131,35.94305647840531
0.37675670288049434,31.94305647840531
0.3777534137346755,24.94305647840531
0.37875012458885676,16.94305647840531
0.37974683544303794,-1.0569435215946896
0.3807435462972191,-12.05694352159469
0.38174025715140036,-20.05694352159469
0.38273696800558155,-38.05694352159469
0.38373367885976273,-40.05694352159469
0.38473038971394397,-44.05694352159469
0.38572710056812515,-40.05694352159469
0.38672381142230633,-28.05694352159469
0.38772052227648757,-18.05694352159469
0.38871723313066875,-5.05694352159469
0.38971394398485,7.94305647840531
0.39071065483903117,14.94305647840531
0.39170736569321235,19.94305647840531
0.3927040765473936,33.94305647840531
0.39370078740157477,37.94305647840531
0.39469749825575595,35.94305647840531
0.3956942091099372,35.94305647840531
0.39669091996411837,30.94305647840531
0.39768763081829955,22.94305647840531
0.3986843416724808,15.94305647840531
0.399681052526662,-0.05694352159468963
0.40067776338084315,-13.05694352159469
0.4016744742350244,-20.05694352159469
0.4026711850892056,-38.05694352159469
0.4036678959433868,-41.05694352159469
0.404664606797568,-44.05694352159469
0.4056613176517492,-39.05694352159469
0.4066580285059304,-28.05694352159469
0.4076547393601116,-21.05694352159469
0.4086514502142928,-10.05694352159469
0.409648161068474,4.94305647840531
0.4106448719226552,13.94305647840531
0.4116415827768364,19.94305647840531
0.4126382936310176,30.94305647840531
0.4136350044851988,36.94305647840531
0.41463171533938004,39.94305647840531
0.4156284261935612,39.94305647840531
0.4166251370477424,32.94305647840531
0.41762184790192364,26.94305647840531
0.4186185587561048,13.94305647840531
0.419615269610286,-2.0569435215946896
0.42061198046446724,-11.05694352159469
0.4216086913186484,-20.05694352159469
0.4226054021728296,-36.05694352159469
0.42360211302701084,-44.05694352159469
0.424598823881192,-44.05694352159469
0.4255955347353732,-40.05694352159469
0.42659224558955444,-27.05694352159469
0.4275889564437356,-19.05694352159469
0.42858566729791686,-7.05694352159469
0.42958237815209804,4.94305647840531
0.4305790890062792,13.94305647840531
0.43157579986046046,16.94305647840531
0.43257251071464164,30.94305647840531
0.4335692215688228,34.94305647840531
0.43456593242300406,34.94305647840531
0.43556264327718525,37.94305647840531
0.43655935413136643,31.94305647840531
0.43755606498554767,24.94305647840531
0.43855277583972885,14.94305647840531
0.43954948669391003,-0.05694352159468963
0.44054619754809127,-15.05694352159469
0.44154290840227245,-21.05694352159469
0.4425396192564537,-36.05694352159469
0.44353633011063487,-43.05694352159469
0.44453304096481605,-42.05694352159469
0.4455297518189973,-41.05694352159469
0.44652646267317847,-29.05694352159469
0.44752317352735965,-21.05694352159469
0.4485198843815409,-9.05694352159469
0.44951659523572207,2.9430564784053104
0.45051330608990325,14.94305647840531
0.4515100169440845,19.94305647840531
0.4525067277982657,28.94305647840531
0.4535034386524469,37.94305647840531
0.4545001495066281,36.94305647840531
0.4554968603608093,39.94305647840531
0.4564935712149905,31.94305647840531
0.4574902820691717,26.94305647840531
0.4584869929233529,14.94305647840531
0.4594837037775341,-0.05694352159468963
0.4604804146317153,-14.05694352159469
0.4614771254858965,-20.05694352159469
0.4624738363400777,-38.05694352159469
0.4634705471942589,-44.05694352159469
0.4644672580484401,-43.05694352159469
0.4654639689026213,-40.05694352159469
0.4664606797568025,-29.05694352159469
0.46745739061098374,-18.05694352159469
0.4684541014651649,-10.05694352159469
0.4694508123193461,3.9430564784053104
0.47044752317352734,13.94305647840531
0.4714442340277085,21.94305647840531
0.4724409448818897,32.94305647840531
0.47343765573607094,35.94305647840531
0.4744343665902521,36.94305647840531
0.4754310774444333,36.94305647840531
0.47642778829861454,31.94305647840531
0.4774244991527957,25.94305647840531
0.4784212100069769,12.94305647840531
0.47941792086115814,-0.05694352159468963
0.4804146317153393,-13.05694352159469
0.48141134256952056,-21.05694352159469
0.48240805342370174,-36.05694352159469
0.4834047642778829,-44.05694352159469
0.48440147513206416,-43.05694352159469
0.48539818598624535,-37.05694352159469
0.4863948968404265,-27.05694352159469
0.48739160769460776,-19.05694352159469
0.48838831854878895,-9.05694352159469
0.48938502940297013,5.94305647840531
0.49038174025715137,13.94305647840531
0.49137845111133255,19.94305647840531
0.4923751619655138,28.94305647840531
0.49337187281969497,32.94305647840531
0.49436858367387615,32.94305647840531
0.4953652945280574,35.94305647840531
0.49636200538223857,31.94305647840531
0.49735871623641975,24.94305647840531
0.498355427090601,11.94305647840531
0.49935213794478217,-4.05694352159469
0.5003488487989634,-12.05694352159469
0.5013455596531445,-20.05694352159469
0.5023422705073258,-38.05694352159469
0.503338981361507,-44.05694352159469
0.5043356922156882,-42.05694352159469
0.5053324030698694,-39.05694352159469
0.5063291139240506,-30.05694352159469
0.5073258247782317,-20.05694352159469
0.508322535632413,-9.05694352159469
0.5093192464865942,4.94305647840531
0.5103159573407754,13.94305647840531
0.5113126681949566,18.94305647840531
0.5123093790491378,32.94305647840531
0.513306089903319,35.94305647840531
0.5143028007575002,35.94305647840531
0.5152995116116814,36.94305647840531
0.5162962224658626,31.94305647840531
0.5172929333200438,26.94305647840531
0.518289644174225,14.94305647840531
0.5192863550284063,-1.0569435215946896
0.5202830658825874,-12.05694352159469
0.5212797767367686,-20.05694352159469
0.5222764875909498,-35.05694352159469
0.523273198445131,-42.05694352159469
0.5242699092993123,-43.05694352159469
0.5252666201534935,-37.05694352159469
0.5262633310076746,-27.05694352159469
0.5272600418618558,-18.05694352159469
0.528256752716037,-6.05694352159469
0.5292534635702182,3.9430564784053104
0.5302501744243995,16.94305647840531
0.5312468852785807,24.94305647840531
0.5322435961327618,33.94305647840531
0.533240306986943,38.94305647840531
0.5342370178411242,35.94305647840531
0.5352337286953054,35.94305647840531
0.5362304395494867,29.94305647840531
0.5372271504036679,23.94305647840531
0.538223861257849,13.94305647840531
0.5392205721120302,-0.05694352159468963
0.5402172829662114,-12.05694352159469
0.5412139938203927,-24.05694352159469
0.5422107046745739,-39.05694352159469
0.5432074155287551,-44.05694352159469
0.5442041263829362,-44.05694352159469
0.5452008372371174,-41.05694352159469
0.5461975480912986,-27.05694352159469
0.5471942589454799,-19.05694352159469
0.5481909697996611,-8.05694352159469
0.5491876806538423,5.94305647840531
0.5501843915080235,11.94305647840531
0.5511811023622046,21.94305647840531
0.5521778132163859,29.94305647840531
0.5531745240705671,35.94305647840531
0.5541712349247483,34.94305647840531
0.5551679457789295,37.94305647840531
0.5561646566331107,32.94305647840531
0.5571613674872918,23.94305647840531
0.5581580783414731,14.94305647840531
0.5591547891956543,-3.0569435215946896
0.5601515000498355,-12.05694352159469
0.5611482109040167,-20.05694352159469
0.5621449217581979,-36.05694352159469
0.5631416326123792,-42.05694352159469
0.5641383434665603,-42.05694352159469
0.5651350543207415,-40.05694352159469
0.5661317651749227,-26.05694352159469
0.5671284760291039,-15.05694352159469
0.5681251868832851,-4.05694352159469
0.5691218977374664,5.94305647840531
0.5701186085916475,15.94305647840531
0.5711153194458287,21.94305647840531
0.5721120303000099,32.94305647840531
0.5731087411541911,36.94305647840531
0.5741054520083724,35.94305647840531
0.5751021628625536,36.94305647840531
0.5760988737167347,30.94305647840531
0.5770955845709159,21.94305647840531
0.5780922954250971,11.94305647840531
0.5790890062792783,-3.0569435215946896
0.5800857171334596,-12.05694352159469
0.5810824279876408,-22.05694352159469
0.5820791388418219,-35.05694352159469
0.5830758496960031,-40.05694352159469
0.5840725605501843,-43.05694352159469
0.5850692714043655,-41.05694352159469
0.5860659822585468,-29.05694352159469
0.587062693112728,-17.05694352159469
0.5880594039669091,-6.05694352159469
0.5890561148210903,7.94305647840531
0.5900528256752715,12.94305647840531
0.5910495365294528,21.94305647840531
0.592046247383634,31.94305647840531
0.5930429582378152,36.94305647840531
0.5940396690919963,37.94305647840531
0.5950363799461775,35.94305647840531
0.5960330908003587,32.94305647840531
0.59702980165454,22.94305647840531
0.5980265125087212,11.94305647840531
0.5990232233629024,-2.0569435215946896
0.6000199342170836,-14.05694352159469
0.6010166450712647,-21.05694352159469
0.602013355925446,-39.05694352159469
0.6030100667796272,-42.05694352159469
0.6040067776338084,-47.05694352159469
0.6050034884879896,-43.05694352159469
0.6060001993421708,-32.05694352159469
0.6069969101963519,-21.05694352159469
0.6079936210505332,-9.05694352159469
0.6089903319047144,2.9430564784053104
0.6099870427588956,13.94305647840531
0.6109837536130768,19.94305647840531
0.611980464467258,32.94305647840531
0.6129771753214392,35.94305647840531
0.6139738861756204,34.94305647840531
0.6149705970298016,36.94305647840531
0.6159673078839828,35.94305647840531
0.616964018738164,27.94305647840531
0.6179607295923452,13.94305647840531
0.6189574404465265,-3.0569435215946896
0.6199541513007076,-10.05694352159469
0.6209508621548888,-21.05694352159469
0.62194757300907,-38.05694352159469
0.6229442838632512,-42.05694352159469
0.6239409947174324,-45.05694352159469
0.6249377055716137,-40.05694352159469
0.6259344164257948,-25.05694352159469
0.626931127279976,-18.05694352159469
0.6279278381341572,-6.05694352159469
0.6289245489883384,3.9430564784053104
0.6299212598425197,11.94305647840531
0.6309179706967009,19.94305647840531
0.631914681550882,32.94305647840531
0.6329113924050632,36.94305647840531
0.6339081032592444,36.94305647840531
0.6349048141134256,39.94305647840531
0.6359015249676069,32.94305647840531
0.6368982358217881,25.94305647840531
0.6378949466759692,15.94305647840531
0.6388916575301504,-4.05694352159469
0.6398883683843316,-14.05694352159469
0.6408850792385129,-23.05694352159469
0.6418817900926941,-37.05694352159469
0.6428785009468753,-44.05694352159469
0.6438752118010564,-45.05694352159469
0.6448719226552376,-40.05694352159469
0.6458686335094188,-28.05694352159469
0.6468653443636001,-17.05694352159469
0.6478620552177813,-7.05694352159469
0.6488587660719625,4.94305647840531
0.6498554769261436,15.94305647840531
0.6508521877803248,18.94305647840531
0.6518488986345061,30.94305647840531
0.6528456094886873,35.94305647840531
0.6538423203428685,34.94305647840531
0.6548390311970497,37.94305647840531
0.6558357420512309,33.94305647840531
0.656832452905412,26.94305647840531
0.6578291637595933,11.94305647840531
0.6588258746137745,-1.0569435215946896
0.6598225854679557,-11.05694352159469
0.6608192963221369,-20.05694352159469
0.661816007176318,-37.05694352159469
0.6628127180304992,-44.05694352159469
0.6638094288846805,-43.05694352159469
0.6648061397388617,-39.05694352159469
0.6658028505930429,-26.05694352159469
0.6667995614472241,-20.05694352159469
0.6677962723014053,-9.05694352159469
0.6687929831555866,5.94305647840531
0.6697896940097677,12.94305647840531
0.6707864048639489,19.94305647840531
0.6717831157181301,32.94305647840531
0.6727798265723113,33.94305647840531
0.6737765374264925,35.94305647840531
0.6747732482806738,38.94305647840531
0.6757699591348549,29.94305647840531
0.6767666699890361,23.94305647840531
0.6777633808432173,15.94305647840531
0.6787600916973985,-2.0569435215946896
0.6797568025515798,-11.05694352159469
0.680753513405761,-23.05694352159469
0.6817502242599421,-36.05694352159469
0.6827469351141233,-43.05694352159469
0.6837436459683045,-44.05694352159469
0.6847403568224857,-39.05694352159469
0.685737067676667,-28.05694352159469
0.6867337785308482,-18.05694352159469
0.6877304893850293,-5.05694352159469
0.6887272002392105,4.94305647840531
0.6897239110933917,12.94305647840531
0.690720621947573,20.94305647840531
0.6917173328017542,32.94305647840531
0.6927140436559354,34.94305647840531
0.6937107545101165,32.94305647840531
0.6947074653642977,35.94305647840531
0.6957041762184789,30.94305647840531
0.6967008870726602,23.94305647840531
0.6976975979268414,13.94305647840531
0.6986943087810226,-2.0569435215946896
0.6996910196352037,-15.05694352159469
0.7006877304893849,-24.05694352159469
0.7016844413435661,-40.05694352159469
0.7026811521977474,-43.05694352159469
0.7036778630519286,-46.05694352159469
0.7046745739061098,-41.05694352159469
0.705671284760291,-28.05694352159469
0.7066679956144721,-18.05694352159469
0.7076647064686534,-7.05694352159469
0.7086614173228346,5.94305647840531
0.7096581281770158,13.94305647840531
0.710654839031197,22.94305647840531
0.7116515498853782,30.94305647840531
0.7126482607395593,35.94305647840531
0.7136449715937406,35.94305647840531
0.7146416824479218,35.94305647840531
0.715638393302103,29.94305647840531
0.7166351041562842,24.94305647840531
0.7176318150104654,12.94305647840531
0.7186285258646467,-3.0569435215946896
0.7196252367188278,-12.05694352159469
0.720621947573009,-23.05694352159469
0.7216186584271902,-37.05694352159469
0.7226153692813714,-41.05694352159469
0.7236120801355526,-43.05694352159469
0.7246087909897339,-39.05694352159469
0.725605501843915,-25.05694352159469
0.7266022126980962,-17.05694352159469
0.7275989235522774,-8.05694352159469
0.7285956344064586,6.94305647840531
0.7295923452606399,13.94305647840531
0.7305890561148211,18.94305647840531
0.7315857669690022,27.94305647840531
0.7325824778231834,34.94305647840531
0.7335791886773646,32.94305647840531
0.7345758995315458,36.94305647840531
0.7355726103857271,32.94305647840531
0.7365693212399083,27.94305647840531
0.7375660320940894,13.94305647840531
0.7385627429482706,-1.0569435215946896
0.7395594538024518,-11.05694352159469
0.7405561646566331,-21.05694352159469
0.7415528755108143,-37.05694352159469
0.7425495863649955,-40.05694352159469
0.7435462972191766,-43.05694352159469
0.7445430080733578,-40.05694352159469
0.745539718927539,-29.05694352159469
0.7465364297817203,-19.05694352159469
0.7475331406359015,-5.05694352159469
0.7485298514900827,6.94305647840531
0.7495265623442638,13.94305647840531
0.750523273198445,21.94305647840531
0.7515199840526262,32.94305647840531
0.7525166949068075,36.94305647840531
0.7535134057609887,36.94305647840531
0.7545101166151699,34.94305647840531
0.755506827469351,29.94305647840531
0.7565035383235322,22.94305647840531
0.7575002491777135,11.94305647840531
0.7584969600318947,-3.0569435215946896
0.7594936708860759,-13.05694352159469
0.7604903817402571,-25.05694352159469
0.7614870925944383,-40.05694352159469
0.7624838034486194,-43.05694352159469
0.7634805143028007,-42.05694352159469
0.7644772251569819,-37.05694352159469
0.7654739360111631,-22.05694352159469
0.7664706468653443,-14.05694352159469
0.7674673577195255,-4.05694352159469
0.7684640685737067,7.94305647840531
0.7694607794278879,12.94305647840531
0.7704574902820691,22.94305647840531
0.7714542011362503,31.94305647840531
0.7724509119904315,35.94305647840531
0.7734476228446127,36.94305647840531
0.774444333698794,37.94305647840531
0.7754410445529751,31.94305647840531
0.7764377554071563,23.94305647840531
0.7774344662613375,14.94305647840531
0.7784311771155187,-2.0569435215946896
0.7794278879697,-11.05694352159469
0.7804245988238812,-20.05694352159469
0.7814213096780623,-37.05694352159469
0.7824180205322435,-44.05694352159469
0.7834147313864247,-42.05694352159469
0.7844114422406059,-40.05694352159469
0.7854081530947872,-29.05694352159469
0.7864048639489684,-18.05694352159469
0.7874015748031495,-8.05694352159469
0.7883982856573307,5.94305647840531
0.7893949965115119,13.94305647840531
0.7903917073656931,20.94305647840531
0.7913884182198744,32.94305647840531
0.7923851290740556,35.94305647840531
0.7933818399282367,34.94305647840531
0.7943785507824179,36.94305647840531
0.7953752616365991,29.94305647840531
0.7963719724907804,21.94305647840531
0.7973686833449616,11.94305647840531
0.7983653941991428,-5.05694352159469
0.799362105053324,-16.05694352159469
0.8003588159075051,-25.05694352159469
0.8013555267616863,-40.05694352159469
0.8023522376158676,-44.05694352159469
0.8033489484700488,-47.05694352159469
0.80434565932423,-40.05694352159469
0.8053423701784111,-27.05694352159469
0.8063390810325923,-16.05694352159469
0.8073357918867736,-3.0569435215946896
0.8083325027409548,8.94305647840531
0.809329213595136,18.94305647840531
0.8103259244493172,23.94305647840531
0.8113226353034984,32.94305647840531
0.8123193461576795,34.94305647840531
0.8133160570118608,37.94305647840531
0.814312767866042,37.94305647840531
0.8153094787202232,33.94305647840531
0.8163061895744044,25.94305647840531
0.8173029004285856,11.94305647840531
0.8182996112827668,-3.0569435215946896
0.819296322136948,-14.05694352159469
0.8202930329911292,-22.05694352159469
0.8212897438453104,-38.05694352159469
0.8222864546994916,-42.05694352159469
0.8232831655536728,-41.05694352159469
0.824279876407854,-38.05694352159469
0.8252765872620352,-25.05694352159469
0.8262732981162164,-16.05694352159469
0.8272700089703976,-3.0569435215946896
0.8282667198245788,6.94305647840531
0.8292634306787601,15.94305647840531
0.8302601415329413,21.94305647840531
0.8312568523871224,32.94305647840531
0.8322535632413036,37.94305647840531
0.8332502740954848,35.94305647840531
0.834246984949666,37.94305647840531
0.8352436958038473,31.94305647840531
0.8362404066580285,22.94305647840531
0.8372371175122096,11.94305647840531
0.8382338283663908,-4.05694352159469
0.839230539220572,-16.05694352159469
0.8402272500747532,-23.05694352159469
0.8412239609289345,-38.05694352159469
0.8422206717831157,-45.05694352159469
0.8432173826372968,-44.05694352159469
0.844214093491478,-39.05694352159469
0.8452108043456592,-27.05694352159469
0.8462075151998405,-17.05694352159469
0.8472042260540217,-7.05694352159469
0.8482009369082029,2.9430564784053104
0.849197647762384,13.94305647840531
0.8501943586165652,18.94305647840531
0.8511910694707464,29.94305647840531
0.8521877803249277,34.94305647840531
0.8531844911791089,35.94305647840531
0.8541812020332901,36.94305647840531
0.8551779128874712,29.94305647840531
0.8561746237416524,21.94305647840531
0.8571713345958337,11.94305647840531
0.8581680454500149,-6.05694352159469
0.8591647563041961,-15.05694352159469
0.8601614671583773,-24.05694352159469
0.8611581780125585,-40.05694352159469
0.8621548888667396,-47.05694352159469
0.8631515997209209,-44.05694352159469
0.8641483105751021,-39.05694352159469
0.8651450214292833,-27.05694352159469
0.8661417322834645,-18.05694352159469
0.8671384431376457,-7.05694352159469
0.868135153991827,5.94305647840531
0.8691318648460081,11.94305647840531
0.8701285757001893,21.94305647840531
0.8711252865543705,31.94305647840531
0.8721219974085517,35.94305647840531
0.8731187082627329,35.94305647840531
0.8741154191169141,37.94305647840531
0.8751121299710953,32.94305647840531
0.8761088408252765,22.94305647840531
0.8771055516794577,11.94305647840531
0.8781022625336389,-3.0569435215946896
0.8790989733878201,-12.05694352159469
0.8800956842420014,-22.05694352159469
0.8810923950961825,-39.05694352159469
0.8820891059503637,-44.05694352159469
0.8830858168045449,-41.05694352159469
0.8840825276587261,-39.05694352159469
0.8850792385129074,-24.05694352159469
0.8860759493670886,-16.05694352159469
0.8870726602212697,-2.0569435215946896
0.8880693710754509,11.94305647840531
0.8890660819296321,18.94305647840531
0.8900627927838133,27.94305647840531
0.8910595036379946,36.94305647840531
0.8920562144921758,39.94305647840531
0.8930529253463569,39.94305647840531
0.8940496362005381,39.94305647840531
0.8950463470547193,31.94305647840531
0.8960430579089006,26.94305647840531
0.8970397687630818,11.94305647840531
0.898036479617263,-5.05694352159469
0.8990331904714441,-13.05694352159469
0.9000299013256253,-22.05694352159469
0.9010266121798065,-39.05694352159469
0.9020233230339878,-43.05694352159469
0.903020033888169,-41.05694352159469
0.9040167447423502,-37.05694352159469
0.9050134555965313,-24.05694352159469
0.9060101664507125,-16.05694352159469
0.9070068773048938,-6.05694352159469
0.908003588159075,3.9430564784053104
0.9090002990132562,13.94305647840531
0.9099970098674374,19.94305647840531
0.9109937207216185,28.94305647840531
0.9119904315757997,34.94305647840531
0.912987142429981,32.94305647840531
0.9139838532841622,34.94305647840531
0.9149805641383434,27.94305647840531
0.9159772749925246,19.94305647840531
0.9169739858467058,10.94305647840531
0.9179706967008869,-4.05694352159469
0.9189674075550682,-15.05694352159469
0.9199641184092494,-25.05694352159469
0.9209608292634306,-39.05694352159469
0.9219575401176118,-43.05694352159469
0.922954250971793,-43.05694352159469
0.9239509618259742,-37.05694352159469
0.9249476726801554,-24.05694352159469
0.9259443835343366,-18.05694352159469
0.9269410943885178,-4.05694352159469
0.927937805242699,10.94305647840531
0.9289345160968802,17.94305647840531
0.9299312269510615,23.94305647840531
0.9309279378052426,32.94305647840531
0.9319246486594238,37.94305647840531
0.932921359513605,35.94305647840531
0.9339180703677862,38.94305647840531
0.9349147812219675,29.94305647840531
0.9359114920761487,22.94305647840531
0.9369082029303298,11.94305647840531
0.937904913784511,-3.0569435215946896
0.9389016246386922,-13.05694352159469
0.9398983354928734,-22.05694352159469
0.9408950463470547,-36.05694352159469
0.9418917572012359,-44.05694352159469
0.942888468055417,-43.05694352159469
0.9438851789095982,-39.05694352159469
0.9448818897637794,-25.05694352159469
0.9458786006179607,-19.05694352159469
0.9468753114721419,-8.05694352159469
0.9478720223263231,5.94305647840531
0.9488687331805042,15.94305647840531
0.9498654440346854,23.94305647840531
0.9508621548888666,32.94305647840531
0.9518588657430479,36.94305647840531
0.9528555765972291,38.94305647840531
0.9538522874514103,39.94305647840531
0.9548489983055914,29.94305647840531
0.9558457091597726,25.94305647840531
0.9568424200139538,11.94305647840531
0.9578391308681351,-4.05694352159469
0.9588358417223163,-14.05694352159469
0.9598325525764975,-20.05694352159469
0.9608292634306786,-35.05694352159469
0.9618259742848598,-43.05694352159469
0.9628226851390411,-42.05694352159469
0.9638193959932223,-37.05694352159469
0.9648161068474035,-24.05694352159469
0.9658128177015847,-16.05694352159469
0.9668095285557659,-4.05694352159469
0.967806239409947,8.94305647840531
0.9688029502641283,13.94305647840531
0.9697996611183095,22.94305647840531
0.9707963719724907,32.94305647840531
0.9717930828266719,35.94305647840531
0.972789793680853,35.94305647840531
0.9737865045350343,38.94305647840531
0.9747832153892155,32.94305647840531
0.9757799262433967,26.94305647840531
0.9767766370975779,13.94305647840531
0.9777733479517591,-4.05694352159469
0.9787700588059403,-15.05694352159469
0.9797667696601216,-25.05694352159469
0.9807634805143027,-35.05694352159469
0.9817601913684839,-42.05694352159469
0.9827569022226651,-42.05694352159469
0.9837536130768463,-36.05694352159469
0.9847503239310276,-25.05694352159469
0.9857470347852088,-18.05694352159469
0.9867437456393899,-7.05694352159469
0.9877404564935711,6.94305647840531
0.9887371673477523,14.94305647840531
0.9897338782019335,23.94305647840531
0.9907305890561148,33.94305647840531
0.991727299910296,36.94305647840531
0.9927240107644771,34.94305647840531
0.9937207216186583,35.94305647840531
0.9947174324728395,30.94305647840531
0.9957141433270208,20.94305647840531
0.996710854181202,9.94305647840531
0.9977075650353832,-4.05694352159469
0.9987042758895643,-13.05694352159469
0.9997009867437455,-23.05694352159469
1.0006976975979267,-41.05694352159469
1.001694408452108,-47.05694352159469
1.002691119306289,-44.05694352159469
1.0036878301604704,-39.05694352159469
1.0046845410146517,-26.05694352159469
1.0056812518688327,-17.05694352159469
1.006677962723014,-5.05694352159469
1.007674673577195,7.94305647840531
1.0086713844313764,15.94305647840531
1.0096680952855577,24.94305647840531
1.0106648061397387,35.94305647840531
1.01166151699392,36.94305647840531
1.0126582278481011,36.94305647840531
1.0136549387022824,37.94305647840531
1.0146516495564635,31.94305647840531
1.0156483604106448,23.94305647840531
1.016645071264826,12.94305647840531
1.0176417821190071,-5.05694352159469
1.0186384929731884,-15.05694352159469
1.0196352038273695,-24.05694352159469
1.0206319146815508,-40.05694352159469
1.021628625535732,-43.05694352159469
1.0226253363899132,-42.05694352159469
1.0236220472440944,-41.05694352159469
1.0246187580982755,-29.05694352159469
1.0256154689524568,-21.05694352159469
1.026612179806638,-9.05694352159469
1.0276088906608192,7.94305647840531
1.0286056015150005,17.94305647840531
1.0296023123691815,21.94305647840531
1.0305990232233628,32.94305647840531
1.031595734077544,34.94305647840531
1.0325924449317252,34.94305647840531
1.0335891557859065,36.94305647840531
1.0345858666400876,29.94305647840531
1.0355825774942689,20.94305647840531
1.03657928834845,9.94305647840531
1.0375759992026312,-5.05694352159469
1.0385727100568125,-16.05694352159469
1.0395694209109936,-24.05694352159469
1.0405661317651749,-41.05694352159469
1.041562842619356,-42.05694352159469
1.0425595534735372,-46.05694352159469
1.0435562643277185,-37.05694352159469
1.0445529751818996,-25.05694352159469
1.045549686036081,-17.05694352159469
1.046546396890262,-3.0569435215946896
1.0475431077444433,7.94305647840531
1.0485398185986246,15.94305647840531
1.0495365294528056,24.94305647840531
1.050533240306987,34.94305647840531
1.051529951161168,36.94305647840531
1.0525266620153493,34.94305647840531
1.0535233728695304,35.94305647840531
1.0545200837237116,30.94305647840531
1.055516794577893,23.94305647840531
1.056513505432074,12.94305647840531
1.0575102162862553,-3.0569435215946896
1.0585069271404364,-14.05694352159469
1.0595036379946177,-26.05694352159469
1.060500348848799,-41.05694352159469
1.06149705970298,-44.05694352159469
1.0624937705571613,-42.05694352159469
1.0634904814113424,-39.05694352159469
1.0644871922655237,-26.05694352159469
1.065483903119705,-20.05694352159469
1.066480613973886,-5.05694352159469
1.0674773248280673,9.94305647840531
1.0684740356822484,13.94305647840531
1.0694707465364297,22.94305647840531
1.0704674573906108,31.94305647840531
1.071464168244792,33.94305647840531
1.0724608790989734,34.94305647840531
1.0734575899531544,37.94305647840531
1.0744543008073357,30.94305647840531
1.0754510116615168,22.94305647840531
1.076447722515698,12.94305647840531
1.0774444333698794,-7.05694352159469
1.0784411442240605,-12.05694352159469
1.0794378550782417,-23.05694352159469
1.0804345659324228,-36.05694352159469
1.0814312767866041,-43.05694352159469
1.0824279876407854,-44.05694352159469
1.0834246984949665,-39.05694352159469
1.0844214093491478,-25.05694352159469
1.0854181202033288,-17.05694352159469
1.0864148310575101,-4.05694352159469
1.0874115419116914,7.94305647840531
1.0884082527658725,12.94305647840531
1.0894049636200538,19.94305647840531
1.0904016744742349,32.94305647840531
1.0913983853284162,35.94305647840531
1.0923950961825972,34.94305647840531
1.0933918070367785,35.94305647840531
1.0943885178909598,30.94305647840531
1.0953852287451409,20.94305647840531
1.0963819395993222,8.94305647840531
1.0973786504535032,-6.05694352159469
1.0983753613076845,-15.05694352159469
1.0993720721618658,-25.05694352159469
1.100368783016047,-40.05694352159469
1.1013654938702282,-45.05694352159469
1.1023622047244093,-41.05694352159469
1.1033589155785906,-37.05694352159469
1.1043556264327719,-23.05694352159469
1.105352337286953,-17.05694352159469
1.1063490481411342,-2.0569435215946896
1.1073457589953153,7.94305647840531
1.1083424698494966,17.94305647840531
1.1093391807036777,23.94305647840531
1.110335891557859,34.94305647840531
1.1113326024120402,35.94305647840531
1.1123293132662213,35.94305647840531
1.1133260241204026,37.94305647840531
1.1143227349745837,29.94305647840531
1.115319445828765,24.94305647840531
1.1163161566829463,11.94305647840531
1.1173128675371273,-3.0569435215946896
1.1183095783913086,-14.05694352159469
1.1193062892454897,-24.05694352159469
1.120303000099671,-36.05694352159469
1.1212997109538523,-43.05694352159469
1.1222964218080334,-45.05694352159469
1.1232931326622146,-38.05694352159469
1.1242898435163957,-25.05694352159469
1.125286554370577,-15.05694352159469
1.1262832652247583,-4.05694352159469
1.1272799760789394,6.94305647840531
1.1282766869331207,13.94305647840531
1.1292733977873017,24.94305647840531
1.130270108641483,32.94305647840531
1.131266819495664,37.94305647840531
1.1322635303498454,38.94305647840531
1.1332602412040267,37.94305647840531
1.1342569520582078,29.94305647840531
1.135253662912389,21.94305647840531
1.1362503737665701,9.94305647840531
1.1372470846207514,-4.05694352159469
1.1382437954749327,-14.05694352159469
1.1392405063291138,-25.05694352159469
1.140237217183295,-37.05694352159469
1.1412339280374761,-45.05694352159469
1.1422306388916574,-44.05694352159469
1.1432273497458387,-39.05694352159469
1.1442240606000198,-27.05694352159469
1.145220771454201,-18.05694352159469
1.1462174823083822,-5.05694352159469
1.1472141931625635,7.94305647840531
1.1482109040167447,16.94305647840531
1.1492076148709258,24.94305647840531
1.1502043257251071,32.94305647840531
1.1512010365792882,34.94305647840531
1.1521977474334695,32.94305647840531
1.1531944582876505,37.94305647840531
1.1541911691418318,28.94305647840531
1.1551878799960131,22.94305647840531
1.1561845908501942,8.94305647840531
1.1571813017043755,-6.05694352159469
1.1581780125585566,-13.05694352159469
1.1591747234127379,-23.05694352159469
1.1601714342669192,-37.05694352159469
1.1611681451211002,-43.05694352159469
1.1621648559752815,-42.05694352159469
1.1631615668294626,-37.05694352159469
1.1641582776836439,-25.05694352159469
1.1651549885378252,-15.05694352159469
1.1661516993920062,-4.05694352159469
1.1671484102461875,7.94305647840531
1.1681451211003686,13.94305647840531
1.16914183195455,22.94305647840531
1.170138542808731,29.94305647840531
1.1711352536629123,34.94305647840531
1.1721319645170936,36.94305647840531
1.1731286753712746,38.94305647840531
1.174125386225456,31.94305647840531
1.175122097079637,22.94305647840531
1.1761188079338183,8.94305647840531
1.1771155187879996,-4.05694352159469
1.1781122296421807,-13.05694352159469
1.179108940496362,-26.05694352159469
1.180105651350543,-39.05694352159469
1.1811023622047243,-43.05694352159469
1.1820990730589056,-44.05694352159469
1.1830957839130867,-39.05694352159469
1.184092494767268,-28.05694352159469
1.185089205621449,-19.05694352159469
1.1860859164756303,-6.05694352159469
1.1870826273298116,6.94305647840531
1.1880793381839927,12.94305647840531
1.189076049038174,22.94305647840531
1.190072759892355,32.94305647840531
1.1910694707465364,36.94305647840531
1.1920661816007174,35.94305647840531
1.1930628924548987,36.94305647840531
1.19405960330908,30.94305647840531
1.195056314163261,22.94305647840531
1.1960530250174424,11.94305647840531
1.1970497358716234,-4.05694352159469
1.1980464467258047,-15.05694352159469
1.199043157579986,-24.05694352159469
1.200039868434167,-39.05694352159469
1.2010365792883484,-45.05694352159469
1.2020332901425295,-43.05694352159469
1.2030300009967108,-38.05694352159469
1.204026711850892,-25.05694352159469
1.2050234227050731,-14.05694352159469
1.2060201335592544,-6.05694352159469
1.2070168444134355,7.94305647840531
1.2080135552676168,14.94305647840531
1.2090102661217978,22.94305647840531
1.2100069769759791,33.94305647840531
1.2110036878301604,39.94305647840531
1.2120003986843415,36.94305647840531
1.2129971095385228,38.94305647840531
1.2139938203927039,32.94305647840531
1.2149905312468852,23.94305647840531
1.2159872421010665,7.94305647840531
1.2169839529552475,-6.05694352159469
1.2179806638094288,-14.05694352159469
1.21897737466361,-26.05694352159469
1.2199740855177912,-39.05694352159469
1.2209707963719725,-43.05694352159469
1.2219675072261535,-44.05694352159469
1.2229642180803348,-38.05694352159469
1.223960928934516,-25.05694352159469
1.2249576397886972,-15.05694352159469
1.2259543506428785,-4.05694352159469
1.2269510614970596,7.94305647840531
1.2279477723512409,13.94305647840531
1.228944483205422,24.94305647840531
1.2299411940596032,35.94305647840531
1.2309379049137843,36.94305647840531
1.2319346157679656,34.94305647840531
1.2329313266221469,37.94305647840531
1.233928037476328,30.94305647840531
1.2349247483305092,22.94305647840531
1.2359214591846903,9.94305647840531
1.2369181700388716,-6.05694352159469
1.237914880893053,-11.05694352159469
1.238911591747234,-24.05694352159469
1.2399083026014153,-36.05694352159469
1.2409050134555963,-44.05694352159469
1.2419017243097776,-40.05694352159469
1.242898435163959,-34.05694352159469
1.24389514601814,-23.05694352159469
1.2448918568723213,-15.05694352159469
1.2458885677265024,-4.05694352159469
1.2468852785806837,9.94305647840531
1.2478819894348647,13.94305647840531
1.248878700289046,25.94305647840531
1.2498754111432273,32.94305647840531
1.2508721219974084,35.94305647840531
1.2518688328515897,35.94305647840531
1.2528655437057707,35.94305647840531
1.253862254559952,30.94305647840531
1.2548589654141333,21.94305647840531
1.2558556762683144,12.94305647840531
1.2568523871224957,-5.05694352159469
1.2578490979766768,-13.05694352159469
1.258845808830858,-26.05694352159469
1.2598425196850394,-37.05694352159469
1.2608392305392204,-44.05694352159469
1.2618359413934017,-43.05694352159469
1.2628326522475828,-36.05694352159469
1.263829363101764,-27.05694352159469
1.2648260739559454,-17.05694352159469
1.2658227848101264,-5.05694352159469
1.2668194956643077,7.94305647840531
1.2678162065184888,15.94305647840531
1.26881291737267,24.94305647840531
1.2698096282268512,32.94305647840531
1.2708063390810325,34.94305647840531
1.2718030499352138,33.94305647840531
1.2727997607893948,35.94305647840531
1.2737964716435761,29.94305647840531
1.2747931824977572,20.94305647840531
1.2757898933519385,9.94305647840531
1.2767866042061198,-5.05694352159469
1.2777833150603009,-13.05694352159469
1.2787800259144821,-26.05694352159469
1.2797767367686632,-37.05694352159469
1.2807734476228445,-44.05694352159469
1.2817701584770258,-44.05694352159469
1.2827668693312069,-36.05694352159469
1.2837635801853882,-25.05694352159469
1.2847602910395692,-17.05694352159469
1.2857570018937505,-2.0569435215946896
1.2867537127479316,10.94305647840531
1.287750423602113,16.94305647840531
1.2887471344562942,24.94305647840531
1.2897438453104753,32.94305647840531
1.2907405561646565,37.94305647840531
1.2917372670188376,35.94305647840531
1.292733977873019,34.94305647840531
1.2937306887272002,26.94305647840531
1.2947273995813813,20.94305647840531
1.2957241104355626,10.94305647840531
1.2967208212897436,-8.05694352159469
1.297717532143925,-15.05694352159469
1.2987142429981062,-26.05694352159469
1.2997109538522873,-42.05694352159469
1.3007076647064686,-45.05694352159469
1.3017043755606497,-44.05694352159469
1.302701086414831,-37.05694352159469
1.3036977972690122,-26.05694352159469
1.3046945081231933,-15.05694352159469
1.3056912189773746,-2.0569435215946896
1.3066879298315557,9.94305647840531
1.307684640685737,15.94305647840531
1.308681351539918,23.94305647840531
1.3096780623940993,33.94305647840531
1.3106747732482806,38.94305647840531
1.3116714841024617,35.94305647840531
1.312668194956643,34.94305647840531
1.313664905810824,31.94305647840531
1.3146616166650054,19.94305647840531
1.3156583275191867,11.94305647840531
1.3166550383733677,-6.05694352159469
1.317651749227549,-14.05694352159469
1.31864846008173,-26.05694352159469
1.3196451709359114,-37.05694352159469
1.3206418817900927,-44.05694352159469
1.3216385926442737,-41.05694352159469
1.322635303498455,-36.05694352159469
1.323632014352636,-25.05694352159469
1.3246287252068174,-13.05694352159469
1.3256254360609985,-3.0569435215946896
1.3266221469151798,7.94305647840531
1.327618857769361,13.94305647840531
1.3286155686235421,23.94305647840531
1.3296122794777234,32.94305647840531
1.3306089903319045,37.94305647840531
1.3316057011860858,35.94305647840531
1.332602412040267,35.94305647840531
1.3335991228944482,28.94305647840531
1.3345958337486294,20.94305647840531
1.3355925446028105,9.94305647840531
1.3365892554569918,-8.05694352159469
1.337585966311173,-15.05694352159469
1.3385826771653542,-27.05694352159469
1.3395793880195355,-37.05694352159469
1.3405760988737165,-41.05694352159469
1.3415728097278978,-43.05694352159469
1.3425695205820791,-35.05694352159469
1.3435662314362602,-24.05694352159469
1.3445629422904415,-17.05694352159469
1.3455596531446226,-3.0569435215946896
1.3465563639988039,7.94305647840531
1.347553074852985,16.94305647840531
1.3485497857071662,24.94305647840531
1.3495464965613475,33.94305647840531
1.3505432074155286,37.94305647840531
1.3515399182697099,34.94305647840531
1.352536629123891,38.94305647840531
1.3535333399780722,30.94305647840531
1.3545300508322535,21.94305647840531
1.3555267616864346,10.94305647840531
1.356523472540616,-4.05694352159469
1.357520183394797,-13.05694352159469
1.3585168942489783,-25.05694352159469
1.3595136051031596,-39.05694352159469
1.3605103159573406,-45.05694352159469
1.361507026811522,-44.05694352159469
1.362503737665703,-39.05694352159469
1.3635004485198843,-23.05694352159469
1.3644971593740653,-15.05694352159469
1.3654938702282466,-3.0569435215946896
1.366490581082428,7.94305647840531
1.367487291936609,13.94305647840531
1.3684840027907903,23.94305647840531
1.3694807136449714,32.94305647840531
1.3704774244991527,35.94305647840531
1.371474135353334,34.94305647840531
1.372470846207515,35.94305647840531
1.3734675570616963,30.94305647840531
1.3744642679158774,21.94305647840531
1.3754609787700587,7.94305647840531
1.37645768962424,-10.05694352159469
1.377454400478421,-16.05694352159469
1.3784511113326023,-24.05694352159469
1.3794478221867834,-39.05694352159469
1.3804445330409647,-42.05694352159469
1.381441243895146,-44.05694352159469
1.382437954749327,-36.05694352159469
1.3834346656035084,-22.05694352159469
1.3844313764576894,-14.05694352159469
1.3854280873118707,-2.0569435215946896
1.3864247981660518,9.94305647840531
1.387421509020233,14.94305647840531
1.3884182198744144,24.94305647840531
1.3894149307285955,32.94305647840531
1.3904116415827767,36.94305647840531
1.3914083524369578,37.94305647840531
1.3924050632911391,35.94305647840531
1.3934017741453204,28.94305647840531
1.3943984849995015,18.94305647840531
1.3953951958536828,7.94305647840531
1.3963919067078638,-7.05694352159469
1.3973886175620451,-15.05694352159469
1.3983853284162264,-27.05694352159469
1.3993820392704075,-38.05694352159469
1.4003787501245888,-43.05694352159469
1.4013754609787699,-41.05694352159469
1.4023721718329512,-33.05694352159469
1.4033688826871322,-22.05694352159469
1.4043655935413135,-11.05694352159469
1.4053623043954948,-2.0569435215946896
1.4063590152496759,8.94305647840531
1.4073557261038572,17.94305647840531
1.4083524369580382,23.94305647840531
1.4093491478122195,32.94305647840531
1.4103458586664008,36.94305647840531
1.411342569520582,35.94305647840531
1.4123392803747632,35.94305647840531
1.4133359912289443,31.94305647840531
1.4143327020831256,20.94305647840531
1.4153294129373069,8.94305647840531
1.416326123791488,-5.05694352159469
1.4173228346456692,-14.05694352159469
1.4183195454998503,-26.05694352159469
1.4193162563540316,-38.05694352159469
1.4203129672082129,-44.05694352159469
1.421309678062394,-43.05694352159469
1.4223063889165752,-36.05694352159469
1.4233030997707563,-24.05694352159469
1.4242998106249376,-14.05694352159469
1.4252965214791187,-2.0569435215946896
1.4262932323333,6.94305647840531
1.4272899431874813,17.94305647840531
1.4282866540416623,27.94305647840531
1.4292833648958436,34.94305647840531
1.4302800757500247,37.94305647840531
1.431276786604206,37.94305647840531
1.4322734974583873,35.94305647840531
1.4332702083125684,28.94305647840531
1.4342669191667496,20.94305647840531
1.4352636300209307,11.94305647840531
1.436260340875112,-4.05694352159469
1.4372570517292933,-15.05694352159469
1.4382537625834744,-27.05694352159469
1.4392504734376557,-38.05694352159469
1.4402471842918367,-43.05694352159469
1.441243895146018,-39.05694352159469
1.4422406060001993,-32.05694352159469
1.4432373168543804,-22.05694352159469
1.4442340277085617,-13.05694352159469
1.4452307385627428,-4.05694352159469
1.446227449416924,5.94305647840531
1.4472241602711051,12.94305647840531
1.4482208711252864,24.94305647840531
1.4492175819794677,32.94305647840531
1.4502142928336488,37.94305647840531
1.45121100368783,35.94305647840531
1.4522077145420111,36.94305647840531
1.4532044253961924,27.94305647840531
1.4542011362503737,20.94305647840531
1.4551978471045548,8.94305647840531
1.456194557958736,-6.05694352159469
1.4571912688129172,-17.05694352159469
1.4581879796670985,-27.05694352159469
1.4591846905212797,-37.05694352159469
1.4601814013754608,-45.05694352159469
1.4611781122296421,-44.05694352159469
1.4621748230838232,-36.05694352159469
1.4631715339380045,-25.05694352159469
1.4641682447921855,-14.05694352159469
1.4651649556463668,-3.0569435215946896
1.4661616665005481,7.94305647840531
1.4671583773547292,13.94305647840531
1.4681550882089105,21.94305647840531
1.4691517990630916,32.94305647840531
1.4701485099172729,33.94305647840531
1.4711452207714542,34.94305647840531
1.4721419316256352,34.94305647840531
1.4731386424798165,28.94305647840531
1.4741353533339976,17.94305647840531
1.4751320641881789,9.94305647840531
1.4761287750423602,-7.05694352159469
1.4771254858965412,-14.05694352159469
1.4781221967507225,-29.05694352159469
1.4791189076049036,-40.05694352159469
1.480115618459085,-45.05694352159469
1.4811123293132662,-44.05694352159469
1.4821090401674473,-38.05694352159469
1.4831057510216286,-27.05694352159469
1.4841024618758096,-19.05694352159469
1.485099172729991,-4.05694352159469
1.486095883584172,5.94305647840531
1.4870925944383533,12.94305647840531
1.4880893052925346,23.94305647840531
1.4890860161467157,30.94305647840531
1.490082727000897,36.94305647840531
1.491079437855078,35.94305647840531
1.4920761487092593,36.94305647840531
1.4930728595634406,28.94305647840531
1.4940695704176217,21.94305647840531
1.495066281271803,10.94305647840531
1.496062992125984,-5.05694352159469
1.4970597029801653,-13.05694352159469
1.4980564138343466,-24.05694352159469
1.4990531246885277,-37.05694352159469
1.500049835542709,-43.05694352159469
1.50104654639689,-43.05694352159469
1.5020432572510714,-34.05694352159469
1.5030399681052524,-24.05694352159469
1.5040366789594337,-15.05694352159469
1.505033389813615,-2.0569435215946896
1.506030100667796,11.94305647840531
1.5070268115219774,17.94305647840531
1.5080235223761584,26.94305647840531
1.5090202332303397,34.94305647840531
1.510016944084521,36.94305647840531
1.511013654938702,36.94305647840531
1.5120103657928834,34.94305647840531
1.5130070766470645,30.94305647840531
1.5140037875012458,20.94305647840531
1.515000498355427,10.94305647840531
1.5159972092096081,-6.05694352159469
1.5169939200637894,-12.05694352159469
1.5179906309179705,-24.05694352159469
1.5189873417721518,-37.05694352159469
1.519984052626333,-41.05694352159469
1.5209807634805141,-40.05694352159469
1.5219774743346954,-35.05694352159469
1.5229741851888765,-26.05694352159469
1.5239708960430578,-15.05694352159469
1.5249676068972389,-2.0569435215946896
1.5259643177514202,9.94305647840531
1.5269610286056015,18.94305647840531
1.5279577394597825,28.94305647840531
1.5289544503139638,37.94305647840531
1.529951161168145,38.94305647840531
1.5309478720223262,35.94305647840531
1.5319445828765075,39.94305647840531
1.5329412937306885,29.94305647840531
1.5339380045848698,22.94305647840531
1.534934715439051,7.94305647840531
1.5359314262932322,-6.05694352159469
1.5369281371474135,-15.05694352159469
1.5379248480015946,-27.05694352159469
1.5389215588557759,-39.05694352159469
1.539918269709957,-43.05694352159469
1.5409149805641382,-42.05694352159469
1.5419116914183193,-36.05694352159469
1.5429084022725006,-24.05694352159469
1.5439051131266819,-15.05694352159469
1.544901823980863,-5.05694352159469
1.5458985348350442,6.94305647840531
1.5468952456892253,17.94305647840531
1.5478919565434066,24.94305647840531
1.548888667397588,31.94305647840531
1.549885378251769,34.94305647840531
1.5508820891059503,35.94305647840531
1.5518787999601313,36.94305647840531
1.5528755108143126,28.94305647840531
1.553872221668494,19.94305647840531
1.554868932522675,5.94305647840531
1.5558656433768563,-10.05694352159469
1.5568623542310374,-14.05694352159469
1.5578590650852187,-27.05694352159469
1.5588557759394,-41.05694352159469
1.559852486793581,-45.05694352159469
1.5608491976477623,-47.05694352159469
1.5618459085019434,-38.05694352159469
1.5628426193561247,-26.05694352159469
1.5638393302103057,-14.05694352159469
1.564836041064487,-2.0569435215946896
1.5658327519186683,9.94305647840531
1.5668294627728494,13.94305647840531
1.5678261736270307,28.94305647840531
1.5688228844812118,33.94305647840531
1.569819595335393,36.94305647840531
1.5708163061895744,35.94305647840531
1.5718130170437554,37.94305647840531
1.5728097278979367,29.94305647840531
1.5738064387521178,19.94305647840531
1.574803149606299,7.94305647840531
1.5757998604604804,-4.05694352159469
1.5767965713146614,-14.05694352159469
1.5777932821688427,-28.05694352159469
1.5787899930230238,-40.05694352159469
1.579786703877205,-44.05694352159469
1.5807834147313862,-44.05694352159469
1.5817801255855675,-36.05694352159469
1.5827768364397488,-27.05694352159469
1.5837735472939298,-17.05694352159469
1.5847702581481111,-2.0569435215946896
1.5857669690022922,7.94305647840531
1.5867636798564735,16.94305647840531
1.5877603907106548,24.94305647840531
1.5887571015648358,32.94305647840531
1.5897538124190171,35.94305647840531
1.5907505232731982,32.94305647840531
1.5917472341273795,33.94305647840531
1.5927439449815608,28.94305647840531
1.5937406558357419,19.94305647840531
1.5947373666899232,7.94305647840531
1.5957340775441042,-10.05694352159469
1.5967307883982855,-17.05694352159469
1.5977274992524668,-26.05694352159469
1.598724210106648,-40.05694352159469
1.5997209209608292,-44.05694352159469
1.6007176318150103,-42.05694352159469
1.6017143426691915,-34.05694352159469
1.6027110535233726,-26.05694352159469
1.603707764377554,-17.05694352159469
1.6047044752317352,-6.05694352159469
1.6057011860859163,5.94305647840531
1.6066978969400976,12.94305647840531
1.6076946077942786,23.94305647840531
1.60869131864846,33.94305647840531
1.6096880295026412,35.94305647840531
1.6106847403568223,34.94305647840531
1.6116814512110036,35.94305647840531
1.6126781620651847,28.94305647840531
1.613674872919366,21.94305647840531
1.6146715837735472,7.94305647840531
1.6156682946277283,-6.05694352159469
1.6166650054819096,-13.05694352159469
1.6176617163360907,-25.05694352159469
1.618658427190272,-38.05694352159469
1.619655138044453,-44.05694352159469
1.6206518488986343,-42.05694352159469
1.6216485597528156,-37.05694352159469
1.6226452706069967,-26.05694352159469
1.623641981461178,-15.05694352159469
1.624638692315359,-3.0569435215946896
1.6256354031695404,8.94305647840531
1.6266321140237217,16.94305647840531
1.6276288248779027,25.94305647840531
1.628625535732084,34.94305647840531
1.629622246586265,35.94305647840531
1.6306189574404464,36.94305647840531
1.6316156682946277,35.94305647840531
1.6326123791488087,29.94305647840531
1.63360909000299,19.94305647840531
1.634605800857171,7.94305647840531
1.6356025117113524,-9.05694352159469
1.6365992225655337,-15.05694352159469
1.6375959334197148,-27.05694352159469
1.638592644273896,-42.05694352159469
1.6395893551280771,-45.05694352159469
1.6405860659822584,-42.05694352159469
1.6415827768364395,-34.05694352159469
1.6425794876906208,-25.05694352159469
1.643576198544802,-16.05694352159469
1.6445729093989832,-2.0569435215946896
1.6455696202531644,11.94305647840531
1.6465663311073455,16.94305647840531
1.6475630419615268,25.94305647840531
1.648559752815708,32.94305647840531
1.6495564636698892,34.94305647840531
1.6505531745240705,32.94305647840531
1.6515498853782515,35.94305647840531
1.6525465962324328,31.94305647840531
1.6535433070866141,21.94305647840531
1.6545400179407952,7.94305647840531
1.6555367287949765,-6.05694352159469
1.6565334396491576,-13.05694352159469
1.6575301505033389,-29.05694352159469
1.6585268613575201,-40.05694352159469
1.6595235722117012,-43.05694352159469
1.6605202830658825,-41.05694352159469
1.6615169939200636,-32.05694352159469
1.6625137047742449,-24.05694352159469
1.663510415628426,-14.05694352159469
1.6645071264826072,-2.0569435215946896
1.6655038373367885,7.94305647840531
1.6665005481909696,15.94305647840531
1.667497259045151,26.94305647840531
1.668493969899332,33.94305647840531
1.6694906807535133,35.94305647840531
1.6704873916076945,36.94305647840531
1.6714841024618756,35.94305647840531
1.672480813316057,30.94305647840531
1.673477524170238,19.94305647840531
1.6744742350244193,4.94305647840531
1.6754709458786006,-8.05694352159469
1.6764676567327816,-17.05694352159469
1.677464367586963,-29.05694352159469
1.678461078441144,-41.05694352159469
1.6794577892953253,-46.05694352159469
1.6804545001495064,-42.05694352159469
1.6814512110036877,-36.05694352159469
1.682447921857869,-25.05694352159469
1.68344463271205,-16.05694352159469
1.6844413435662313,-2.0569435215946896
1.6854380544204124,7.94305647840531
1.6864347652745937,14.94305647840531
1.687431476128775,24.94305647840531
1.688428186982956,33.94305647840531
1.6894248978371373,35.94305647840531
1.6904216086913184,35.94305647840531
1.6914183195454997,37.94305647840531
1.692415030399681,28.94305647840531
1.693411741253862,20.94305647840531
1.6944084521080434,7.94305647840531
1.6954051629622244,-9.05694352159469
1.6964018738164057,-14.05694352159469
1.697398584670587,-27.05694352159469
1.698395295524768,-39.05694352159469
1.6993920063789494,-43.05694352159469
1.7003887172331305,-43.05694352159469
1.7013854280873117,-35.05694352159469
1.7023821389414928,-23.05694352159469
1.703378849795674,-13.05694352159469
1.7043755606498554,-2.0569435215946896
1.7053722715040365,11.94305647840531
1.7063689823582178,15.94305647840531
1.7073656932123988,26.94305647840531
1.7083624040665801,32.94305647840531
1.7093591149207614,35.94305647840531
1.7103558257749425,35.94305647840531
1.7113525366291238,36.94305647840531
1.7123492474833049,29.94305647840531
1.7133459583374862,21.94305647840531
1.7143426691916674,4.94305647840531
1.7153393800458485,-7.05694352159469
1.7163360909000298,-15.05694352159469
1.7173328017542109,-27.05694352159469
1.7183295126083922,-39.05694352159469
1.7193262234625732,-43.05694352159469
1.7203229343167545,-41.05694352159469
1.7213196451709358,-35.05694352159469
1.722316356025117,-21.05694352159469
1.7233130668792982,-18.05694352159469
1.7243097777334793,-3.0569435215946896
1.7253064885876606,8.94305647840531
1.7263031994418419,15.94305647840531
1.727299910296023,27.94305647840531
1.7282966211502042,33.94305647840531
1.7292933320043853,33.94305647840531
1.7302900428585666,33.94305647840531
1.7312867537127479,35.94305647840531
1.732283464566929,26.94305647840531
1.7332801754211102,19.94305647840531
1.7342768862752913,4.94305647840531
1.7352735971294726,-10.05694352159469
1.736270307983654,-15.05694352159469
1.737267018837835,-30.05694352159469
1.7382637296920163,-38.05694352159469
1.7392604405461973,-38.05694352159469
1.7402571514003786,-39.05694352159469
1.7412538622545597,-34.05694352159469
1.742250573108741,-23.05694352159469
1.7432472839629223,-12.05694352159469
1.7442439948171033,-0.05694352159468963
1.7452407056712846,10.94305647840531
1.7462374165254657,16.94305647840531
1.747234127379647,26.94305647840531
1.7482308382338283,32.94305647840531
1.7492275490880094,35.94305647840531
1.7502242599421907,34.94305647840531
1.7512209707963717,36.94305647840531
1.752217681650553,27.94305647840531
1.7532143925047343,19.94305647840531
1.7542111033589154,5.94305647840531
1.7552078142130967,-6.05694352159469
1.7562045250672778,-13.05694352159469
1.757201235921459,-32.05694352159469
1.7581979467756401,-42.05694352159469
1.7591946576298214,-45.05694352159469
1.7601913684840027,-41.05694352159469
1.7611880793381838,-34.05694352159469
1.762184790192365,-23.05694352159469
1.7631815010465461,-14.05694352159469
1.7641782119007274,-3.0569435215946896
1.7651749227549087,6.94305647840531
1.7661716336090898,15.94305647840531
1.767168344463271,25.94305647840531
1.7681650553174522,32.94305647840531
1.7691617661716335,35.94305647840531
1.7701584770258147,36.94305647840531
1.7711551878799958,37.94305647840531
1.7721518987341771,29.94305647840531
1.7731486095883582,19.94305647840531
1.7741453204425395,7.94305647840531
1.7751420312967208,-8.05694352159469
1.7761387421509018,-16.05694352159469
1.7771354530050831,-29.05694352159469
1.7781321638592642,-38.05694352159469
1.7791288747134455,-41.05694352159469
1.7801255855676266,-42.05694352159469
1.7811222964218079,-34.05694352159469
1.7821190072759892,-21.05694352159469
1.7831157181301702,-11.05694352159469
1.7841124289843515,-2.0569435215946896
1.7851091398385326,8.94305647840531
1.7861058506927139,14.94305647840531
1.7871025615468952,27.94305647840531
1.7880992724010762,31.94305647840531
1.7890959832552575,32.94305647840531
1.7900926941094386,34.94305647840531
1.79108940496362,38.94305647840531
1.7920861158178012,31.94305647840531
1.7930828266719823,19.94305647840531
1.7940795375261636,6.94305647840531
1.7950762483803446,-10.05694352159469
1.796072959234526,-13.05694352159469
1.797069670088707,-27.05694352159469
1.7980663809428883,-39.05694352159469
1.7990630917970696,-45.05694352159469
1.8000598026512507,-42.05694352159469
1.801056513505432,-36.05694352159469
1.802053224359613,-22.05694352159469
1.8030499352137943,-13.05694352159469
1.8040466460679756,-3.0569435215946896
1.8050433569221567,8.94305647840531
1.806040067776338,17.94305647840531
1.807036778630519,28.94305647840531
1.8080334894847003,35.94305647840531
1.8090302003388816,38.94305647840531
1.8100269111930627,38.94305647840531
1.811023622047244,38.94305647840531
1.812020332901425,31.94305647840531
1.8130170437556064,21.94305647840531
1.8140137546097876,7.94305647840531
1.8150104654639687,-6.05694352159469
1.81600717631815,-15.05694352159469
1.817003887172331,-31.05694352159469
1.8180005980265124,-40.05694352159469
1.8189973088806934,-43.05694352159469
1.8199940197348747,-40.05694352159469
1.820990730589056,-35.05694352159469
1.821987441443237,-22.05694352159469
1.8229841522974184,-12.05694352159469
1.8239808631515995,-0.05694352159468963
1.8249775740057808,7.94305647840531
1.825974284859962,16.94305647840531
1.8269709957141431,25.94305647840531
1.8279677065683244,32.94305647840531
1.8289644174225055,34.94305647840531
1.8299611282766868,35.94305647840531
1.830957839130868,36.94305647840531
1.8319545499850491,28.94305647840531
1.8329512608392304,19.94305647840531
1.8339479716934115,5.94305647840531
1.8349446825475928,-7.05694352159469
1.8359413934017739,-17.05694352159469
1.8369381042559552,-29.05694352159469
1.8379348151101365,-40.05694352159469
1.8389315259643175,-43.05694352159469
1.8399282368184988,-41.05694352159469
1.84092494767268,-34.05694352159469
1.8419216585268612,-21.05694352159469
1.8429183693810425,-15.05694352159469
1.8439150802352235,-1.0569435215946896
1.8449117910894048,7.94305647840531
1.845908501943586,15.94305647840531
1.8469052127977672,26.94305647840531
1.8479019236519485,32.94305647840531
1.8488986345061296,35.94305647840531
1.8498953453603109,33.94305647840531
1.850892056214492,35.94305647840531
1.8518887670686732,29.94305647840531
1.8528854779228545,19.94305647840531
1.8538821887770356,4.94305647840531
1.8548788996312169,-7.05694352159469
1.855875610485398,-15.05694352159469
1.8568723213395792,-29.05694352159469
1.8578690321937603,-39.05694352159469
1.8588657430479416,-44.05694352159469
1.859862453902123,-40.05694352159469
1.860859164756304,-35.05694352159469
1.8618558756104853,-21.05694352159469
1.8628525864646663,-13.05694352159469
1.8638492973188476,-2.0569435215946896
1.864846008173029,10.94305647840531
1.86584271902721,17.94305647840531
1.8668394298813913,28.94305647840531
1.8678361407355724,32.94305647840531
1.8688328515897537,36.94305647840531
1.869829562443935,34.94305647840531
1.870826273298116,35.94305647840531
1.8718229841522973,28.94305647840531
1.8728196950064784,16.94305647840531
1.8738164058606597,5.94305647840531
1.8748131167148407,-8.05694352159469
1.875809827569022,-15.05694352159469
1.8768065384232033,-30.05694352159469
1.8778032492773844,-40.05694352159469
1.8787999601315657,-45.05694352159469
1.8797966709857468,-46.05694352159469
1.880793381839928,-39.05694352159469
1.8817900926941094,-24.05694352159469
1.8827868035482904,-15.05694352159469
1.8837835144024717,-3.0569435215946896
1.8847802252566528,8.94305647840531
1.885776936110834,14.94305647840531
1.8867736469650154,27.94305647840531
1.8877703578191964,32.94305647840531
1.8887670686733777,32.94305647840531
1.8897637795275588,33.94305647840531
1.89076049038174,34.94305647840531
1.8917572012359214,30.94305647840531
1.8927539120901025,19.94305647840531
1.8937506229442838,5.94305647840531
1.8947473337984648,-11.05694352159469
1.8957440446526461,-17.05694352159469
1.8967407555068272,-30.05694352159469
1.8977374663610085,-38.05694352159469
1.8987341772151898,-42.05694352159469
1.8997308880693708,-41.05694352159469
1.9007275989235521,-35.05694352159469
1.9017243097777332,-22.05694352159469
1.9027210206319145,-14.05694352159469
1.9037177314860958,-0.05694352159468963
1.9047144423402769,10.94305647840531
1.9057111531944582,14.94305647840531
1.9067078640486392,24.94305647840531
1.9077045749028205,32.94305647840531
1.9087012857570018,36.94305647840531
1.909697996611183,34.94305647840531
1.9106947074653642,34.94305647840531
1.9116914183195453,28.94305647840531
1.9126881291737265,16.94305647840531
1.9136848400279076,6.94305647840531
1.914681550882089,-6.05694352159469
1.9156782617362702,-16.05694352159469
1.9166749725904513,-31.05694352159469
1.9176716834446326,-40.05694352159469
1.9186683942988136,-45.05694352159469
1.919665105152995,-42.05694352159469
1.9206618160071762,-33.05694352159469
1.9216585268613573,-22.05694352159469
1.9226552377155386,-13.05694352159469
1.9236519485697197,-3.0569435215946896
1.924648659423901,7.94305647840531
1.9256453702780822,13.94305647840531
1.9266420811322633,25.94305647840531
1.9276387919864446,31.94305647840531
1.9286355028406257,35.94305647840531
1.929632213694807,36.94305647840531
1.9306289245489883,35.94305647840531
1.9316256354031693,27.94305647840531
1.9326223462573506,18.94305647840531
1.9336190571115317,4.94305647840531
1.934615767965713,-9.05694352159469
1.935612478819894,-15.05694352159469
1.9366091896740754,-30.05694352159469
1.9376059005282567,-39.05694352159469
1.9386026113824377,-43.05694352159469
1.939599322236619,-43.05694352159469
1.9405960330908,-36.05694352159469
1.9415927439449814,-24.05694352159469
1.9425894547991627,-12.05694352159469
1.9435861656533437,0.9430564784053104
1.944582876507525,7.94305647840531
1.945579587361706,14.94305647840531
1.9465762982158874,26.94305647840531
1.9475730090700687,32.94305647840531
1.9485697199242498,35.94305647840531
1.949566430778431,35.94305647840531
1.9505631416326121,33.94305647840531
1.9515598524867934,26.94305647840531
1.9525565633409747,19.94305647840531
1.9535532741951558,6.94305647840531
1.954549985049337,-9.05694352159469
1.9555466959035182,-15.05694352159469
1.9565434067576994,-27.05694352159469
1.9575401176118805,-40.05694352159469
1.9585368284660618,-44.05694352159469
1.959533539320243,-40.05694352159469
1.9605302501744242,-33.05694352159469
1.9615269610286055,-22.05694352159469
1.9625236718827865,-13.05694352159469
1.9635203827369678,-0.05694352159468963
1.9645170935911491,5.94305647840531
1.9655138044453302,16.94305647840531
1.9665105152995115,26.94305647840531
1.9675072261536926,35.94305647840531
1.9685039370078738,36.94305647840531
1.9695006478620551,35.94305647840531
1.9704973587162362,34.94305647840531
1.9714940695704175,28.94305647840531
1.9724907804245986,19.94305647840531
1.9734874912787799,6.94305647840531
1.974484202132961,-5.05694352159469
1.9754809129871422,-16.05694352159469
1.9764776238413235,-30.05694352159469
1.9774743346955046,-38.05694352159469
1.978471045549686,-44.05694352159469
1.979467756403867,-42.05694352159469
1.9804644672580483,-36.05694352159469
1.9814611781122295,-24.05694352159469
1.9824578889664106,-15.05694352159469
1.983454599820592,0.9430564784053104
1.984451310674773,10.94305647840531
1.9854480215289543,15.94305647840531
1.9864447323831356,27.94305647840531
1.9874414432373166,33.94305647840531
1.988438154091498,35.94305647840531
1.989434864945679,34.94305647840531
1.9904315757998603,36.94305647840531
1.9914282866540416,25.94305647840531
1.9924249975082227,16.94305647840531
1.993421708362404,3.9430564784053104
1.994418419216585,-11.05694352159469
1.9954151300707663,-16.05694352159469
1.9964118409249474,-31.05694352159469
1.9974085517791287,-40.05694352159469
1.99840526263331,-43.05694352159469
1.999401973487491,-40.05694352159469
2.0003986843416723,-35.05694352159469
2.0013953951958534,-23.05694352159469
2.0023921060500345,-11.05694352159469
2.003388816904216,-0.05694352159468963
2.004385527758397,10.94305647840531
2.005382238612578,15.94305647840531
2.0063789494667597,25.94305647840531
2.0073756603209407,33.94305647840531
2.008372371175122,37.94305647840531
2.0093690820293033,35.94305647840531
2.0103657928834844,32.94305647840531
2.0113625037376655,28.94305647840531
2.0123592145918465,18.94305647840531
2.013355925446028,3.9430564784053104
2.014352636300209,-9.05694352159469
2.01534934715439,-15.05694352159469
2.0163460580085717,-29.05694352159469
2.0173427688627528,-39.05694352159469
2.018339479716934,-45.05694352159469
2.0193361905711154,-43.05694352159469
2.0203329014252964,-35.05694352159469
2.0213296122794775,-24.05694352159469
2.0223263231336586,-17.05694352159469
2.02332303398784,-2.0569435215946896
2.024319744842021,6.94305647840531
2.0253164556962022,11.94305647840531
2.0263131665503837,23.94305647840531
2.027309877404565,28.94305647840531
2.028306588258746,31.94305647840531
2.029303299112927,32.94305647840531
2.0303000099671085,30.94305647840531
2.0312967208212895,26.94305647840531
2.0322934316754706,19.94305647840531
2.033290142529652,5.94305647840531
2.034286853383833,-7.05694352159469
2.0352835642380143,-14.05694352159469
2.036280275092196,-29.05694352159469
2.037276985946377,-39.05694352159469
2.038273696800558,-42.05694352159469
2.039270407654739,-42.05694352159469
2.0402671185089205,-32.05694352159469
2.0412638293631016,-20.05694352159469
2.0422605402172826,-10.05694352159469
2.043257251071464,0.9430564784053104
2.0442539619256452,8.94305647840531
2.0452506727798263,14.94305647840531
2.0462473836340074,27.94305647840531
2.047244094488189,32.94305647840531
2.04824080534237,34.94305647840531
2.049237516196551,32.94305647840531
2.0502342270507325,35.94305647840531
2.0512309379049136,26.94305647840531
2.0522276487590947,16.94305647840531
2.053224359613276,4.94305647840531
2.0542210704674573,-10.05694352159469
2.0552177813216383,-15.05694352159469
2.0562144921758194,-29.05694352159469
2.057211203030001,-39.05694352159469
2.058207913884182,-44.05694352159469
2.059204624738363,-42.05694352159469
2.0602013355925446,-34.05694352159469
2.0611980464467257,-22.05694352159469
2.0621947573009067,-11.05694352159469
2.063191468155088,0.9430564784053104
2.0641881790092693,13.94305647840531
2.0651848898634504,20.94305647840531
2.0661816007176315,31.94305647840531
2.067178311571813,35.94305647840531
2.068175022425994,37.94305647840531
2.069171733280175,36.94305647840531
2.0701684441343566,33.94305647840531
2.0711651549885377,30.94305647840531
2.0721618658427188,19.94305647840531
2.0731585766969,4.94305647840531
2.0741552875510814,-12.05694352159469
2.0751519984052624,-15.05694352159469
2.0761487092594435,-32.05694352159469
2.077145420113625,-38.05694352159469
2.078142130967806,-42.05694352159469
2.079138841821987,-38.05694352159469
2.0801355526761687,-31.05694352159469
2.0811322635303497,-21.05694352159469
2.082128974384531,-10.05694352159469
2.083125685238712,1.9430564784053104
2.0841223960928934,10.94305647840531
2.0851191069470745,18.94305647840531
2.0861158178012555,27.94305647840531
2.087112528655437,33.94305647840531
2.088109239509618,35.94305647840531
2.089105950363799,39.94305647840531
2.0901026612179803,35.94305647840531
2.091099372072162,28.94305647840531
2.092096082926343,18.94305647840531
2.093092793780524,5.94305647840531
2.0940895046347054,-8.05694352159469
2.0950862154888865,-16.05694352159469
2.0960829263430676,-29.05694352159469
2.097079637197249,-38.05694352159469
2.09807634805143,-42.05694352159469
2.0990730589056112,-40.05694352159469
2.1000697697597923,-34.05694352159469
2.101066480613974,-22.05694352159469
2.102063191468155,-11.05694352159469
2.103059902322336,3.9430564784053104
2.1040566131765175,11.94305647840531
2.1050533240306986,16.94305647840531
2.1060500348848796,26.94305647840531
2.1070467457390607,36.94305647840531
2.108043456593242,36.94305647840531
2.1090401674474233,36.94305647840531
2.1100368783016044,33.94305647840531
2.111033589155786,27.94305647840531
2.112030300009967,16.94305647840531
2.113027010864148,3.9430564784053104
2.1140237217183295,-10.05694352159469
2.1150204325725106,-19.05694352159469
2.1160171434266917,-35.05694352159469
2.1170138542808727,-42.05694352159469
2.1180105651350543,-47.05694352159469
2.1190072759892353,-40.05694352159469
2.1200039868434164,-35.05694352159469
2.121000697697598,-22.05694352159469
2.121997408551779,-12.05694352159469
2.12299411940596,-0.05694352159468963
2.123990830260141,11.94305647840531
2.1249875411143226,14.94305647840531
2.1259842519685037,26.94305647840531
2.126980962822685,32.94305647840531
2.1279776736768663,36.94305647840531
2.1289743845310474,35.94305647840531
2.1299710953852284,34.94305647840531
2.13096780623941,26.94305647840531
2.131964517093591,16.94305647840531
2.132961227947772,3.9430564784053104
2.133957938801953,-9.05694352159469
2.1349546496561347,-15.05694352159469
2.1359513605103158,-32.05694352159469
2.136948071364497,-40.05694352159469
2.1379447822186783,-43.05694352159469
2.1389414930728594,-42.05694352159469
2.1399382039270405,-31.05694352159469
2.1409349147812216,-22.05694352159469
2.141931625635403,-11.05694352159469
2.142928336489584,-1.0569435215946896
2.143925047343765,9.94305647840531
2.1449217581979467,19.94305647840531
2.145918469052128,28.94305647840531
2.146915179906309,33.94305647840531
2.1479118907604904,36.94305647840531
2.1489086016146715,35.94305647840531
2.1499053124688525,35.94305647840531
2.1509020233230336,28.94305647840531
2.151898734177215,19.94305647840531
2.152895445031396,6.94305647840531
2.1538921558855773,-7.05694352159469
2.1548888667397588,-18.05694352159469
2.15588557759394,-31.05694352159469
2.156882288448121,-41.05694352159469
2.1578789993023024,-44.05694352159469
2.1588757101564835,-39.05694352159469
2.1598724210106646,-31.05694352159469
2.1608691318648456,-20.05694352159469
2.161865842719027,-11.05694352159469
2.1628625535732082,3.9430564784053104
2.1638592644273893,10.94305647840531
2.164855975281571,18.94305647840531
2.165852686135752,29.94305647840531
2.166849396989933,35.94305647840531
2.167846107844114,37.94305647840531
2.1688428186982955,36.94305647840531
2.1698395295524766,36.94305647840531
2.1708362404066577,32.94305647840531
2.171832951260839,19.94305647840531
2.1728296621150203,6.94305647840531
2.1738263729692013,-8.05694352159469
2.174823083823383,-16.05694352159469
2.175819794677564,-32.05694352159469
2.176816505531745,-42.05694352159469
2.177813216385926,-47.05694352159469
2.1788099272401076,-43.05694352159469
2.1798066380942887,-33.05694352159469
2.1808033489484697,-24.05694352159469
2.1818000598026512,-13.05694352159469
2.1827967706568323,0.9430564784053104
2.1837934815110134,8.94305647840531
2.1847901923651945,15.94305647840531
2.185786903219376,28.94305647840531
2.186783614073557,34.94305647840531
2.187780324927738,36.94305647840531
2.1887770357819196,35.94305647840531
2.1897737466361007,35.94305647840531
2.1907704574902818,29.94305647840531
2.1917671683444633,20.94305647840531
2.1927638791986444,3.9430564784053104
2.1937605900528254,-11.05694352159469
2.1947573009070065,-16.05694352159469
2.195754011761188,-31.05694352159469
2.196750722615369,-40.05694352159469
2.19774743346955,-44.05694352159469
2.1987441443237317,-43.05694352159469
2.1997408551779127,-34.05694352159469
2.200737566032094,-21.05694352159469
2.201734276886275,-12.05694352159469
2.2027309877404564,1.9430564784053104
2.2037276985946375,11.94305647840531
2.2047244094488185,15.94305647840531
2.205721120303,27.94305647840531
2.206717831157181,32.94305647840531
2.207714542011362,35.94305647840531
2.2087112528655437,34.94305647840531
2.2097079637197248,35.94305647840531
2.210704674573906,28.94305647840531
2.211701385428087,18.94305647840531
2.2126980962822684,4.94305647840531
2.2136948071364495,-8.05694352159469
2.2146915179906306,-16.05694352159469
2.215688228844812,-31.05694352159469
2.216684939698993,-40.05694352159469
2.2176816505531742,-43.05694352159469
2.2186783614073553,-41.05694352159469
2.219675072261537,-31.05694352159469
2.220671783115718,-24.05694352159469
2.221668493969899,-13.05694352159469
2.2226652048240805,-2.0569435215946896
2.2236619156782615,8.94305647840531
2.2246586265324426,15.94305647840531
2.225655337386624,28.94305647840531
2.226652048240805,32.94305647840531
2.2276487590949863,36.94305647840531
2.2286454699491673,36.94305647840531
2.229642180803349,33.94305647840531
2.23063889165753,25.94305647840531
2.231635602511711,14.94305647840531
2.2326323133658925,0.9430564784053104
2.2336290242200736,-10.05694352159469
2.2346257350742547,-18.05694352159469
2.235622445928436,-31.05694352159469
2.2366191567826172,-39.05694352159469
2.2376158676367983,-44.05694352159469
2.2386125784909794,-41.05694352159469
2.239609289345161,-36.05694352159469
2.240606000199342,-22.05694352159469
2.241602711053523,-13.05694352159469
2.2425994219077046,-1.0569435215946896
2.2435961327618856,9.94305647840531
2.2445928436160667,16.94305647840531
2.2455895544702478,26.94305647840531
2.2465862653244293,31.94305647840531
2.2475829761786104,31.94305647840531
2.2485796870327914,32.94305647840531
2.249576397886973,33.94305647840531
2.250573108741154,25.94305647840531
2.251569819595335,16.94305647840531
2.2525665304495166,1.9430564784053104
2.2535632413036977,-8.05694352159469
2.2545599521578787,-16.05694352159469
2.25555666301206,-32.05694352159469
2.2565533738662413,-40.05694352159469
2.2575500847204224,-40.05694352159469
2.2585467955746035,-39.05694352159469
2.259543506428785,-31.05694352159469
2.260540217282966,-20.05694352159469
2.261536928137147,-11.05694352159469
2.262533638991328,2.9430564784053104
2.2635303498455097,11.94305647840531
2.264527060699691,15.94305647840531
2.265523771553872,29.94305647840531
2.2665204824080534,32.94305647840531
2.2675171932622344,36.94305647840531
2.2685139041164155,35.94305647840531
2.269510614970597,32.94305647840531
2.270507325824778,27.94305647840531
2.271504036678959,18.94305647840531
2.2725007475331402,3.9430564784053104
2.2734974583873218,-9.05694352159469
2.274494169241503,-15.05694352159469
2.275490880095684,-31.05694352159469
2.2764875909498654,-39.05694352159469
2.2774843018040465,-42.05694352159469
2.2784810126582276,-37.05694352159469
2.2794777235124086,-30.05694352159469
2.28047443436659,-23.05694352159469
2.281471145220771,-11.05694352159469
2.2824678560749523,1.9430564784053104
2.283464566929134,9.94305647840531
2.284461277783315,15.94305647840531
2.285457988637496,28.94305647840531
2.2864546994916775,31.94305647840531
2.2874514103458585,32.94305647840531
2.2884481212000396,32.94305647840531
2.2894448320542207,31.94305647840531
2.290441542908402,28.94305647840531
2.2914382537625833,19.94305647840531
2.2924349646167643,3.9430564784053104
2.293431675470946,-8.05694352159469
2.294428386325127,-16.05694352159469
2.295425097179308,-31.05694352159469
2.2964218080334895,-39.05694352159469
2.2974185188876706,-42.05694352159469
2.2984152297418516,-39.05694352159469
2.2994119405960327,-31.05694352159469
2.3004086514502142,-21.05694352159469
2.3014053623043953,-11.05694352159469
2.3024020731585764,-1.0569435215946896
2.303398784012758,12.94305647840531
2.304395494866939,16.94305647840531
2.30539220572112,27.94305647840531
2.306388916575301,33.94305647840531
2.3073856274294826,36.94305647840531
2.3083823382836637,35.94305647840531
2.3093790491378448,34.94305647840531
2.3103757599920263,29.94305647840531
2.3113724708462073,18.94305647840531
2.3123691817003884,2.9430564784053104
2.31336589255457,-10.05694352159469
2.314362603408751,-13.05694352159469
2.315359314262932,-29.05694352159469
2.316356025117113,-40.05694352159469
2.3173527359712947,-43.05694352159469
2.3183494468254757,-42.05694352159469
2.319346157679657,-31.05694352159469
2.3203428685338383,-21.05694352159469
2.3213395793880194,-11.05694352159469
2.3223362902422005,2.9430564784053104
2.3233330010963815,11.94305647840531
2.324329711950563,15.94305647840531
2.325326422804744,27.94305647840531
2.326323133658925,33.94305647840531
2.3273198445131067,35.94305647840531
2.3283165553672878,36.94305647840531
2.329313266221469,32.94305647840531
2.3303099770756504,24.94305647840531
2.3313066879298314,18.94305647840531
2.3323033987840125,5.94305647840531
2.3333001096381936,-8.05694352159469
2.334296820492375,-16.05694352159469
2.335293531346556,-31.05694352159469
2.336290242200737,-42.05694352159469
2.3372869530549187,-44.05694352159469
2.3382836639091,-44.05694352159469
2.339280374763281,-31.05694352159469
2.340277085617462,-21.05694352159469
2.3412737964716435,-9.05694352159469
2.3422705073258245,1.9430564784053104
2.3432672181800056,9.94305647840531
2.344263929034187,16.94305647840531
2.345260639888368,27.94305647840531
2.3462573507425493,32.94305647840531
2.347254061596731,34.94305647840531
2.348250772450912,33.94305647840531
2.349247483305093,34.94305647840531
2.350244194159274,27.94305647840531
2.3512409050134555,16.94305647840531
2.3522376158676366,5.94305647840531
2.3532343267218176,-8.05694352159469
2.354231037575999,-15.05694352159469
2.3552277484301802,-29.05694352159469
2.3562244592843613,-35.05694352159469
2.3572211701385424,-40.05694352159469
2.358217880992724,-41.05694352159469
2.359214591846905,-31.05694352159469
2.360211302701086,-21.05694352159469
2.3612080135552675,-12.05694352159469
2.3622047244094486,-2.0569435215946896
2.3632014352636297,10.94305647840531
2.364198146117811,14.94305647840531
2.3651948569719923,27.94305647840531
2.3661915678261733,35.94305647840531
2.3671882786803544,35.94305647840531
2.368184989534536,36.94305647840531
2.369181700388717,32.94305647840531
2.370178411242898,26.94305647840531
2.3711751220970796,17.94305647840531
2.3721718329512607,4.94305647840531
2.3731685438054417,-7.05694352159469
2.3741652546596232,-13.05694352159469
2.3751619655138043,-29.05694352159469
2.3761586763679854,-38.05694352159469
2.3771553872221665,-42.05694352159469
2.378152098076348,-41.05694352159469
2.379148808930529,-32.05694352159469
2.38014551978471,-24.05694352159469
2.3811422306388916,-12.05694352159469
2.3821389414930727,1.9430564784053104
2.3831356523472538,10.94305647840531
2.384132363201435,15.94305647840531
2.3851290740556164,28.94305647840531
2.3861257849097974,33.94305647840531
2.3871224957639785,35.94305647840531
2.38811920661816,37.94305647840531
2.389115917472341,34.94305647840531
2.390112628326522,26.94305647840531
2.3911093391807037,18.94305647840531
2.3921060500348847,2.9430564784053104
2.393102760889066,-12.05694352159469
2.394099471743247,-19.05694352159469
2.3950961825974284,-33.05694352159469
2.3960928934516095,-43.05694352159469
2.3970896043057905,-46.05694352159469
2.398086315159972,-43.05694352159469
2.399083026014153,-33.05694352159469
2.400079736868334,-23.05694352159469
2.4010764477225153,-14.05694352159469
2.402073158576697,0.9430564784053104
2.403069869430878,6.94305647840531
2.404066580285059,14.94305647840531
2.4050632911392404,27.94305647840531
2.4060600019934215,31.94305647840531
2.4070567128476026,32.94305647840531
2.408053423701784,33.94305647840531
2.409050134555965,33.94305647840531
2.4100468454101462,29.94305647840531
2.4110435562643273,17.94305647840531
2.412040267118509,6.94305647840531
2.41303697797269,-8.05694352159469
2.414033688826871,-13.05694352159469
2.4150303996810525,-31.05694352159469
2.4160271105352336,-39.05694352159469
2.4170238213894146,-43.05694352159469
2.4180205322435957,-38.05694352159469
2.419017243097777,-30.05694352159469
2.4200139539519583,-20.05694352159469
2.4210106648061394,-11.05694352159469
2.422007375660321,0.9430564784053104
2.423004086514502,10.94305647840531
2.424000797368683,19.94305647840531
2.4249975082228645,31.94305647840531
2.4259942190770456,33.94305647840531
2.4269909299312267,34.94305647840531
2.4279876407854077,35.94305647840531
2.4289843516395893,34.94305647840531
2.4299810624937703,29.94305647840531
2.4309777733479514,17.94305647840531
2.431974484202133,3.9430564784053104
2.432971195056314,-9.05694352159469
2.433967905910495,-16.05694352159469
2.434964616764676,-32.05694352159469
2.4359613276188576,-40.05694352159469
2.4369580384730387,-43.05694352159469
2.43795474932722,-39.05694352159469
2.4389514601814013,-30.05694352159469
2.4399481710355824,-23.05694352159469
2.4409448818897634,-13.05694352159469
2.441941592743945,1.9430564784053104
2.442938303598126,8.94305647840531
2.443935014452307,16.94305647840531
2.444931725306488,29.94305647840531
2.4459284361606697,34.94305647840531
2.4469251470148508,36.94305647840531
2.447921857869032,35.94305647840531
2.4489185687232133,35.94305647840531
2.4499152795773944,30.94305647840531
2.4509119904315755,18.94305647840531
2.451908701285757,2.9430564784053104
2.452905412139938,-10.05694352159469
2.453902122994119,-16.05694352159469
2.4548988338483,-31.05694352159469
2.4558955447024817,-39.05694352159469
2.456892255556663,-41.05694352159469
2.457888966410844,-40.05694352159469
2.4588856772650254,-32.05694352159469
2.4598823881192065,-23.05694352159469
2.4608790989733875,-10.05694352159469
2.4618758098275686,1.9430564784053104
2.46287252068175,10.94305647840531
2.463869231535931,16.94305647840531
2.4648659423901123,31.94305647840531
2.4658626532442938,34.94305647840531
2.466859364098475,36.94305647840531
2.467856074952656,34.94305647840531
2.4688527858068374,31.94305647840531
2.4698494966610185,28.94305647840531
2.4708462075151996,17.94305647840531
2.4718429183693806,2.9430564784053104
2.472839629223562,-10.05694352159469
2.4738363400777432,-16.05694352159469
2.4748330509319243,-36.05694352159469
2.475829761786106,-41.05694352159469
2.476826472640287,-43.05694352159469
2.477823183494468,-39.05694352159469
2.478819894348649,-31.05694352159469
2.4798166052028305,-20.05694352159469
2.4808133160570116,-12.05694352159469
2.4818100269111927,1.9430564784053104
2.482806737765374,9.94305647840531
2.4838034486195553,16.94305647840531
2.4848001594737363,27.94305647840531
2.485796870327918,32.94305647840531
2.486793581182099,36.94305647840531
2.48779029203628,35.94305647840531
2.488787002890461,33.94305647840531
2.4897837137446426,26.94305647840531
2.4907804245988237,18.94305647840531
2.4917771354530047,3.9430564784053104
2.4927738463071862,-11.05694352159469
2.4937705571613673,-18.05694352159469
2.4947672680155484,-32.05694352159469
2.4957639788697294,-40.05694352159469
2.496760689723911,-40.05694352159469
2.497757400578092,-41.05694352159469
2.498754111432273,-31.05694352159469
2.4997508222864546,-21.05694352159469
2.5007475331406357,-10.05694352159469
2.5017442439948168,1.9430564784053104
2.5027409548489983,11.94305647840531
2.5037376657031793,16.94305647840531
2.5047343765573604,27.94305647840531
2.5057310874115415,33.94305647840531
2.506727798265723,33.94305647840531
2.507724509119904,33.94305647840531
2.508721219974085,30.94305647840531
2.5097179308282667,26.94305647840531
2.5107146416824477,16.94305647840531
2.511711352536629,1.9430564784053104
2.51270806339081,-11.05694352159469
2.5137047742449914,-18.05694352159469
2.5147014850991725,-34.05694352159469
2.5156981959533535,-40.05694352159469
2.516694906807535,-42.05694352159469
2.517691617661716,-40.05694352159469
2.518688328515897,-31.05694352159469
2.5196850393700787,-21.05694352159469
2.5206817502242598,-12.05694352159469
2.521678461078441,1.9430564784053104
2.522675171932622,11.94305647840531
2.5236718827868034,18.94305647840531
2.5246685936409845,28.94305647840531
2.5256653044951656,32.94305647840531
2.526662015349347,37.94305647840531
2.527658726203528,35.94305647840531
2.5286554370577092,35.94305647840531
2.5296521479118907,26.94305647840531
2.530648858766072,18.94305647840531
2.531645569620253,0.9430564784053104
2.532642280474434,-8.05694352159469
2.5336389913286155,-15.05694352159469
2.5346357021827965,-35.05694352159469
2.5356324130369776,-41.05694352159469
2.536629123891159,-42.05694352159469
2.53762583474534,-39.05694352159469
2.5386225455995213,-28.05694352159469
2.5396192564537023,-19.05694352159469
2.540615967307884,-11.05694352159469
2.541612678162065,0.9430564784053104
2.542609389016246,10.94305647840531
2.5436060998704275,15.94305647840531
2.5446028107246086,28.94305647840531
2.5455995215787897,31.94305647840531
2.546596232432971,33.94305647840531
2.5475929432871522,35.94305647840531
2.5485896541413333,33.94305647840531
2.5495863649955144,26.94305647840531
2.550583075849696,16.94305647840531
2.551579786703877,2.9430564784053104
2.552576497558058,-9.05694352159469
2.5535732084122396,-16.05694352159469
2.5545699192664206,-31.05694352159469
2.5555666301206017,-40.05694352159469
2.5565633409747828,-46.05694352159469
2.5575600518289643,-39.05694352159469
2.5585567626831454,-30.05694352159469
2.5595534735373264,-19.05694352159469
2.560550184391508,-11.05694352159469
2.561546895245689,2.9430564784053104
2.56254360609987,10.94305647840531
2.5635403169540516,15.94305647840531
2.5645370278082327,28.94305647840531
2.5655337386624137,34.94305647840531
2.566530449516595,35.94305647840531
2.5675271603707763,35.94305647840531
2.5685238712249574,35.94305647840531
2.5695205820791385,28.94305647840531
2.57051729293332,18.94305647840531
2.571514003787501,2.9430564784053104
2.572510714641682,-9.05694352159469
2.573507425495863,-16.05694352159469
2.5745041363500447,-33.05694352159469
2.575500847204226,-40.05694352159469
2.576497558058407,-44.05694352159469
2.5774942689125884,-39.05694352159469
2.5784909797667694,-32.05694352159469
2.5794876906209505,-23.05694352159469
2.580484401475132,-14.05694352159469
2.581481112329313,-0.05694352159468963
2.582477823183494,10.94305647840531
2.5834745340376752,16.94305647840531
2.5844712448918568,25.94305647840531
2.585467955746038,32.94305647840531
2.586464666600219,34.94305647840531
2.5874613774544004,36.94305647840531
2.5884580883085815,35.94305647840531
2.5894547991627626,25.94305647840531
2.590451510016944,16.94305647840531
2.591448220871125,2.9430564784053104
2.592444931725306,-9.05694352159469
2.5934416425794873,-15.05694352159469
2.594438353433669,-33.05694352159469
2.59543506428785,-40.05694352159469
2.596431775142031,-43.05694352159469
2.5974284859962125,-41.05694352159469
2.5984251968503935,-31.05694352159469
2.5994219077045746,-24.05694352159469
2.6004186185587557,-12.05694352159469
2.601415329412937,1.9430564784053104
2.6024120402671183,11.94305647840531
2.6034087511212993,18.94305647840531
2.604405461975481,30.94305647840531
2.605402172829662,32.94305647840531
2.606398883683843,34.94305647840531
2.6073955945380245,39.94305647840531
2.6083923053922056,35.94305647840531
2.6093890162463866,29.94305647840531
2.6103857271005677,17.94305647840531
2.6113824379547492,3.9430564784053104
2.6123791488089303,-8.05694352159469
2.6133758596631114,-16.05694352159469
2.614372570517293,-31.05694352159469
2.615369281371474,-42.05694352159469
2.616365992225655,-44.05694352159469
2.617362703079836,-40.05694352159469
2.6183594139340176,-30.05694352159469
2.6193561247881987,-23.05694352159469
2.6203528356423798,-12.05694352159469
2.6213495464965613,1.9430564784053104
2.6223462573507423,9.94305647840531
2.6233429682049234,16.94305647840531
2.624339679059105,28.94305647840531
2.625336389913286,32.94305647840531
2.626333100767467,33.94305647840531
2.627329811621648,36.94305647840531
2.6283265224758297,30.94305647840531
2.6293232333300107,25.94305647840531
2.630319944184192,13.94305647840531
2.6313166550383733,-1.0569435215946896
2.6323133658925544,-11.05694352159469
2.6333100767467355,-18.05694352159469
2.6343067876009165,-34.05694352159469
2.635303498455098,-39.05694352159469
2.636300209309279,-41.05694352159469
2.63729692016346,-38.05694352159469
2.6382936310176417,-30.05694352159469
2.6392903418718228,-20.05694352159469
2.640287052726004,-9.05694352159469
2.6412837635801854,5.94305647840531
2.6422804744343664,11.94305647840531
2.6432771852885475,17.94305647840531
2.6442738961427286,31.94305647840531
2.64527060699691,35.94305647840531
2.646267317851091,36.94305647840531
2.647264028705272,35.94305647840531
2.6482607395594537,33.94305647840531
2.649257450413635,24.94305647840531
2.650254161267816,15.94305647840531
2.651250872121997,0.9430564784053104
2.6522475829761785,-8.05694352159469
2.6532442938303595,-18.05694352159469
2.6542410046845406,-36.05694352159469
2.655237715538722,-42.05694352159469
2.656234426392903,-44.05694352159469
2.6572311372470843,-37.05694352159469
2.6582278481012658,-28.05694352159469
2.659224558955447,-20.05694352159469
2.660221269809628,-8.05694352159469
2.661217980663809,5.94305647840531
2.6622146915179905,14.94305647840531
2.6632114023721716,17.94305647840531
2.6642081132263526,29.94305647840531
2.665204824080534,32.94305647840531
2.6662015349347152,36.94305647840531
2.6671982457888963,35.94305647840531
2.668194956643078,33.94305647840531
2.669191667497259,25.94305647840531
2.67018837835144,14.94305647840531
2.671185089205621,1.9430564784053104
2.6721818000598025,-11.05694352159469
2.6731785109139836,-18.05694352159469
2.6741752217681647,-35.05694352159469
2.675171932622346,-42.05694352159469
2.6761686434765273,-45.05694352159469
2.6771653543307083,-44.05694352159469
2.6781620651848894,-32.05694352159469
2.679158776039071,-23.05694352159469
2.680155486893252,-12.05694352159469
2.681152197747433,-0.05694352159468963
2.6821489086016146,11.94305647840531
2.6831456194557957,16.94305647840531
2.6841423303099767,27.94305647840531
2.6851390411641582,33.94305647840531
2.6861357520183393,37.94305647840531
2.6871324628725204,34.94305647840531
2.6881291737267015,33.94305647840531
2.689125884580883,25.94305647840531
2.690122595435064,18.94305647840531
2.691119306289245,2.9430564784053104
2.6921160171434266,-9.05694352159469
2.6931127279976077,-17.05694352159469
2.6941094388517888,-34.05694352159469
2.69510614970597,-43.05694352159469
2.6961028605601514,-46.05694352159469
2.6970995714143324,-40.05694352159469
2.6980962822685135,-33.05694352159469
2.699092993122695,-23.05694352159469
2.700089703976876,-11.05694352159469
2.701086414831057,-0.05694352159468963
2.7020831256852387,11.94305647840531
2.7030798365394197,17.94305647840531
2.704076547393601,29.94305647840531
2.705073258247782,35.94305647840531
2.7060699691019634,35.94305647840531
2.7070666799561445,36.94305647840531
2.7080633908103255,32.94305647840531
2.709060101664507,25.94305647840531
2.710056812518688,17.94305647840531
2.711053523372869,2.9430564784053104
2.7120502342270503,-9.05694352159469
2.713046945081232,-17.05694352159469
2.714043655935413,-31.05694352159469
2.715040366789594,-41.05694352159469
2.7160370776437754,-42.05694352159469
2.7170337884979565,-40.05694352159469
2.7180304993521376,-31.05694352159469
2.719027210206319,-19.05694352159469
2.7200239210605,-12.05694352159469
2.7210206319146812,4.94305647840531
2.7220173427688623,8.94305647840531
2.723014053623044,18.94305647840531
2.724010764477225,31.94305647840531
2.725007475331406,33.94305647840531
2.7260041861855875,32.94305647840531
2.7270008970397686,38.94305647840531
2.7279976078939496,36.94305647840531
2.7289943187481307,28.94305647840531
2.729991029602312,16.94305647840531
2.7309877404564933,0.9430564784053104
2.7319844513106744,-9.05694352159469
2.732981162164856,-17.05694352159469
2.733977873019037,-32.05694352159469
2.734974583873218,-41.05694352159469
2.7359712947273995,-43.05694352159469
2.7369680055815806,-40.05694352159469
2.7379647164357617,-28.05694352159469
2.7389614272899427,-20.05694352159469
2.7399581381441243,-10.05694352159469
2.7409548489983053,2.9430564784053104
2.7419515598524864,7.94305647840531
2.742948270706668,16.94305647840531
2.743944981560849,28.94305647840531
2.74494169241503,29.94305647840531
2.7459384032692116,32.94305647840531
2.7469351141233926,35.94305647840531
2.7479318249775737,33.94305647840531
2.748928535831755,26.94305647840531
2.7499252466859363,16.94305647840531
2.7509219575401174,0.9430564784053104
2.7519186683942984,-13.05694352159469
2.75291537924848,-18.05694352159469
2.753912090102661,-36.05694352159469
2.754908800956842,-43.05694352159469
2.755905511811023,-44.05694352159469
2.7569022226652047,-38.05694352159469
2.7578989335193858,-29.05694352159469
2.758895644373567,-20.05694352159469
2.7598923552277483,-9.05694352159469
2.7608890660819294,2.9430564784053104
2.7618857769361105,11.94305647840531
2.762882487790292,16.94305647840531
2.763879198644473,29.94305647840531
2.764875909498654,31.94305647840531
2.765872620352835,34.94305647840531
2.7668693312070167,33.94305647840531
2.767866042061198,32.94305647840531
2.768862752915379,26.94305647840531
2.7698594637695604,16.94305647840531
2.7708561746237415,2.9430564784053104
2.7718528854779225,-11.05694352159469
2.7728495963321036,-18.05694352159469
2.773846307186285,-34.05694352159469
2.774843018040466,-41.05694352159469
2.7758397288946473,-42.05694352159469
2.7768364397488288,-39.05694352159469
2.77783315060301,-29.05694352159469
2.778829861457191,-20.05694352159469
2.7798265723113724,-12.05694352159469
2.7808232831655535,-0.05694352159468963
2.7818199940197346,7.94305647840531
2.7828167048739156,14.94305647840531
2.783813415728097,28.94305647840531
2.7848101265822782,33.94305647840531
2.7858068374364593,34.94305647840531
2.786803548290641,35.94305647840531
2.787800259144822,34.94305647840531
2.788796969999003,28.94305647840531
2.789793680853184,15.94305647840531
2.7907903917073655,3.9430564784053104
2.7917871025615466,-9.05694352159469
2.7927838134157277,-17.05694352159469
2.793780524269909,-30.05694352159469
2.7947772351240903,-39.05694352159469
2.7957739459782713,-42.05694352159469
2.796770656832453,-39.05694352159469
2.797767367686634,-29.05694352159469
2.798764078540815,-19.05694352159469
2.799760789394996,-13.05694352159469
2.8007575002491776,3.9430564784053104
2.8017542111033586,11.94305647840531
2.8027509219575397,17.94305647840531
2.8037476328117212,27.94305647840531
2.8047443436659023,32.94305647840531
2.8057410545200834,32.94305647840531
2.8067377653742644,34.94305647840531
2.807734476228446,33.94305647840531
2.808731187082627,26.94305647840531
2.809727897936808,16.94305647840531
2.8107246087909896,3.9430564784053104
2.8117213196451707,-8.05694352159469
2.8127180304993518,-17.05694352159469
2.8137147413535333,-35.05694352159469
2.8147114522077143,-43.05694352159469
2.8157081630618954,-45.05694352159469
2.8167048739160765,-42.05694352159469
2.817701584770258,-31.05694352159469
2.818698295624439,-22.05694352159469
2.81969500647862,-12.05694352159469
2.8206917173328017,4.94305647840531
2.8216884281869827,11.94305647840531
2.822685139041164,18.94305647840531
2.8236818498953453,29.94305647840531
2.8246785607495264,35.94305647840531
2.8256752716037075,33.94305647840531
2.8266719824578885,37.94305647840531
2.82766869331207,32.94305647840531
2.828665404166251,29.94305647840531
2.829662115020432,15.94305647840531
2.8306588258746137,3.9430564784053104
2.8316555367287948,-10.05694352159469
2.832652247582976,-17.05694352159469
2.833648958437157,-34.05694352159469
2.8346456692913384,-42.05694352159469
2.8356423801455195,-42.05694352159469
2.8366390909997006,-39.05694352159469
2.837635801853882,-27.05694352159469
2.838632512708063,-19.05694352159469
2.8396292235622442,-13.05694352159469
2.8406259344164257,0.9430564784053104
2.841622645270607,9.94305647840531
2.842619356124788,17.94305647840531
2.843616066978969,28.94305647840531
2.8446127778331505,34.94305647840531
2.8456094886873315,35.94305647840531
2.8466061995415126,36.94305647840531
2.847602910395694,31.94305647840531
2.848599621249875,26.94305647840531
2.8495963321040563,17.94305647840531
2.8505930429582373,1.9430564784053104
2.851589753812419,-8.05694352159469
2.8525864646666,-18.05694352159469
2.853583175520781,-33.05694352159469
2.8545798863749625,-40.05694352159469
2.8555765972291436,-44.05694352159469
2.8565733080833247,-39.05694352159469
2.857570018937506,-28.05694352159469
2.8585667297916872,-19.05694352159469
2.8595634406458683,-9.05694352159469
2.8605601515000494,2.9430564784053104
2.861556862354231,10.94305647840531
2.862553573208412,15.94305647840531
2.863550284062593,29.94305647840531
2.8645469949167746,35.94305647840531
2.8655437057709556,35.94305647840531
2.8665404166251367,39.94305647840531
2.8675371274793178,32.94305647840531
2.8685338383334993,27.94305647840531
2.8695305491876804,15.94305647840531
2.8705272600418614,0.9430564784053104
2.871523970896043,-11.05694352159469
2.872520681750224,-20.05694352159469
2.873517392604405,-35.05694352159469
2.8745141034585866,-42.05694352159469
2.8755108143127677,-42.05694352159469
2.8765075251669487,-41.05694352159469
2.87750423602113,-28.05694352159469
2.8785009468753113,-20.05694352159469
2.8794976577294924,-9.05694352159469
2.8804943685836735,1.9430564784053104
2.881491079437855,11.94305647840531
2.882487790292036,21.94305647840531
2.883484501146217,29.94305647840531
2.8844812120003986,35.94305647840531
2.8854779228545797,34.94305647840531
2.886474633708761,37.94305647840531
2.887471344562942,31.94305647840531
2.8884680554171234,27.94305647840531
2.8894647662713044,16.94305647840531
2.8904614771254855,1.9430564784053104
2.891458187979667,-10.05694352159469
2.892454898833848,-15.05694352159469
2.893451609688029,-32.05694352159469
2.8944483205422102,-40.05694352159469
2.8954450313963918,-42.05694352159469
2.896441742250573,-41.05694352159469
2.897438453104754,-29.05694352159469
2.8984351639589354,-19.05694352159469
2.8994318748131165,-10.05694352159469
2.9004285856672976,2.9430564784053104
2.901425296521479,11.94305647840531
2.90242200737566,14.94305647840531
2.903418718229841,28.94305647840531
2.9044154290840223,32.94305647840531
2.905412139938204,34.94305647840531
2.906408850792385,35.94305647840531
2.907405561646566,32.94305647840531
2.9084022725007475,27.94305647840531
2.9093989833549285,16.94305647840531
2.9103956942091096,0.9430564784053104
2.9113924050632907,-13.05694352159469
2.912389115917472,-20.05694352159469
2.9133858267716533,-35.05694352159469
2.9143825376258343,-41.05694352159469
2.915379248480016,-45.05694352159469
2.916375959334197,-41.05694352159469
2.917372670188378,-28.05694352159469
2.9183693810425595,-19.05694352159469
2.9193660918967406,-11.05694352159469
2.9203628027509216,3.9430564784053104
2.9213595136051027,8.94305647840531
2.9223562244592842,17.94305647840531
2.9233529353134653,29.94305647840531
2.9243496461676464,32.94305647840531
2.925346357021828,32.94305647840531
2.926343067876009,34.94305647840531
2.92733977873019,30.94305647840531
2.928336489584371,24.94305647840531
2.9293332004385526,14.94305647840531
2.9303299112927337,1.9430564784053104
2.9313266221469148,-9.05694352159469
2.9323233330010963,-18.05694352159469
2.9333200438552773,-34.05694352159469
2.9343167547094584,-39.05694352159469
2.93531346556364,-42.05694352159469
2.936310176417821,-40.05694352159469
2.937306887272002,-29.05694352159469
2.938303598126183,-18.05694352159469
2.9393003089803647,-10.05694352159469
2.9402970198345457,2.9430564784053104
2.941293730688727,9.94305647840531
2.9422904415429083,16.94305647840531
2.9432871523970894,28.94305647840531
2.9442838632512704,32.94305647840531
2.9452805741054515,35.94305647840531
2.946277284959633,37.94305647840531
2.947273995813814,34.94305647840531
2.948270706667995,27.94305647840531
2.9492674175221767,15.94305647840531
2.9502641283763578,2.9430564784053104
2.951260839230539,-8.05694352159469
2.9522575500847204,-17.05694352159469
2.9532542609389014,-35.05694352159469
2.9542509717930825,-41.05694352159469
2.9552476826472636,-42.05694352159469
2.956244393501445,-40.05694352159469
2.957241104355626,-29.05694352159469
2.958237815209807,-20.05694352159469
2.9592345260639887,-10.05694352159469
2.96023123691817,2.9430564784053104
2.961227947772351,11.94305647840531
2.9622246586265324,18.94305647840531
2.9632213694807135,29.94305647840531
2.9642180803348945,33.94305647840531
2.9652147911890756,35.94305647840531
2.966211502043257,33.94305647840531
2.967208212897438,30.94305647840531
2.9682049237516193,28.94305647840531
2.9692016346058008,13.94305647840531
2.970198345459982,-0.05694352159468963
2.971195056314163,-11.05694352159469
2.972191767168344,-18.05694352159469
2.9731884780225255,-31.05694352159469
2.9741851888767066,-38.05694352159469
2.9751818997308876,-41.05694352159469
2.976178610585069,-40.05694352159469
2.9771753214392502,-29.05694352159469
2.9781720322934313,-20.05694352159469
2.979168743147613,-10.05694352159469
2.980165454001794,2.9430564784053104
2.981162164855975,12.94305647840531
2.982158875710156,17.94305647840531
2.9831555865643375,28.94305647840531
2.9841522974185186,29.94305647840531
2.9851490082726997,35.94305647840531
2.986145719126881,38.94305647840531
2.9871424299810623,35.94305647840531
2.9881391408352433,29.94305647840531
2.9891358516894244,15.94305647840531
2.990132562543606,0.9430564784053104
2.991129273397787,-11.05694352159469
2.992125984251968,-17.05694352159469
2.9931226951061496,-32.05694352159469
2.9941194059603307,-39.05694352159469
2.9951161168145117,-41.05694352159469
2.9961128276686932,-40.05694352159469
2.9971095385228743,-31.05694352159469
2.9981062493770554,-19.05694352159469
2.9991029602312365,-10.05694352159469
3.000099671085418,3.9430564784053104
3.001096381939599,10.94305647840531
3.00209309279378,16.94305647840531
3.0030898036479616,28.94305647840531
3.0040865145021427,32.94305647840531
3.0050832253563238,34.94305647840531
3.006079936210505,37.94305647840531
3.0070766470646864,32.94305647840531
3.0080733579188674,24.94305647840531
3.0090700687730485,13.94305647840531
3.01006677962723,-0.05694352159468963
3.011063490481411,-11.05694352159469
3.012060201335592,-17.05694352159469
3.0130569121897737,-35.05694352159469
3.0140536230439547,-38.05694352159469
3.015050333898136,-41.05694352159469
3.016047044752317,-40.05694352159469
3.0170437556064984,-30.05694352159469
3.0180404664606795,-18.05694352159469
3.0190371773148605,-6.05694352159469
3.020033888169042,4.94305647840531
3.021030599023223,13.94305647840531
3.022027309877404,19.94305647840531
3.0230240207315853,31.94305647840531
3.024020731585767,33.94305647840531
3.025017442439948,33.94305647840531
3.026014153294129,36.94305647840531
3.0270108641483104,32.94305647840531
3.0280075750024915,24.94305647840531
3.0290042858566726,13.94305647840531
3.030000996710854,-0.05694352159468963
3.030997707565035,-12.05694352159469
3.0319944184192162,-20.05694352159469
3.0329911292733973,-34.05694352159469
3.033987840127579,-43.05694352159469
3.03498455098176,-43.05694352159469
3.035981261835941,-41.05694352159469
3.0369779726901225,-29.05694352159469
3.0379746835443036,-20.05694352159469
3.0389713943984846,-11.05694352159469
3.039968105252666,2.9430564784053104
3.040964816106847,9.94305647840531
3.0419615269610283,20.94305647840531
3.0429582378152094,31.94305647840531
3.043954948669391,32.94305647840531
3.044951659523572,35.94305647840531
3.045948370377753,36.94305647840531
3.0469450812319345,29.94305647840531
3.0479417920861156,24.94305647840531
3.0489385029402967,13.94305647840531
3.0499352137944777,0.9430564784053104
3.0509319246486593,-13.05694352159469
3.0519286355028403,-18.05694352159469
3.0529253463570214,-35.05694352159469
3.053922057211203,-39.05694352159469
3.054918768065384,-42.05694352159469
3.055915478919565,-39.05694352159469
3.0569121897737466,-28.05694352159469
3.0579089006279276,-20.05694352159469
3.0589056114821087,-11.05694352159469
3.05990232233629,3.9430564784053104
3.0608990331904713,13.94305647840531
3.0618957440446524,18.94305647840531
3.0628924548988334,32.94305647840531
3.063889165753015,34.94305647840531
3.064885876607196,35.94305647840531
3.065882587461377,33.94305647840531
3.066879298315558,32.94305647840531
3.0678760091697397,27.94305647840531
3.0688727200239208,15.94305647840531
3.069869430878102,0.9430564784053104
3.0708661417322833,-10.05694352159469
3.0718628525864644,-20.05694352159469
3.0728595634406455,-34.05694352159469
3.073856274294827,-39.05694352159469
3.074852985149008,-42.05694352159469
3.075849696003189,-39.05694352159469
3.07684640685737,-28.05694352159469
3.0778431177115517,-22.05694352159469
3.078839828565733,-8.05694352159469
3.079836539419914,2.9430564784053104
3.0808332502740954,10.94305647840531
3.0818299611282765,17.94305647840531
3.0828266719824575,28.94305647840531
3.0838233828366386,35.94305647840531
3.08482009369082,37.94305647840531
3.085816804545001,37.94305647840531
3.0868135153991823,35.94305647840531
3.0878102262533638,26.94305647840531
3.088806937107545,16.94305647840531
3.089803647961726,-0.05694352159468963
3.0908003588159074,-10.05694352159469
3.0917970696700885,-20.05694352159469
3.0927937805242696,-34.05694352159469
3.0937904913784506,-41.05694352159469
3.094787202232632,-43.05694352159469
3.095783913086813,-42.05694352159469
3.0967806239409943,-30.05694352159469
3.097777334795176,-20.05694352159469
3.098774045649357,-11.05694352159469
3.099770756503538,3.9430564784053104
3.1007674673577195,10.94305647840531
3.1017641782119005,14.94305647840531
3.1027608890660816,29.94305647840531
3.1037575999202627,33.94305647840531
3.104754310774444,35.94305647840531
3.1057510216286253,35.94305647840531
3.1067477324828063,28.94305647840531
3.107744443336988,23.94305647840531
3.108741154191169,16.94305647840531
3.10973786504535,-2.0569435215946896
3.110734575899531,-10.05694352159469
3.1117312867537126,-20.05694352159469
3.1127279976078936,-33.05694352159469
3.1137247084620747,-43.05694352159469
3.1147214193162562,-41.05694352159469
3.1157181301704373,-39.05694352159469
3.1167148410246184,-29.05694352159469
3.1177115518788,-20.05694352159469
3.118708262732981,-10.05694352159469
3.119704973587162,4.94305647840531
3.120701684441343,10.94305647840531
3.1216983952955246,18.94305647840531
3.1226951061497057,32.94305647840531
3.1236918170038868,35.94305647840531
3.1246885278580683,34.94305647840531
3.1256852387122493,34.94305647840531
3.1266819495664304,34.94305647840531
3.1276786604206115,28.94305647840531
3.128675371274793,15.94305647840531
3.129672082128974,-0.05694352159468963
3.130668792983155,-9.05694352159469
3.1316655038373367,-19.05694352159469
3.1326622146915177,-34.05694352159469
3.133658925545699,-42.05694352159469
3.1346556363998803,-41.05694352159469
3.1356523472540614,-39.05694352159469
3.1366490581082425,-27.05694352159469
3.1376457689624235,-18.05694352159469
3.138642479816605,-6.05694352159469
3.139639190670786,4.94305647840531
3.140635901524967,8.94305647840531
3.1416326123791487,17.94305647840531
3.1426293232333298,32.94305647840531
3.143626034087511,33.94305647840531
3.144622744941692,35.94305647840531
3.1456194557958734,35.94305647840531
3.1466161666500545,32.94305647840531
3.1476128775042356,23.94305647840531
3.148609588358417,15.94305647840531
3.149606299212598,1.9430564784053104
3.1506030100667792,-10.05694352159469
3.1515997209209607,-19.05694352159469
3.152596431775142,-35.05694352159469
3.153593142629323,-44.05694352159469
3.154589853483504,-46.05694352159469
3.1555865643376855,-41.05694352159469
3.1565832751918665,-29.05694352159469
3.1575799860460476,-18.05694352159469
3.158576696900229,-8.05694352159469
3.15957340775441,4.94305647840531
3.1605701186085913,13.94305647840531
3.1615668294627723,20.94305647840531
3.162563540316954,34.94305647840531
3.163560251171135,35.94305647840531
3.164556962025316,36.94305647840531
3.1655536728794975,39.94305647840531
3.1665503837336786,34.94305647840531
3.1675470945878597,27.94305647840531
3.168543805442041,17.94305647840531
3.1695405162962222,4.94305647840531
3.1705372271504033,-10.05694352159469
3.1715339380045844,-20.05694352159469
3.172530648858766,-34.05694352159469
3.173527359712947,-41.05694352159469
3.174524070567128,-41.05694352159469
3.1755207814213096,-39.05694352159469
3.1765174922754906,-30.05694352159469
3.1775142031296717,-21.05694352159469
3.178510913983853,-11.05694352159469
3.1795076248380343,2.9430564784053104
3.1805043356922154,10.94305647840531
3.1815010465463964,17.94305647840531
3.182497757400578,29.94305647840531
3.183494468254759,33.94305647840531
3.18449117910894,35.94305647840531
3.1854878899631216,35.94305647840531
3.1864846008173027,32.94305647840531
3.1874813116714837,24.94305647840531
3.188478022525665,13.94305647840531
3.1894747333798463,0.9430564784053104
3.1904714442340274,-10.05694352159469
3.1914681550882085,-16.05694352159469
3.19246486594239,-32.05694352159469
3.193461576796571,-44.05694352159469
3.194458287650752,-44.05694352159469
3.1954549985049336,-39.05694352159469
3.1964517093591147,-29.05694352159469
3.197448420213296,-20.05694352159469
3.198445131067477,-10.05694352159469
3.1994418419216584,4.94305647840531
3.2004385527758394,11.94305647840531
3.2014352636300205,19.94305647840531
3.202431974484202,31.94305647840531
3.203428685338383,34.94305647840531
3.204425396192564,35.94305647840531
3.2054221070467452,35.94305647840531
3.2064188179009268,32.94305647840531
3.207415528755108,27.94305647840531
