Time,EMG
0.0,19.034950166112935
0.000996710854181202,21.034950166112935
0.001993421708362404,18.034950166112935
0.002990132562543606,15.034950166112935
0.003986843416724808,10.034950166112935
0.00498355427090601,3.034950166112935
0.005980265125087212,-1.9650498338870648
0.006976975979268414,-7.965049833887065
0.007973686833449616,-14.965049833887065
0.008970397687630818,-19.965049833887065
0.00996710854181202,-20.965049833887065
0.01096381939599322,-18.965049833887065
0.011960530250174423,-15.965049833887065
0.012957241104355626,-11.965049833887065
0.013953951958536827,-9.965049833887065
0.014950662812718028,-2.965049833887065
0.01594737366689923,3.034950166112935
0.016944084521080434,5.034950166112935
0.017940795375261637,11.034950166112935
0.018937506229442836,13.034950166112935
0.01993421708362404,18.034950166112935
0.02093092793780524,21.034950166112935
0.02192763879198644,19.034950166112935
0.022924349646167644,12.034950166112935
0.023921060500348847,10.034950166112935
0.02491777135453005,4.034950166112935
0.025914482208711252,-0.9650498338870648
0.02691119306289245,-4.965049833887065
0.027907903917073654,-10.965049833887065
0.028904614771254857,-18.965049833887065
0.029901325625436057,-20.965049833887065
0.03089803647961726,-20.965049833887065
0.03189474733379846,-15.965049833887065
0.032891458187979665,-11.965049833887065
0.03388816904216087,-6.965049833887065
0.03488487989634207,-1.9650498338870648
0.03588159075052327,2.034950166112935
0.03687830160470447,8.034950166112935
0.03787501245888567,14.034950166112935
0.038871723313066875,16.034950166112935
0.03986843416724808,17.034950166112935
0.04086514502142928,17.034950166112935
0.04186185587561048,18.034950166112935
0.042858566729791686,17.034950166112935
0.04385527758397288,10.034950166112935
0.044851988438154085,4.034950166112935
0.04584869929233529,-3.965049833887065
0.04684541014651649,-4.965049833887065
0.04784212100069769,-12.965049833887065
0.048838831854878896,-15.965049833887065
0.0498355427090601,-19.965049833887065
0.0508322535632413,-21.965049833887065
0.051828964417422504,-16.965049833887065
0.0528256752716037,-12.965049833887065
0.0538223861257849,-6.965049833887065
0.054819096979966106,0.03495016611293522
0.05581580783414731,4.034950166112935
0.05681251868832851,6.034950166112935
0.057809229542509714,14.034950166112935
0.05880594039669092,15.034950166112935
0.05980265125087211,17.034950166112935
0.060799362105053316,21.034950166112935
0.06179607295923452,19.034950166112935
0.06279278381341573,17.034950166112935
0.06378949466759692,14.034950166112935
0.06478620552177812,6.034950166112935
0.06578291637595933,-1.9650498338870648
0.06677962723014053,-6.965049833887065
0.06777633808432174,-14.965049833887065
0.06877304893850293,-19.965049833887065
0.06976975979268414,-20.965049833887065
0.07076647064686534,-19.965049833887065
0.07176318150104655,-19.965049833887065
0.07275989235522774,-14.965049833887065
0.07375660320940894,-10.965049833887065
0.07475331406359015,-2.965049833887065
0.07575002491777134,2.034950166112935
0.07674673577195255,5.034950166112935
0.07774344662613375,11.034950166112935
0.07874015748031496,16.034950166112935
0.07973686833449616,18.034950166112935
0.08073357918867735,18.034950166112935
0.08173029004285856,17.034950166112935
0.08272700089703976,15.034950166112935
0.08372371175122097,11.034950166112935
0.08472042260540216,5.034950166112935
0.08571713345958337,-2.965049833887065
0.08671384431376457,-4.965049833887065
0.08771055516794576,-11.965049833887065
0.08870726602212697,-18.965049833887065
0.08970397687630817,-19.965049833887065
0.09070068773048938,-20.965049833887065
0.09169739858467058,-19.965049833887065
0.09269410943885178,-11.965049833887065
0.09369082029303298,-10.965049833887065
0.09468753114721419,-2.965049833887065
0.09568424200139539,2.034950166112935
0.09668095285557658,5.034950166112935
0.09767766370975779,12.034950166112935
0.09867437456393899,17.034950166112935
0.0996710854181202,20.034950166112935
0.1006677962723014,19.034950166112935
0.1016645071264826,20.034950166112935
0.1026612179806638,17.034950166112935
0.10365792883484501,12.034950166112935
0.1046546396890262,5.034950166112935
0.1056513505432074,-0.9650498338870648
0.10664806139738861,-2.965049833887065
0.1076447722515698,-12.965049833887065
0.10864148310575102,-17.965049833887065
0.10963819395993221,-20.965049833887065
0.11063490481411342,-20.965049833887065
0.11163161566829462,-17.965049833887065
0.11262832652247581,-14.965049833887065
0.11362503737665702,-10.965049833887065
0.11462174823083822,-1.9650498338870648
0.11561845908501943,4.034950166112935
0.11661516993920062,7.034950166112935
0.11761188079338183,12.034950166112935
0.11860859164756303,16.034950166112935
0.11960530250174423,18.034950166112935
0.12060201335592544,20.034950166112935
0.12159872421010663,19.034950166112935
0.12259543506428784,16.034950166112935
0.12359214591846904,11.034950166112935
0.12458885677265025,6.034950166112935
0.12558556762683146,-1.9650498338870648
0.12658227848101264,-3.965049833887065
0.12757898933519385,-11.965049833887065
0.12857570018937506,-18.965049833887065
0.12957241104355624,-20.965049833887065
0.13056912189773745,-23.965049833887065
0.13156583275191866,-19.965049833887065
0.13256254360609987,-12.965049833887065
0.13355925446028105,-8.965049833887065
0.13455596531446226,-2.965049833887065
0.13555267616864347,3.034950166112935
0.13654938702282465,5.034950166112935
0.13754609787700586,13.034950166112935
0.13854280873118707,15.034950166112935
0.13953951958536828,17.034950166112935
0.14053623043954946,17.034950166112935
0.14153294129373067,16.034950166112935
0.14252965214791188,14.034950166112935
0.1435263630020931,9.034950166112935
0.14452307385627428,4.034950166112935
0.14551978471045549,-1.9650498338870648
0.1465164955646367,-6.965049833887065
0.14751320641881788,-11.965049833887065
0.1485099172729991,-17.965049833887065
0.1495066281271803,-20.965049833887065
0.1505033389813615,-22.965049833887065
0.1515000498355427,-17.965049833887065
0.1524967606897239,-14.965049833887065
0.1534934715439051,-9.965049833887065
0.1544901823980863,-2.965049833887065
0.1554868932522675,4.034950166112935
0.1564836041064487,6.034950166112935
0.15748031496062992,11.034950166112935
0.1584770258148111,12.034950166112935
0.1594737366689923,16.034950166112935
0.16047044752317352,18.034950166112935
0.1614671583773547,18.034950166112935
0.1624638692315359,19.034950166112935
0.16346058008571712,12.034950166112935
0.16445729093989833,7.034950166112935
0.1654540017940795,-0.9650498338870648
0.16645071264826072,-3.965049833887065
0.16744742350244193,-11.965049833887065
0.16844413435662312,-17.965049833887065
0.16944084521080433,-20.965049833887065
0.17043755606498553,-20.965049833887065
0.17143426691916674,-18.965049833887065
0.17243097777334793,-11.965049833887065
0.17342768862752914,-9.965049833887065
0.17442439948171035,-3.965049833887065
0.17542111033589153,2.034950166112935
0.17641782119007274,5.034950166112935
0.17741453204425395,13.034950166112935
0.17841124289843516,16.034950166112935
0.17940795375261634,18.034950166112935
0.18040466460679755,20.034950166112935
0.18140137546097876,19.034950166112935
0.18239808631515997,17.034950166112935
0.18339479716934115,13.034950166112935
0.18439150802352236,6.034950166112935
0.18538821887770357,-0.9650498338870648
0.18638492973188475,-4.965049833887065
0.18738164058606596,-11.965049833887065
0.18837835144024717,-17.965049833887065
0.18937506229442838,-23.965049833887065
0.19037177314860956,-21.965049833887065
0.19136848400279077,-19.965049833887065
0.19236519485697198,-12.965049833887065
0.19336190571115316,-10.965049833887065
0.19435861656533437,-3.965049833887065
0.19535532741951558,1.0349501661129352
0.1963520382736968,5.034950166112935
0.19734874912787798,12.034950166112935
0.19834545998205919,14.034950166112935
0.1993421708362404,18.034950166112935
0.20033888169042158,18.034950166112935
0.2013355925446028,19.034950166112935
0.202332303398784,17.034950166112935
0.2033290142529652,11.034950166112935
0.2043257251071464,7.034950166112935
0.2053224359613276,1.0349501661129352
0.2063191468155088,-4.965049833887065
0.20731585766969002,-13.965049833887065
0.2083125685238712,-17.965049833887065
0.2093092793780524,-20.965049833887065
0.21030599023223362,-20.965049833887065
0.2113027010864148,-19.965049833887065
0.212299411940596,-15.965049833887065
0.21329612279477722,-7.965049833887065
0.21429283364895843,-1.9650498338870648
0.2152895445031396,3.034950166112935
0.21628625535732082,4.034950166112935
0.21728296621150203,11.034950166112935
0.21827967706568321,17.034950166112935
0.21927638791986442,19.034950166112935
0.22027309877404563,20.034950166112935
0.22126980962822684,20.034950166112935
0.22226652048240803,17.034950166112935
0.22326323133658924,12.034950166112935
0.22425994219077044,6.034950166112935
0.22525665304495163,-0.9650498338870648
0.22625336389913284,-3.965049833887065
0.22725007475331405,-10.965049833887065
0.22824678560749526,-18.965049833887065
0.22924349646167644,-18.965049833887065
0.23024020731585765,-19.965049833887065
0.23123691817003886,-19.965049833887065
0.23223362902422004,-13.965049833887065
0.23323033987840125,-7.965049833887065
0.23422705073258246,-3.965049833887065
0.23522376158676367,3.034950166112935
0.23622047244094485,5.034950166112935
0.23721718329512606,12.034950166112935
0.23821389414930727,18.034950166112935
0.23921060500348845,17.034950166112935
0.24020731585766966,19.034950166112935
0.24120402671185087,18.034950166112935
0.24220073756603208,20.034950166112935
0.24319744842021326,12.034950166112935
0.24419415927439447,8.034950166112935
0.24519087012857568,-0.9650498338870648
0.2461875809827569,-4.965049833887065
0.24718429183693807,-12.965049833887065
0.24818100269111928,-18.965049833887065
0.2491777135453005,-21.965049833887065
0.2501744243994817,-20.965049833887065
0.2511711352536629,-17.965049833887065
0.2521678461078441,-16.965049833887065
0.2531645569620253,-11.965049833887065
0.2541612678162065,-4.965049833887065
0.2551579786703877,1.0349501661129352
0.2561546895245689,4.034950166112935
0.2571514003787501,13.034950166112935
0.2581481112329313,16.034950166112935
0.2591448220871125,18.034950166112935
0.2601415329412937,15.034950166112935
0.2611382437954749,17.034950166112935
0.26213495464965614,18.034950166112935
0.2631316655038373,12.034950166112935
0.2641283763580185,6.034950166112935
0.26512508721219974,1.0349501661129352
0.2661217980663809,-3.965049833887065
0.2671185089205621,-11.965049833887065
0.26811521977474334,-19.965049833887065
0.2691119306289245,-21.965049833887065
0.2701086414831057,-21.965049833887065
0.27110535233728694,-19.965049833887065
0.2721020631914681,-13.965049833887065
0.2730987740456493,-10.965049833887065
0.27409548489983054,-5.965049833887065
0.2750921957540117,-0.9650498338870648
0.27608890660819296,3.034950166112935
0.27708561746237415,11.034950166112935
0.2780823283165553,16.034950166112935
0.27907903917073656,20.034950166112935
0.28007575002491775,19.034950166112935
0.28107246087909893,19.034950166112935
0.28206917173328017,17.034950166112935
0.28306588258746135,12.034950166112935
0.28406259344164253,6.034950166112935
0.28505930429582377,-2.965049833887065
0.28605601515000495,-5.965049833887065
0.2870527260041862,-11.965049833887065
0.28804943685836737,-15.965049833887065
0.28904614771254855,-21.965049833887065
0.2900428585667298,-22.965049833887065
0.29103956942091097,-22.965049833887065
0.29203628027509215,-14.965049833887065
0.2930329911292734,-9.965049833887065
0.29402970198345457,-4.965049833887065
0.29502641283763575,0.03495016611293522
0.296023123691817,6.034950166112935
0.2970198345459982,12.034950166112935
0.29801654540017936,15.034950166112935
0.2990132562543606,18.034950166112935
0.3000099671085418,17.034950166112935
0.301006677962723,20.034950166112935
0.3020033888169042,17.034950166112935
0.3030000996710854,13.034950166112935
0.3039968105252666,7.034950166112935
0.3049935213794478,2.034950166112935
0.305990232233629,-4.965049833887065
0.3069869430878102,-10.965049833887065
0.3079836539419914,-19.965049833887065
0.3089803647961726,-20.965049833887065
0.3099770756503538,-19.965049833887065
0.310973786504535,-19.965049833887065
0.3119704973587162,-13.965049833887065
0.3129672082128974,-8.965049833887065
0.3139639190670786,-2.965049833887065
0.31496062992125984,2.034950166112935
0.315957340775441,7.034950166112935
0.3169540516296222,12.034950166112935
0.31795076248380344,14.034950166112935
0.3189474733379846,19.034950166112935
0.3199441841921658,19.034950166112935
0.32094089504634704,19.034950166112935
0.3219376059005282,18.034950166112935
0.3229343167547094,12.034950166112935
0.32393102760889064,8.034950166112935
0.3249277384630718,1.0349501661129352
0.32592444931725306,-3.965049833887065
0.32692116017143424,-10.965049833887065
0.3279178710256154,-15.965049833887065
0.32891458187979666,-20.965049833887065
0.32991129273397785,-20.965049833887065
0.330908003588159,-19.965049833887065
0.33190471444234027,-12.965049833887065
0.33290142529652145,-11.965049833887065
0.33389813615070263,-5.965049833887065
0.33489484700488387,1.0349501661129352
0.33589155785906505,5.034950166112935
0.33688826871324623,10.034950166112935
0.33788497956742747,15.034950166112935
0.33888169042160865,17.034950166112935
0.3398784012757899,17.034950166112935
0.34087511212997107,21.034950166112935
0.34187182298415225,18.034950166112935
0.3428685338383335,15.034950166112935
0.34386524469251467,7.034950166112935
0.34486195554669585,1.0349501661129352
0.3458586664008771,-6.965049833887065
0.3468553772550583,-10.965049833887065
0.34785208810923945,-16.965049833887065
0.3488487989634207,-20.965049833887065
0.3498455098176019,-20.965049833887065
0.35084222067178306,-19.965049833887065
0.3518389315259643,-13.965049833887065
0.3528356423801455,-10.965049833887065
0.3538323532343267,-6.965049833887065
0.3548290640885079,1.0349501661129352
0.3558257749426891,5.034950166112935
0.3568224857968703,11.034950166112935
0.3578191966510515,13.034950166112935
0.3588159075052327,16.034950166112935
0.3598126183594139,16.034950166112935
0.3608093292135951,19.034950166112935
0.3618060400677763,16.034950166112935
0.3628027509219575,14.034950166112935
0.3637994617761387,9.034950166112935
0.36479617263031994,2.034950166112935
0.3657928834845011,-3.965049833887065
0.3667895943386823,-8.965049833887065
0.36778630519286354,-19.965049833887065
0.3687830160470447,-22.965049833887065
0.3697797269012259,-20.965049833887065
0.37077643775540714,-18.965049833887065
0.3717731486095883,-15.965049833887065
0.3727698594637695,-11.965049833887065
0.37376657031795074,-4.965049833887065
0.3747632811721319,-0.9650498338870648
0.3757599920263131,6.034950166112935
0.37675670288049434,12.034950166112935
0.3777534137346755,17.034950166112935
0.37875012458885676,17.034950166112935
0.37974683544303794,17.034950166112935
0.3807435462972191,20.034950166112935
0.38174025715140036,17.034950166112935
0.38273696800558155,14.034950166112935
0.38373367885976273,9.034950166112935
0.38473038971394397,2.034950166112935
0.38572710056812515,-1.9650498338870648
0.38672381142230633,-8.965049833887065
0.38772052227648757,-16.965049833887065
0.38871723313066875,-18.965049833887065
0.38971394398485,-23.965049833887065
0.39071065483903117,-19.965049833887065
0.39170736569321235,-14.965049833887065
0.3927040765473936,-12.965049833887065
0.39370078740157477,-6.965049833887065
0.39469749825575595,-1.9650498338870648
0.3956942091099372,4.034950166112935
0.39669091996411837,8.034950166112935
0.39768763081829955,14.034950166112935
0.3986843416724808,17.034950166112935
0.399681052526662,17.034950166112935
0.40067776338084315,18.034950166112935
0.4016744742350244,17.034950166112935
0.4026711850892056,12.034950166112935
0.4036678959433868,10.034950166112935
0.404664606797568,0.03495016611293522
0.4056613176517492,-3.965049833887065
0.4066580285059304,-9.965049833887065
0.4076547393601116,-16.965049833887065
0.4086514502142928,-19.965049833887065
0.409648161068474,-21.965049833887065
0.4106448719226552,-18.965049833887065
0.4116415827768364,-14.965049833887065
0.4126382936310176,-11.965049833887065
0.4136350044851988,-7.965049833887065
0.41463171533938004,-1.9650498338870648
0.4156284261935612,3.034950166112935
0.4166251370477424,8.034950166112935
0.41762184790192364,14.034950166112935
0.4186185587561048,16.034950166112935
0.419615269610286,16.034950166112935
0.42061198046446724,22.034950166112935
0.4216086913186484,21.034950166112935
0.4226054021728296,14.034950166112935
0.42360211302701084,9.034950166112935
0.424598823881192,1.0349501661129352
0.4255955347353732,-1.9650498338870648
0.42659224558955444,-9.965049833887065
0.4275889564437356,-13.965049833887065
0.42858566729791686,-19.965049833887065
0.42958237815209804,-19.965049833887065
0.4305790890062792,-21.965049833887065
0.43157579986046046,-15.965049833887065
0.43257251071464164,-10.965049833887065
0.4335692215688228,-5.965049833887065
0.43456593242300406,1.0349501661129352
0.43556264327718525,5.034950166112935
0.43655935413136643,9.034950166112935
0.43755606498554767,14.034950166112935
0.43855277583972885,17.034950166112935
0.43954948669391003,19.034950166112935
0.44054619754809127,22.034950166112935
0.44154290840227245,18.034950166112935
0.4425396192564537,12.034950166112935
0.44353633011063487,9.034950166112935
0.44453304096481605,2.034950166112935
0.4455297518189973,-3.965049833887065
0.44652646267317847,-8.965049833887065
0.44752317352735965,-16.965049833887065
0.4485198843815409,-17.965049833887065
0.44951659523572207,-19.965049833887065
0.45051330608990325,-19.965049833887065
0.4515100169440845,-15.965049833887065
0.4525067277982657,-10.965049833887065
0.4535034386524469,-5.965049833887065
0.4545001495066281,-0.9650498338870648
0.4554968603608093,3.034950166112935
0.4564935712149905,7.034950166112935
0.4574902820691717,13.034950166112935
0.4584869929233529,17.034950166112935
0.4594837037775341,20.034950166112935
0.4604804146317153,21.034950166112935
0.4614771254858965,19.034950166112935
0.4624738363400777,15.034950166112935
0.4634705471942589,11.034950166112935
0.4644672580484401,0.03495016611293522
0.4654639689026213,-3.965049833887065
0.4664606797568025,-8.965049833887065
0.46745739061098374,-15.965049833887065
0.4684541014651649,-20.965049833887065
0.4694508123193461,-22.965049833887065
0.47044752317352734,-19.965049833887065
0.4714442340277085,-16.965049833887065
0.4724409448818897,-13.965049833887065
0.47343765573607094,-7.965049833887065
0.4744343665902521,-0.9650498338870648
0.4754310774444333,3.034950166112935
0.47642778829861454,11.034950166112935
0.4774244991527957,14.034950166112935
0.4784212100069769,16.034950166112935
0.47941792086115814,16.034950166112935
0.4804146317153393,20.034950166112935
0.48141134256952056,20.034950166112935
0.48240805342370174,14.034950166112935
0.4834047642778829,8.034950166112935
0.48440147513206416,1.0349501661129352
0.48539818598624535,-4.965049833887065
0.4863948968404265,-9.965049833887065
0.48739160769460776,-15.965049833887065
0.48838831854878895,-18.965049833887065
0.48938502940297013,-19.965049833887065
0.49038174025715137,-23.965049833887065
0.49137845111133255,-14.965049833887065
0.4923751619655138,-10.965049833887065
0.49337187281969497,-4.965049833887065
0.49436858367387615,-0.9650498338870648
0.4953652945280574,3.034950166112935
0.49636200538223857,9.034950166112935
0.49735871623641975,13.034950166112935
0.498355427090601,15.034950166112935
0.49935213794478217,17.034950166112935
0.5003488487989634,21.034950166112935
0.5013455596531445,17.034950166112935
0.5023422705073258,14.034950166112935
0.503338981361507,9.034950166112935
0.5043356922156882,1.0349501661129352
0.5053324030698694,-3.965049833887065
0.5063291139240506,-4.965049833887065
0.5073258247782317,-15.965049833887065
0.508322535632413,-19.965049833887065
0.5093192464865942,-19.965049833887065
0.5103159573407754,-19.965049833887065
0.5113126681949566,-15.965049833887065
0.5123093790491378,-11.965049833887065
0.513306089903319,-6.965049833887065
0.5143028007575002,-1.9650498338870648
0.5152995116116814,3.034950166112935
0.5162962224658626,10.034950166112935
0.5172929333200438,12.034950166112935
0.518289644174225,16.034950166112935
0.5192863550284063,17.034950166112935
0.5202830658825874,20.034950166112935
0.5212797767367686,19.034950166112935
0.5222764875909498,16.034950166112935
0.523273198445131,8.034950166112935
0.5242699092993123,2.034950166112935
0.5252666201534935,-1.9650498338870648
0.5262633310076746,-7.965049833887065
0.5272600418618558,-15.965049833887065
0.528256752716037,-19.965049833887065
0.5292534635702182,-21.965049833887065
0.5302501744243995,-23.965049833887065
0.5312468852785807,-14.965049833887065
0.5322435961327618,-12.965049833887065
0.533240306986943,-4.965049833887065
0.5342370178411242,2.034950166112935
0.5352337286953054,4.034950166112935
0.5362304395494867,7.034950166112935
0.5372271504036679,17.034950166112935
0.538223861257849,14.034950166112935
0.5392205721120302,16.034950166112935
0.5402172829662114,19.034950166112935
0.5412139938203927,17.034950166112935
0.5422107046745739,16.034950166112935
0.5432074155287551,12.034950166112935
0.5442041263829362,1.0349501661129352
0.5452008372371174,-1.9650498338870648
0.5461975480912986,-6.965049833887065
0.5471942589454799,-16.965049833887065
0.5481909697996611,-20.965049833887065
0.5491876806538423,-23.965049833887065
0.5501843915080235,-18.965049833887065
0.5511811023622046,-15.965049833887065
0.5521778132163859,-11.965049833887065
0.5531745240705671,-6.965049833887065
0.5541712349247483,-1.9650498338870648
0.5551679457789295,3.034950166112935
0.5561646566331107,10.034950166112935
0.5571613674872918,13.034950166112935
0.5581580783414731,17.034950166112935
0.5591547891956543,18.034950166112935
0.5601515000498355,19.034950166112935
0.5611482109040167,19.034950166112935
0.5621449217581979,15.034950166112935
0.5631416326123792,11.034950166112935
0.5641383434665603,1.0349501661129352
0.5651350543207415,-4.965049833887065
0.5661317651749227,-6.965049833887065
0.5671284760291039,-15.965049833887065
0.5681251868832851,-19.965049833887065
0.5691218977374664,-20.965049833887065
0.5701186085916475,-18.965049833887065
0.5711153194458287,-11.965049833887065
0.5721120303000099,-10.965049833887065
0.5731087411541911,-7.965049833887065
0.5741054520083724,-0.9650498338870648
0.5751021628625536,4.034950166112935
0.5760988737167347,8.034950166112935
0.5770955845709159,13.034950166112935
0.5780922954250971,16.034950166112935
0.5790890062792783,18.034950166112935
0.5800857171334596,19.034950166112935
0.5810824279876408,17.034950166112935
0.5820791388418219,15.034950166112935
0.5830758496960031,12.034950166112935
0.5840725605501843,4.034950166112935
0.5850692714043655,-0.9650498338870648
0.5860659822585468,-6.965049833887065
0.587062693112728,-15.965049833887065
0.5880594039669091,-18.965049833887065
0.5890561148210903,-19.965049833887065
0.5900528256752715,-18.965049833887065
0.5910495365294528,-16.965049833887065
0.592046247383634,-11.965049833887065
0.5930429582378152,-6.965049833887065
0.5940396690919963,-2.965049833887065
0.5950363799461775,5.034950166112935
0.5960330908003587,9.034950166112935
0.59702980165454,15.034950166112935
0.5980265125087212,17.034950166112935
0.5990232233629024,17.034950166112935
0.6000199342170836,20.034950166112935
0.6010166450712647,18.034950166112935
0.602013355925446,14.034950166112935
0.6030100667796272,11.034950166112935
0.6040067776338084,3.034950166112935
0.6050034884879896,-3.965049833887065
0.6060001993421708,-6.965049833887065
0.6069969101963519,-16.965049833887065
0.6079936210505332,-19.965049833887065
0.6089903319047144,-18.965049833887065
0.6099870427588956,-20.965049833887065
0.6109837536130768,-18.965049833887065
0.611980464467258,-12.965049833887065
0.6129771753214392,-5.965049833887065
0.6139738861756204,-3.965049833887065
0.6149705970298016,3.034950166112935
0.6159673078839828,9.034950166112935
0.616964018738164,16.034950166112935
0.6179607295923452,19.034950166112935
0.6189574404465265,16.034950166112935
0.6199541513007076,20.034950166112935
0.6209508621548888,19.034950166112935
0.62194757300907,15.034950166112935
0.6229442838632512,11.034950166112935
0.6239409947174324,4.034950166112935
0.6249377055716137,-2.965049833887065
0.6259344164257948,-6.965049833887065
0.626931127279976,-15.965049833887065
0.6279278381341572,-19.965049833887065
0.6289245489883384,-19.965049833887065
0.6299212598425197,-22.965049833887065
0.6309179706967009,-16.965049833887065
0.631914681550882,-12.965049833887065
0.6329113924050632,-9.965049833887065
0.6339081032592444,-0.9650498338870648
0.6349048141134256,3.034950166112935
0.6359015249676069,7.034950166112935
0.6368982358217881,12.034950166112935
0.6378949466759692,18.034950166112935
0.6388916575301504,18.034950166112935
0.6398883683843316,19.034950166112935
0.6408850792385129,18.034950166112935
0.6418817900926941,13.034950166112935
0.6428785009468753,12.034950166112935
0.6438752118010564,3.034950166112935
0.6448719226552376,0.03495016611293522
0.6458686335094188,-7.965049833887065
0.6468653443636001,-14.965049833887065
0.6478620552177813,-15.965049833887065
0.6488587660719625,-20.965049833887065
0.6498554769261436,-20.965049833887065
0.6508521877803248,-16.965049833887065
0.6518488986345061,-13.965049833887065
0.6528456094886873,-7.965049833887065
0.6538423203428685,-1.9650498338870648
0.6548390311970497,3.034950166112935
0.6558357420512309,8.034950166112935
0.656832452905412,12.034950166112935
0.6578291637595933,15.034950166112935
0.6588258746137745,17.034950166112935
0.6598225854679557,19.034950166112935
0.6608192963221369,17.034950166112935
0.661816007176318,16.034950166112935
0.6628127180304992,12.034950166112935
0.6638094288846805,5.034950166112935
0.6648061397388617,-1.9650498338870648
0.6658028505930429,-6.965049833887065
0.6667995614472241,-13.965049833887065
0.6677962723014053,-19.965049833887065
0.6687929831555866,-23.965049833887065
0.6697896940097677,-21.965049833887065
0.6707864048639489,-13.965049833887065
0.6717831157181301,-10.965049833887065
0.6727798265723113,-7.965049833887065
0.6737765374264925,-1.9650498338870648
0.6747732482806738,5.034950166112935
0.6757699591348549,6.034950166112935
0.6767666699890361,12.034950166112935
0.6777633808432173,15.034950166112935
0.6787600916973985,17.034950166112935
0.6797568025515798,20.034950166112935
0.680753513405761,17.034950166112935
0.6817502242599421,16.034950166112935
0.6827469351141233,12.034950166112935
0.6837436459683045,3.034950166112935
0.6847403568224857,-1.9650498338870648
0.685737067676667,-4.965049833887065
0.6867337785308482,-12.965049833887065
0.6877304893850293,-17.965049833887065
0.6887272002392105,-21.965049833887065
0.6897239110933917,-22.965049833887065
0.690720621947573,-16.965049833887065
0.6917173328017542,-11.965049833887065
0.6927140436559354,-6.965049833887065
0.6937107545101165,-1.9650498338870648
0.6947074653642977,1.0349501661129352
0.6957041762184789,5.034950166112935
0.6967008870726602,14.034950166112935
0.6976975979268414,17.034950166112935
0.6986943087810226,17.034950166112935
0.6996910196352037,17.034950166112935
0.7006877304893849,20.034950166112935
0.7016844413435661,13.034950166112935
0.7026811521977474,8.034950166112935
0.7036778630519286,4.034950166112935
0.7046745739061098,-1.9650498338870648
0.705671284760291,-3.965049833887065
0.7066679956144721,-14.965049833887065
0.7076647064686534,-17.965049833887065
0.7086614173228346,-19.965049833887065
0.7096581281770158,-23.965049833887065
0.710654839031197,-19.965049833887065
0.7116515498853782,-12.965049833887065
0.7126482607395593,-7.965049833887065
0.7136449715937406,-3.965049833887065
0.7146416824479218,3.034950166112935
0.715638393302103,6.034950166112935
0.7166351041562842,12.034950166112935
0.7176318150104654,16.034950166112935
0.7186285258646467,16.034950166112935
0.7196252367188278,17.034950166112935
0.720621947573009,19.034950166112935
0.7216186584271902,16.034950166112935
0.7226153692813714,12.034950166112935
0.7236120801355526,4.034950166112935
0.7246087909897339,-2.965049833887065
0.725605501843915,-3.965049833887065
0.7266022126980962,-14.965049833887065
0.7275989235522774,-19.965049833887065
0.7285956344064586,-20.965049833887065
0.7295923452606399,-19.965049833887065
0.7305890561148211,-17.965049833887065
0.7315857669690022,-13.965049833887065
0.7325824778231834,-8.965049833887065
0.7335791886773646,-3.965049833887065
0.7345758995315458,3.034950166112935
0.7355726103857271,8.034950166112935
0.7365693212399083,14.034950166112935
0.7375660320940894,17.034950166112935
0.7385627429482706,18.034950166112935
0.7395594538024518,19.034950166112935
0.7405561646566331,19.034950166112935
0.7415528755108143,16.034950166112935
0.7425495863649955,11.034950166112935
0.7435462972191766,6.034950166112935
0.7445430080733578,-1.9650498338870648
0.745539718927539,-2.965049833887065
0.7465364297817203,-10.965049833887065
0.7475331406359015,-16.965049833887065
0.7485298514900827,-19.965049833887065
0.7495265623442638,-21.965049833887065
0.750523273198445,-15.965049833887065
0.7515199840526262,-11.965049833887065
0.7525166949068075,-7.965049833887065
0.7535134057609887,-4.965049833887065
0.7545101166151699,1.0349501661129352
0.755506827469351,8.034950166112935
0.7565035383235322,11.034950166112935
0.7575002491777135,15.034950166112935
0.7584969600318947,17.034950166112935
0.7594936708860759,17.034950166112935
0.7604903817402571,19.034950166112935
0.7614870925944383,14.034950166112935
0.7624838034486194,9.034950166112935
0.7634805143028007,5.034950166112935
0.7644772251569819,-2.965049833887065
0.7654739360111631,-4.965049833887065
0.7664706468653443,-13.965049833887065
0.7674673577195255,-19.965049833887065
0.7684640685737067,-21.965049833887065
0.7694607794278879,-18.965049833887065
0.7704574902820691,-19.965049833887065
0.7714542011362503,-13.965049833887065
0.7724509119904315,-8.965049833887065
0.7734476228446127,-4.965049833887065
0.774444333698794,3.034950166112935
0.7754410445529751,3.034950166112935
0.7764377554071563,12.034950166112935
0.7774344662613375,17.034950166112935
0.7784311771155187,20.034950166112935
0.7794278879697,17.034950166112935
0.7804245988238812,21.034950166112935
0.7814213096780623,16.034950166112935
0.7824180205322435,11.034950166112935
0.7834147313864247,5.034950166112935
0.7844114422406059,-0.9650498338870648
0.7854081530947872,-3.965049833887065
0.7864048639489684,-11.965049833887065
0.7874015748031495,-17.965049833887065
0.7883982856573307,-22.965049833887065
0.7893949965115119,-20.965049833887065
0.7903917073656931,-18.965049833887065
0.7913884182198744,-12.965049833887065
0.7923851290740556,-7.965049833887065
0.7933818399282367,-4.965049833887065
0.7943785507824179,1.0349501661129352
0.7953752616365991,6.034950166112935
0.7963719724907804,12.034950166112935
0.7973686833449616,17.034950166112935
0.7983653941991428,18.034950166112935
0.799362105053324,20.034950166112935
0.8003588159075051,20.034950166112935
0.8013555267616863,12.034950166112935
0.8023522376158676,11.034950166112935
0.8033489484700488,4.034950166112935
0.80434565932423,-2.965049833887065
0.8053423701784111,-5.965049833887065
0.8063390810325923,-13.965049833887065
0.8073357918867736,-16.965049833887065
0.8083325027409548,-20.965049833887065
0.809329213595136,-21.965049833887065
0.8103259244493172,-19.965049833887065
0.8113226353034984,-11.965049833887065
0.8123193461576795,-8.965049833887065
0.8133160570118608,-2.965049833887065
0.814312767866042,2.034950166112935
0.8153094787202232,4.034950166112935
0.8163061895744044,10.034950166112935
0.8173029004285856,16.034950166112935
0.8182996112827668,19.034950166112935
0.819296322136948,20.034950166112935
0.8202930329911292,19.034950166112935
0.8212897438453104,15.034950166112935
0.8222864546994916,13.034950166112935
0.8232831655536728,5.034950166112935
0.824279876407854,0.03495016611293522
0.8252765872620352,-3.965049833887065
0.8262732981162164,-12.965049833887065
0.8272700089703976,-18.965049833887065
0.8282667198245788,-19.965049833887065
0.8292634306787601,-20.965049833887065
0.8302601415329413,-20.965049833887065
0.8312568523871224,-12.965049833887065
0.8322535632413036,-10.965049833887065
0.8332502740954848,-4.965049833887065
0.834246984949666,1.0349501661129352
0.8352436958038473,5.034950166112935
0.8362404066580285,11.034950166112935
0.8372371175122096,17.034950166112935
0.8382338283663908,19.034950166112935
0.839230539220572,19.034950166112935
0.8402272500747532,20.034950166112935
0.8412239609289345,16.034950166112935
0.8422206717831157,13.034950166112935
0.8432173826372968,6.034950166112935
0.844214093491478,1.0349501661129352
0.8452108043456592,-6.965049833887065
0.8462075151998405,-11.965049833887065
0.8472042260540217,-16.965049833887065
0.8482009369082029,-21.965049833887065
0.849197647762384,-23.965049833887065
0.8501943586165652,-18.965049833887065
0.8511910694707464,-12.965049833887065
0.8521877803249277,-9.965049833887065
0.8531844911791089,-6.965049833887065
0.8541812020332901,2.034950166112935
0.8551779128874712,6.034950166112935
0.8561746237416524,13.034950166112935
0.8571713345958337,15.034950166112935
0.8581680454500149,17.034950166112935
0.8591647563041961,17.034950166112935
0.8601614671583773,20.034950166112935
0.8611581780125585,17.034950166112935
0.8621548888667396,13.034950166112935
0.8631515997209209,7.034950166112935
0.8641483105751021,-0.9650498338870648
0.8651450214292833,-4.965049833887065
0.8661417322834645,-10.965049833887065
0.8671384431376457,-18.965049833887065
0.868135153991827,-19.965049833887065
0.8691318648460081,-19.965049833887065
0.8701285757001893,-16.965049833887065
0.8711252865543705,-14.965049833887065
0.8721219974085517,-10.965049833887065
0.8731187082627329,-5.965049833887065
0.8741154191169141,0.03495016611293522
0.8751121299710953,8.034950166112935
0.8761088408252765,12.034950166112935
0.8771055516794577,14.034950166112935
0.8781022625336389,17.034950166112935
0.8790989733878201,19.034950166112935
0.8800956842420014,19.034950166112935
0.8810923950961825,15.034950166112935
0.8820891059503637,11.034950166112935
0.8830858168045449,8.034950166112935
0.8840825276587261,-0.9650498338870648
0.8850792385129074,-4.965049833887065
0.8860759493670886,-13.965049833887065
0.8870726602212697,-16.965049833887065
0.8880693710754509,-20.965049833887065
0.8890660819296321,-18.965049833887065
0.8900627927838133,-17.965049833887065
0.8910595036379946,-14.965049833887065
0.8920562144921758,-12.965049833887065
0.8930529253463569,-4.965049833887065
0.8940496362005381,0.03495016611293522
0.8950463470547193,5.034950166112935
0.8960430579089006,9.034950166112935
0.8970397687630818,16.034950166112935
0.898036479617263,19.034950166112935
0.8990331904714441,17.034950166112935
0.9000299013256253,18.034950166112935
0.9010266121798065,19.034950166112935
0.9020233230339878,14.034950166112935
0.903020033888169,9.034950166112935
0.9040167447423502,-1.9650498338870648
0.9050134555965313,-2.965049833887065
0.9060101664507125,-10.965049833887065
0.9070068773048938,-15.965049833887065
0.908003588159075,-20.965049833887065
0.9090002990132562,-21.965049833887065
0.9099970098674374,-17.965049833887065
0.9109937207216185,-15.965049833887065
0.9119904315757997,-7.965049833887065
0.912987142429981,-2.965049833887065
0.9139838532841622,1.0349501661129352
0.9149805641383434,5.034950166112935
0.9159772749925246,11.034950166112935
0.9169739858467058,17.034950166112935
0.9179706967008869,18.034950166112935
0.9189674075550682,20.034950166112935
0.9199641184092494,20.034950166112935
0.9209608292634306,14.034950166112935
0.9219575401176118,12.034950166112935
0.922954250971793,7.034950166112935
0.9239509618259742,1.0349501661129352
0.9249476726801554,-5.965049833887065
0.9259443835343366,-10.965049833887065
0.9269410943885178,-16.965049833887065
0.927937805242699,-21.965049833887065
0.9289345160968802,-23.965049833887065
0.9299312269510615,-16.965049833887065
0.9309279378052426,-14.965049833887065
0.9319246486594238,-10.965049833887065
0.932921359513605,-3.965049833887065
0.9339180703677862,1.0349501661129352
0.9349147812219675,3.034950166112935
0.9359114920761487,11.034950166112935
0.9369082029303298,14.034950166112935
0.937904913784511,18.034950166112935
0.9389016246386922,17.034950166112935
0.9398983354928734,20.034950166112935
0.9408950463470547,16.034950166112935
0.9418917572012359,14.034950166112935
0.942888468055417,8.034950166112935
0.9438851789095982,-0.9650498338870648
0.9448818897637794,-5.965049833887065
0.9458786006179607,-12.965049833887065
0.9468753114721419,-17.965049833887065
0.9478720223263231,-19.965049833887065
0.9488687331805042,-18.965049833887065
0.9498654440346854,-19.965049833887065
0.9508621548888666,-17.965049833887065
0.9518588657430479,-11.965049833887065
0.9528555765972291,-4.965049833887065
0.9538522874514103,-0.9650498338870648
0.9548489983055914,4.034950166112935
0.9558457091597726,10.034950166112935
0.9568424200139538,17.034950166112935
0.9578391308681351,17.034950166112935
0.9588358417223163,16.034950166112935
0.9598325525764975,17.034950166112935
0.9608292634306786,18.034950166112935
0.9618259742848598,14.034950166112935
0.9628226851390411,8.034950166112935
0.9638193959932223,0.03495016611293522
0.9648161068474035,-2.965049833887065
0.9658128177015847,-10.965049833887065
0.9668095285557659,-15.965049833887065
0.967806239409947,-21.965049833887065
0.9688029502641283,-20.965049833887065
0.9697996611183095,-18.965049833887065
0.9707963719724907,-14.965049833887065
0.9717930828266719,-9.965049833887065
0.972789793680853,-5.965049833887065
0.9737865045350343,3.034950166112935
0.9747832153892155,7.034950166112935
0.9757799262433967,9.034950166112935
0.9767766370975779,12.034950166112935
0.9777733479517591,17.034950166112935
0.9787700588059403,18.034950166112935
0.9797667696601216,21.034950166112935
0.9807634805143027,17.034950166112935
0.9817601913684839,12.034950166112935
0.9827569022226651,6.034950166112935
0.9837536130768463,1.0349501661129352
0.9847503239310276,-2.965049833887065
0.9857470347852088,-8.965049833887065
0.9867437456393899,-15.965049833887065
0.9877404564935711,-19.965049833887065
0.9887371673477523,-20.965049833887065
0.9897338782019335,-17.965049833887065
0.9907305890561148,-14.965049833887065
0.991727299910296,-10.965049833887065
0.9927240107644771,-6.965049833887065
0.9937207216186583,0.03495016611293522
0.9947174324728395,5.034950166112935
0.9957141433270208,9.034950166112935
0.996710854181202,14.034950166112935
0.9977075650353832,18.034950166112935
0.9987042758895643,18.034950166112935
0.9997009867437455,20.034950166112935
1.0006976975979267,16.034950166112935
1.001694408452108,12.034950166112935
1.002691119306289,8.034950166112935
1.0036878301604704,0.03495016611293522
1.0046845410146517,-3.965049833887065
1.0056812518688327,-12.965049833887065
1.006677962723014,-16.965049833887065
1.007674673577195,-19.965049833887065
1.0086713844313764,-21.965049833887065
1.0096680952855577,-21.965049833887065
1.0106648061397387,-15.965049833887065
1.01166151699392,-10.965049833887065
1.0126582278481011,-7.965049833887065
1.0136549387022824,-0.9650498338870648
1.0146516495564635,5.034950166112935
1.0156483604106448,8.034950166112935
1.016645071264826,14.034950166112935
1.0176417821190071,18.034950166112935
1.0186384929731884,17.034950166112935
1.0196352038273695,17.034950166112935
1.0206319146815508,18.034950166112935
1.021628625535732,16.034950166112935
1.0226253363899132,11.034950166112935
1.0236220472440944,0.03495016611293522
1.0246187580982755,-3.965049833887065
1.0256154689524568,-8.965049833887065
1.026612179806638,-15.965049833887065
1.0276088906608192,-22.965049833887065
1.0286056015150005,-21.965049833887065
1.0296023123691815,-18.965049833887065
1.0305990232233628,-14.965049833887065
1.031595734077544,-8.965049833887065
1.0325924449317252,-5.965049833887065
1.0335891557859065,0.03495016611293522
1.0345858666400876,5.034950166112935
1.0355825774942689,12.034950166112935
1.03657928834845,14.034950166112935
1.0375759992026312,17.034950166112935
1.0385727100568125,19.034950166112935
1.0395694209109936,20.034950166112935
1.0405661317651749,18.034950166112935
1.041562842619356,15.034950166112935
1.0425595534735372,7.034950166112935
1.0435562643277185,3.034950166112935
1.0445529751818996,-1.9650498338870648
1.045549686036081,-7.965049833887065
1.046546396890262,-15.965049833887065
1.0475431077444433,-18.965049833887065
1.0485398185986246,-20.965049833887065
1.0495365294528056,-17.965049833887065
1.050533240306987,-15.965049833887065
1.051529951161168,-11.965049833887065
1.0525266620153493,-6.965049833887065
1.0535233728695304,0.03495016611293522
1.0545200837237116,8.034950166112935
1.055516794577893,7.034950166112935
1.056513505432074,11.034950166112935
1.0575102162862553,17.034950166112935
1.0585069271404364,18.034950166112935
1.0595036379946177,19.034950166112935
1.060500348848799,17.034950166112935
1.06149705970298,13.034950166112935
1.0624937705571613,8.034950166112935
1.0634904814113424,2.034950166112935
1.0644871922655237,-2.965049833887065
1.065483903119705,-9.965049833887065
1.066480613973886,-16.965049833887065
1.0674773248280673,-18.965049833887065
1.0684740356822484,-20.965049833887065
1.0694707465364297,-23.965049833887065
1.0704674573906108,-17.965049833887065
1.071464168244792,-10.965049833887065
1.0724608790989734,-4.965049833887065
1.0734575899531544,1.0349501661129352
1.0744543008073357,4.034950166112935
1.0754510116615168,10.034950166112935
1.076447722515698,14.034950166112935
1.0774444333698794,17.034950166112935
1.0784411442240605,19.034950166112935
1.0794378550782417,18.034950166112935
1.0804345659324228,17.034950166112935
1.0814312767866041,16.034950166112935
1.0824279876407854,9.034950166112935
1.0834246984949665,4.034950166112935
1.0844214093491478,-5.965049833887065
1.0854181202033288,-11.965049833887065
1.0864148310575101,-15.965049833887065
1.0874115419116914,-19.965049833887065
1.0884082527658725,-20.965049833887065
1.0894049636200538,-19.965049833887065
1.0904016744742349,-14.965049833887065
1.0913983853284162,-9.965049833887065
1.0923950961825972,-6.965049833887065
1.0933918070367785,0.03495016611293522
1.0943885178909598,4.034950166112935
1.0953852287451409,8.034950166112935
1.0963819395993222,16.034950166112935
1.0973786504535032,17.034950166112935
1.0983753613076845,20.034950166112935
1.0993720721618658,20.034950166112935
1.100368783016047,18.034950166112935
1.1013654938702282,15.034950166112935
1.1023622047244093,8.034950166112935
1.1033589155785906,1.0349501661129352
1.1043556264327719,-4.965049833887065
1.105352337286953,-8.965049833887065
1.1063490481411342,-18.965049833887065
1.1073457589953153,-18.965049833887065
1.1083424698494966,-19.965049833887065
1.1093391807036777,-19.965049833887065
1.110335891557859,-14.965049833887065
1.1113326024120402,-9.965049833887065
1.1123293132662213,-7.965049833887065
1.1133260241204026,0.03495016611293522
1.1143227349745837,4.034950166112935
1.115319445828765,8.034950166112935
1.1163161566829463,12.034950166112935
1.1173128675371273,16.034950166112935
1.1183095783913086,18.034950166112935
1.1193062892454897,20.034950166112935
1.120303000099671,16.034950166112935
1.1212997109538523,15.034950166112935
1.1222964218080334,12.034950166112935
1.1232931326622146,2.034950166112935
1.1242898435163957,-2.965049833887065
1.125286554370577,-10.965049833887065
1.1262832652247583,-18.965049833887065
1.1272799760789394,-19.965049833887065
1.1282766869331207,-20.965049833887065
1.1292733977873017,-19.965049833887065
1.130270108641483,-16.965049833887065
1.131266819495664,-9.965049833887065
1.1322635303498454,-5.965049833887065
1.1332602412040267,0.03495016611293522
1.1342569520582078,4.034950166112935
1.135253662912389,7.034950166112935
1.1362503737665701,15.034950166112935
1.1372470846207514,19.034950166112935
1.1382437954749327,17.034950166112935
1.1392405063291138,18.034950166112935
1.140237217183295,18.034950166112935
1.1412339280374761,17.034950166112935
1.1422306388916574,11.034950166112935
1.1432273497458387,4.034950166112935
1.1442240606000198,-3.965049833887065
1.145220771454201,-9.965049833887065
1.1462174823083822,-13.965049833887065
1.1472141931625635,-20.965049833887065
1.1482109040167447,-25.965049833887065
1.1492076148709258,-22.965049833887065
1.1502043257251071,-17.965049833887065
1.1512010365792882,-10.965049833887065
1.1521977474334695,-6.965049833887065
1.1531944582876505,-0.9650498338870648
1.1541911691418318,5.034950166112935
1.1551878799960131,6.034950166112935
1.1561845908501942,13.034950166112935
1.1571813017043755,15.034950166112935
1.1581780125585566,19.034950166112935
1.1591747234127379,24.034950166112935
1.1601714342669192,19.034950166112935
1.1611681451211002,13.034950166112935
1.1621648559752815,8.034950166112935
1.1631615668294626,3.034950166112935
1.1641582776836439,-2.965049833887065
1.1651549885378252,-7.965049833887065
1.1661516993920062,-16.965049833887065
1.1671484102461875,-19.965049833887065
1.1681451211003686,-18.965049833887065
1.16914183195455,-19.965049833887065
1.170138542808731,-16.965049833887065
1.1711352536629123,-12.965049833887065
1.1721319645170936,-6.965049833887065
1.1731286753712746,0.03495016611293522
1.174125386225456,5.034950166112935
1.175122097079637,11.034950166112935
1.1761188079338183,15.034950166112935
1.1771155187879996,19.034950166112935
1.1781122296421807,20.034950166112935
1.179108940496362,19.034950166112935
1.180105651350543,14.034950166112935
1.1811023622047243,15.034950166112935
1.1820990730589056,12.034950166112935
1.1830957839130867,3.034950166112935
1.184092494767268,-3.965049833887065
1.185089205621449,-7.965049833887065
1.1860859164756303,-16.965049833887065
1.1870826273298116,-17.965049833887065
1.1880793381839927,-22.965049833887065
1.189076049038174,-23.965049833887065
1.190072759892355,-15.965049833887065
1.1910694707465364,-14.965049833887065
1.1920661816007174,-8.965049833887065
1.1930628924548987,-0.9650498338870648
1.19405960330908,3.034950166112935
1.195056314163261,7.034950166112935
1.1960530250174424,12.034950166112935
1.1970497358716234,16.034950166112935
1.1980464467258047,14.034950166112935
1.199043157579986,20.034950166112935
1.200039868434167,19.034950166112935
1.2010365792883484,19.034950166112935
1.2020332901425295,11.034950166112935
1.2030300009967108,3.034950166112935
1.204026711850892,-0.9650498338870648
1.2050234227050731,-7.965049833887065
1.2060201335592544,-14.965049833887065
1.2070168444134355,-21.965049833887065
1.2080135552676168,-21.965049833887065
1.2090102661217978,-19.965049833887065
1.2100069769759791,-14.965049833887065
1.2110036878301604,-13.965049833887065
1.2120003986843415,-9.965049833887065
1.2129971095385228,-3.965049833887065
1.2139938203927039,5.034950166112935
1.2149905312468852,10.034950166112935
1.2159872421010665,14.034950166112935
1.2169839529552475,14.034950166112935
1.2179806638094288,19.034950166112935
1.21897737466361,20.034950166112935
1.2199740855177912,21.034950166112935
1.2209707963719725,16.034950166112935
1.2219675072261535,11.034950166112935
1.2229642180803348,4.034950166112935
1.223960928934516,0.03495016611293522
1.2249576397886972,-7.965049833887065
1.2259543506428785,-14.965049833887065
1.2269510614970596,-18.965049833887065
1.2279477723512409,-22.965049833887065
1.228944483205422,-19.965049833887065
1.2299411940596032,-14.965049833887065
1.2309379049137843,-10.965049833887065
1.2319346157679656,-10.965049833887065
1.2329313266221469,-1.9650498338870648
1.233928037476328,3.034950166112935
1.2349247483305092,5.034950166112935
1.2359214591846903,12.034950166112935
1.2369181700388716,16.034950166112935
1.237914880893053,17.034950166112935
1.238911591747234,21.034950166112935
1.2399083026014153,17.034950166112935
1.2409050134555963,14.034950166112935
1.2419017243097776,12.034950166112935
1.242898435163959,7.034950166112935
1.24389514601814,-0.9650498338870648
1.2448918568723213,-7.965049833887065
1.2458885677265024,-14.965049833887065
1.2468852785806837,-17.965049833887065
1.2478819894348647,-19.965049833887065
1.248878700289046,-20.965049833887065
1.2498754111432273,-16.965049833887065
1.2508721219974084,-12.965049833887065
1.2518688328515897,-7.965049833887065
1.2528655437057707,-2.965049833887065
1.253862254559952,4.034950166112935
1.2548589654141333,7.034950166112935
1.2558556762683144,15.034950166112935
1.2568523871224957,18.034950166112935
1.2578490979766768,16.034950166112935
1.258845808830858,16.034950166112935
1.2598425196850394,17.034950166112935
1.2608392305392204,18.034950166112935
1.2618359413934017,12.034950166112935
1.2628326522475828,3.034950166112935
1.263829363101764,0.03495016611293522
1.2648260739559454,-7.965049833887065
1.2658227848101264,-12.965049833887065
1.2668194956643077,-18.965049833887065
1.2678162065184888,-22.965049833887065
1.26881291737267,-21.965049833887065
1.2698096282268512,-18.965049833887065
1.2708063390810325,-12.965049833887065
1.2718030499352138,-7.965049833887065
1.2727997607893948,-2.965049833887065
1.2737964716435761,2.034950166112935
1.2747931824977572,4.034950166112935
1.2757898933519385,14.034950166112935
1.2767866042061198,15.034950166112935
1.2777833150603009,17.034950166112935
1.2787800259144821,21.034950166112935
1.2797767367686632,19.034950166112935
1.2807734476228445,14.034950166112935
1.2817701584770258,8.034950166112935
1.2827668693312069,6.034950166112935
1.2837635801853882,-2.965049833887065
1.2847602910395692,-4.965049833887065
1.2857570018937505,-12.965049833887065
1.2867537127479316,-18.965049833887065
1.287750423602113,-20.965049833887065
1.2887471344562942,-20.965049833887065
1.2897438453104753,-16.965049833887065
1.2907405561646565,-14.965049833887065
1.2917372670188376,-9.965049833887065
1.292733977873019,-2.965049833887065
1.2937306887272002,6.034950166112935
1.2947273995813813,7.034950166112935
1.2957241104355626,12.034950166112935
1.2967208212897436,14.034950166112935
1.297717532143925,19.034950166112935
1.2987142429981062,20.034950166112935
1.2997109538522873,16.034950166112935
1.3007076647064686,15.034950166112935
1.3017043755606497,11.034950166112935
1.302701086414831,4.034950166112935
1.3036977972690122,-0.9650498338870648
1.3046945081231933,-4.965049833887065
1.3056912189773746,-12.965049833887065
1.3066879298315557,-17.965049833887065
1.307684640685737,-21.965049833887065
1.308681351539918,-20.965049833887065
1.3096780623940993,-19.965049833887065
1.3106747732482806,-13.965049833887065
1.3116714841024617,-9.965049833887065
1.312668194956643,-1.9650498338870648
1.313664905810824,4.034950166112935
1.3146616166650054,5.034950166112935
1.3156583275191867,12.034950166112935
1.3166550383733677,15.034950166112935
1.317651749227549,17.034950166112935
1.31864846008173,19.034950166112935
1.3196451709359114,19.034950166112935
1.3206418817900927,19.034950166112935
1.3216385926442737,12.034950166112935
1.322635303498455,4.034950166112935
1.323632014352636,-1.9650498338870648
1.3246287252068174,-6.965049833887065
1.3256254360609985,-10.965049833887065
1.3266221469151798,-18.965049833887065
1.327618857769361,-22.965049833887065
1.3286155686235421,-19.965049833887065
1.3296122794777234,-15.965049833887065
1.3306089903319045,-13.965049833887065
1.3316057011860858,-6.965049833887065
1.332602412040267,-0.9650498338870648
1.3335991228944482,5.034950166112935
1.3345958337486294,4.034950166112935
1.3355925446028105,15.034950166112935
1.3365892554569918,14.034950166112935
1.337585966311173,17.034950166112935
1.3385826771653542,19.034950166112935
1.3395793880195355,20.034950166112935
1.3405760988737165,16.034950166112935
1.3415728097278978,9.034950166112935
1.3425695205820791,5.034950166112935
1.3435662314362602,1.0349501661129352
1.3445629422904415,-7.965049833887065
1.3455596531446226,-13.965049833887065
1.3465563639988039,-19.965049833887065
1.347553074852985,-20.965049833887065
1.3485497857071662,-18.965049833887065
1.3495464965613475,-18.965049833887065
1.3505432074155286,-14.965049833887065
1.3515399182697099,-6.965049833887065
1.352536629123891,-2.965049833887065
1.3535333399780722,1.0349501661129352
1.3545300508322535,7.034950166112935
1.3555267616864346,10.034950166112935
1.356523472540616,17.034950166112935
1.357520183394797,19.034950166112935
1.3585168942489783,20.034950166112935
1.3595136051031596,17.034950166112935
1.3605103159573406,16.034950166112935
1.361507026811522,12.034950166112935
1.362503737665703,4.034950166112935
1.3635004485198843,0.03495016611293522
1.3644971593740653,-4.965049833887065
1.3654938702282466,-14.965049833887065
1.366490581082428,-15.965049833887065
1.367487291936609,-20.965049833887065
1.3684840027907903,-20.965049833887065
1.3694807136449714,-17.965049833887065
1.3704774244991527,-12.965049833887065
1.371474135353334,-6.965049833887065
1.372470846207515,-2.965049833887065
1.3734675570616963,3.034950166112935
1.3744642679158774,6.034950166112935
1.3754609787700587,13.034950166112935
1.37645768962424,19.034950166112935
1.377454400478421,18.034950166112935
1.3784511113326023,19.034950166112935
1.3794478221867834,17.034950166112935
1.3804445330409647,17.034950166112935
1.381441243895146,12.034950166112935
1.382437954749327,4.034950166112935
1.3834346656035084,-2.965049833887065
1.3844313764576894,-7.965049833887065
1.3854280873118707,-12.965049833887065
1.3864247981660518,-20.965049833887065
1.387421509020233,-23.965049833887065
1.3884182198744144,-22.965049833887065
1.3894149307285955,-14.965049833887065
1.3904116415827767,-12.965049833887065
1.3914083524369578,-8.965049833887065
1.3924050632911391,-3.965049833887065
1.3934017741453204,4.034950166112935
1.3943984849995015,8.034950166112935
1.3953951958536828,12.034950166112935
1.3963919067078638,14.034950166112935
1.3973886175620451,15.034950166112935
1.3983853284162264,18.034950166112935
1.3993820392704075,19.034950166112935
1.4003787501245888,15.034950166112935
1.4013754609787699,10.034950166112935
1.4023721718329512,6.034950166112935
1.4033688826871322,1.0349501661129352
1.4043655935413135,-3.965049833887065
1.4053623043954948,-13.965049833887065
1.4063590152496759,-18.965049833887065
1.4073557261038572,-21.965049833887065
1.4083524369580382,-17.965049833887065
1.4093491478122195,-18.965049833887065
1.4103458586664008,-13.965049833887065
1.411342569520582,-8.965049833887065
1.4123392803747632,-1.9650498338870648
1.4133359912289443,4.034950166112935
1.4143327020831256,5.034950166112935
1.4153294129373069,11.034950166112935
1.416326123791488,16.034950166112935
1.4173228346456692,18.034950166112935
1.4183195454998503,19.034950166112935
1.4193162563540316,19.034950166112935
1.4203129672082129,16.034950166112935
1.421309678062394,14.034950166112935
1.4223063889165752,6.034950166112935
1.4233030997707563,-0.9650498338870648
1.4242998106249376,-4.965049833887065
1.4252965214791187,-11.965049833887065
1.4262932323333,-14.965049833887065
1.4272899431874813,-23.965049833887065
1.4282866540416623,-20.965049833887065
1.4292833648958436,-18.965049833887065
1.4302800757500247,-14.965049833887065
1.431276786604206,-10.965049833887065
1.4322734974583873,-4.965049833887065
1.4332702083125684,1.0349501661129352
1.4342669191667496,4.034950166112935
1.4352636300209307,10.034950166112935
1.436260340875112,15.034950166112935
1.4372570517292933,17.034950166112935
1.4382537625834744,17.034950166112935
1.4392504734376557,20.034950166112935
1.4402471842918367,17.034950166112935
1.441243895146018,11.034950166112935
1.4422406060001993,6.034950166112935
1.4432373168543804,0.03495016611293522
1.4442340277085617,-3.965049833887065
1.4452307385627428,-11.965049833887065
1.446227449416924,-17.965049833887065
1.4472241602711051,-20.965049833887065
1.4482208711252864,-19.965049833887065
1.4492175819794677,-17.965049833887065
1.4502142928336488,-11.965049833887065
1.45121100368783,-9.965049833887065
1.4522077145420111,-3.965049833887065
1.4532044253961924,3.034950166112935
1.4542011362503737,5.034950166112935
1.4551978471045548,11.034950166112935
1.456194557958736,13.034950166112935
1.4571912688129172,18.034950166112935
1.4581879796670985,20.034950166112935
1.4591846905212797,21.034950166112935
1.4601814013754608,16.034950166112935
1.4611781122296421,13.034950166112935
1.4621748230838232,5.034950166112935
1.4631715339380045,0.03495016611293522
1.4641682447921855,-4.965049833887065
1.4651649556463668,-12.965049833887065
1.4661616665005481,-17.965049833887065
1.4671583773547292,-19.965049833887065
1.4681550882089105,-19.965049833887065
1.4691517990630916,-18.965049833887065
1.4701485099172729,-16.965049833887065
1.4711452207714542,-11.965049833887065
1.4721419316256352,-2.965049833887065
1.4731386424798165,1.0349501661129352
1.4741353533339976,6.034950166112935
1.4751320641881789,9.034950166112935
1.4761287750423602,16.034950166112935
1.4771254858965412,17.034950166112935
1.4781221967507225,19.034950166112935
1.4791189076049036,18.034950166112935
1.480115618459085,16.034950166112935
1.4811123293132662,13.034950166112935
1.4821090401674473,7.034950166112935
1.4831057510216286,-0.9650498338870648
1.4841024618758096,-4.965049833887065
1.485099172729991,-12.965049833887065
1.486095883584172,-14.965049833887065
1.4870925944383533,-19.965049833887065
1.4880893052925346,-20.965049833887065
1.4890860161467157,-18.965049833887065
1.490082727000897,-13.965049833887065
1.491079437855078,-8.965049833887065
1.4920761487092593,-2.965049833887065
1.4930728595634406,3.034950166112935
1.4940695704176217,5.034950166112935
1.495066281271803,9.034950166112935
1.496062992125984,15.034950166112935
1.4970597029801653,18.034950166112935
1.4980564138343466,20.034950166112935
1.4990531246885277,19.034950166112935
1.500049835542709,17.034950166112935
1.50104654639689,14.034950166112935
1.5020432572510714,6.034950166112935
1.5030399681052524,-0.9650498338870648
1.5040366789594337,-3.965049833887065
1.505033389813615,-8.965049833887065
1.506030100667796,-18.965049833887065
1.5070268115219774,-22.965049833887065
1.5080235223761584,-20.965049833887065
1.5090202332303397,-19.965049833887065
1.510016944084521,-12.965049833887065
1.511013654938702,-10.965049833887065
1.5120103657928834,-5.965049833887065
1.5130070766470645,4.034950166112935
1.5140037875012458,5.034950166112935
1.515000498355427,11.034950166112935
1.5159972092096081,14.034950166112935
1.5169939200637894,15.034950166112935
1.5179906309179705,21.034950166112935
1.5189873417721518,22.034950166112935
1.519984052626333,13.034950166112935
1.5209807634805141,12.034950166112935
1.5219774743346954,8.034950166112935
1.5229741851888765,0.03495016611293522
1.5239708960430578,-2.965049833887065
1.5249676068972389,-10.965049833887065
1.5259643177514202,-16.965049833887065
1.5269610286056015,-21.965049833887065
1.5279577394597825,-22.965049833887065
1.5289544503139638,-19.965049833887065
1.529951161168145,-14.965049833887065
1.5309478720223262,-10.965049833887065
1.5319445828765075,-2.965049833887065
1.5329412937306885,1.0349501661129352
1.5339380045848698,5.034950166112935
1.534934715439051,10.034950166112935
1.5359314262932322,14.034950166112935
1.5369281371474135,18.034950166112935
1.5379248480015946,17.034950166112935
1.5389215588557759,18.034950166112935
1.539918269709957,16.034950166112935
1.5409149805641382,12.034950166112935
1.5419116914183193,9.034950166112935
1.5429084022725006,2.034950166112935
1.5439051131266819,-3.965049833887065
1.544901823980863,-10.965049833887065
1.5458985348350442,-14.965049833887065
1.5468952456892253,-20.965049833887065
1.5478919565434066,-21.965049833887065
1.548888667397588,-20.965049833887065
1.549885378251769,-12.965049833887065
1.5508820891059503,-9.965049833887065
1.5518787999601313,-6.965049833887065
1.5528755108143126,2.034950166112935
1.553872221668494,5.034950166112935
1.554868932522675,12.034950166112935
1.5558656433768563,15.034950166112935
1.5568623542310374,17.034950166112935
1.5578590650852187,17.034950166112935
1.5588557759394,19.034950166112935
1.559852486793581,20.034950166112935
1.5608491976477623,13.034950166112935
1.5618459085019434,7.034950166112935
1.5628426193561247,0.03495016611293522
1.5638393302103057,-3.965049833887065
1.564836041064487,-8.965049833887065
1.5658327519186683,-18.965049833887065
1.5668294627728494,-25.965049833887065
1.5678261736270307,-21.965049833887065
1.5688228844812118,-18.965049833887065
1.569819595335393,-14.965049833887065
1.5708163061895744,-9.965049833887065
1.5718130170437554,-5.965049833887065
1.5728097278979367,3.034950166112935
1.5738064387521178,5.034950166112935
1.574803149606299,9.034950166112935
1.5757998604604804,14.034950166112935
1.5767965713146614,19.034950166112935
1.5777932821688427,19.034950166112935
1.5787899930230238,20.034950166112935
1.579786703877205,16.034950166112935
1.5807834147313862,14.034950166112935
1.5817801255855675,7.034950166112935
1.5827768364397488,1.0349501661129352
1.5837735472939298,-1.9650498338870648
1.5847702581481111,-9.965049833887065
1.5857669690022922,-16.965049833887065
1.5867636798564735,-18.965049833887065
1.5877603907106548,-21.965049833887065
1.5887571015648358,-20.965049833887065
1.5897538124190171,-15.965049833887065
1.5907505232731982,-12.965049833887065
1.5917472341273795,-4.965049833887065
1.5927439449815608,2.034950166112935
1.5937406558357419,4.034950166112935
1.5947373666899232,7.034950166112935
1.5957340775441042,13.034950166112935
1.5967307883982855,17.034950166112935
1.5977274992524668,20.034950166112935
1.598724210106648,20.034950166112935
1.5997209209608292,17.034950166112935
1.6007176318150103,12.034950166112935
1.6017143426691915,7.034950166112935
1.6027110535233726,4.034950166112935
1.603707764377554,-2.965049833887065
1.6047044752317352,-10.965049833887065
1.6057011860859163,-17.965049833887065
1.6066978969400976,-21.965049833887065
1.6076946077942786,-21.965049833887065
1.60869131864846,-18.965049833887065
1.6096880295026412,-13.965049833887065
1.6106847403568223,-9.965049833887065
1.6116814512110036,-4.965049833887065
1.6126781620651847,-0.9650498338870648
1.613674872919366,2.034950166112935
1.6146715837735472,7.034950166112935
1.6156682946277283,15.034950166112935
1.6166650054819096,18.034950166112935
1.6176617163360907,18.034950166112935
1.618658427190272,21.034950166112935
1.619655138044453,19.034950166112935
1.6206518488986343,15.034950166112935
1.6216485597528156,7.034950166112935
1.6226452706069967,1.0349501661129352
1.623641981461178,-5.965049833887065
1.624638692315359,-12.965049833887065
1.6256354031695404,-18.965049833887065
1.6266321140237217,-21.965049833887065
1.6276288248779027,-20.965049833887065
1.628625535732084,-16.965049833887065
1.629622246586265,-12.965049833887065
1.6306189574404464,-10.965049833887065
1.6316156682946277,-3.965049833887065
1.6326123791488087,2.034950166112935
1.63360909000299,3.034950166112935
1.634605800857171,9.034950166112935
1.6356025117113524,12.034950166112935
1.6365992225655337,17.034950166112935
1.6375959334197148,20.034950166112935
1.638592644273896,21.034950166112935
1.6395893551280771,16.034950166112935
1.6405860659822584,13.034950166112935
1.6415827768364395,8.034950166112935
1.6425794876906208,2.034950166112935
1.643576198544802,-1.9650498338870648
1.6445729093989832,-7.965049833887065
1.6455696202531644,-16.965049833887065
1.6465663311073455,-17.965049833887065
1.6475630419615268,-22.965049833887065
1.648559752815708,-22.965049833887065
1.6495564636698892,-15.965049833887065
1.6505531745240705,-11.965049833887065
1.6515498853782515,-4.965049833887065
1.6525465962324328,1.0349501661129352
1.6535433070866141,3.034950166112935
1.6545400179407952,7.034950166112935
1.6555367287949765,14.034950166112935
1.6565334396491576,17.034950166112935
1.6575301505033389,17.034950166112935
1.6585268613575201,17.034950166112935
1.6595235722117012,17.034950166112935
1.6605202830658825,13.034950166112935
1.6615169939200636,10.034950166112935
1.6625137047742449,3.034950166112935
1.663510415628426,-4.965049833887065
1.6645071264826072,-8.965049833887065
1.6655038373367885,-16.965049833887065
1.6665005481909696,-19.965049833887065
1.667497259045151,-21.965049833887065
1.668493969899332,-20.965049833887065
1.6694906807535133,-14.965049833887065
1.6704873916076945,-7.965049833887065
1.6714841024618756,-4.965049833887065
1.672480813316057,1.0349501661129352
1.673477524170238,3.034950166112935
1.6744742350244193,8.034950166112935
1.6754709458786006,15.034950166112935
1.6764676567327816,19.034950166112935
1.677464367586963,16.034950166112935
1.678461078441144,17.034950166112935
1.6794577892953253,19.034950166112935
1.6804545001495064,16.034950166112935
1.6814512110036877,9.034950166112935
1.682447921857869,2.034950166112935
1.68344463271205,-2.965049833887065
1.6844413435662313,-9.965049833887065
1.6854380544204124,-17.965049833887065
1.6864347652745937,-21.965049833887065
1.687431476128775,-21.965049833887065
1.688428186982956,-20.965049833887065
1.6894248978371373,-12.965049833887065
1.6904216086913184,-12.965049833887065
1.6914183195454997,-7.965049833887065
1.692415030399681,0.03495016611293522
1.693411741253862,8.034950166112935
1.6944084521080434,11.034950166112935
1.6954051629622244,17.034950166112935
1.6964018738164057,17.034950166112935
1.697398584670587,20.034950166112935
1.698395295524768,21.034950166112935
1.6993920063789494,18.034950166112935
1.7003887172331305,12.034950166112935
1.7013854280873117,8.034950166112935
1.7023821389414928,3.034950166112935
1.703378849795674,-3.965049833887065
1.7043755606498554,-8.965049833887065
1.7053722715040365,-19.965049833887065
1.7063689823582178,-18.965049833887065
1.7073656932123988,-20.965049833887065
1.7083624040665801,-19.965049833887065
1.7093591149207614,-19.965049833887065
1.7103558257749425,-12.965049833887065
1.7113525366291238,-7.965049833887065
1.7123492474833049,-1.9650498338870648
1.7133459583374862,5.034950166112935
1.7143426691916674,9.034950166112935
1.7153393800458485,15.034950166112935
1.7163360909000298,17.034950166112935
1.7173328017542109,19.034950166112935
1.7183295126083922,18.034950166112935
1.7193262234625732,16.034950166112935
1.7203229343167545,12.034950166112935
1.7213196451709358,11.034950166112935
1.722316356025117,4.034950166112935
1.7233130668792982,-3.965049833887065
1.7243097777334793,-8.965049833887065
1.7253064885876606,-14.965049833887065
1.7263031994418419,-18.965049833887065
1.727299910296023,-20.965049833887065
1.7282966211502042,-19.965049833887065
1.7292933320043853,-12.965049833887065
1.7302900428585666,-9.965049833887065
1.7312867537127479,-6.965049833887065
1.732283464566929,0.03495016611293522
1.7332801754211102,3.034950166112935
1.7342768862752913,11.034950166112935
1.7352735971294726,14.034950166112935
1.736270307983654,18.034950166112935
1.737267018837835,21.034950166112935
1.7382637296920163,20.034950166112935
1.7392604405461973,15.034950166112935
1.7402571514003786,13.034950166112935
1.7412538622545597,7.034950166112935
1.742250573108741,2.034950166112935
1.7432472839629223,-3.965049833887065
1.7442439948171033,-7.965049833887065
1.7452407056712846,-17.965049833887065
1.7462374165254657,-21.965049833887065
1.747234127379647,-19.965049833887065
1.7482308382338283,-19.965049833887065
1.7492275490880094,-16.965049833887065
1.7502242599421907,-12.965049833887065
1.7512209707963717,-6.965049833887065
1.752217681650553,0.03495016611293522
1.7532143925047343,5.034950166112935
1.7542111033589154,8.034950166112935
1.7552078142130967,12.034950166112935
1.7562045250672778,18.034950166112935
1.757201235921459,19.034950166112935
1.7581979467756401,22.034950166112935
1.7591946576298214,17.034950166112935
1.7601913684840027,12.034950166112935
1.7611880793381838,10.034950166112935
1.762184790192365,4.034950166112935
1.7631815010465461,-3.965049833887065
1.7641782119007274,-8.965049833887065
1.7651749227549087,-18.965049833887065
1.7661716336090898,-21.965049833887065
1.767168344463271,-22.965049833887065
1.7681650553174522,-20.965049833887065
1.7691617661716335,-15.965049833887065
1.7701584770258147,-11.965049833887065
1.7711551878799958,-5.965049833887065
1.7721518987341771,0.03495016611293522
1.7731486095883582,3.034950166112935
1.7741453204425395,8.034950166112935
1.7751420312967208,13.034950166112935
1.7761387421509018,17.034950166112935
1.7771354530050831,18.034950166112935
1.7781321638592642,18.034950166112935
1.7791288747134455,18.034950166112935
1.7801255855676266,14.034950166112935
1.7811222964218079,10.034950166112935
1.7821190072759892,0.03495016611293522
1.7831157181301702,-3.965049833887065
1.7841124289843515,-8.965049833887065
1.7851091398385326,-13.965049833887065
1.7861058506927139,-16.965049833887065
1.7871025615468952,-22.965049833887065
1.7880992724010762,-21.965049833887065
1.7890959832552575,-14.965049833887065
1.7900926941094386,-10.965049833887065
1.79108940496362,-6.965049833887065
1.7920861158178012,-1.9650498338870648
1.7930828266719823,3.034950166112935
1.7940795375261636,5.034950166112935
1.7950762483803446,14.034950166112935
1.796072959234526,16.034950166112935
1.797069670088707,18.034950166112935
1.7980663809428883,21.034950166112935
1.7990630917970696,20.034950166112935
1.8000598026512507,15.034950166112935
1.801056513505432,8.034950166112935
1.802053224359613,3.034950166112935
1.8030499352137943,-2.965049833887065
1.8040466460679756,-4.965049833887065
1.8050433569221567,-16.965049833887065
1.806040067776338,-17.965049833887065
1.807036778630519,-18.965049833887065
1.8080334894847003,-19.965049833887065
1.8090302003388816,-18.965049833887065
1.8100269111930627,-13.965049833887065
1.811023622047244,-3.965049833887065
1.812020332901425,1.0349501661129352
1.8130170437556064,4.034950166112935
1.8140137546097876,6.034950166112935
1.8150104654639687,13.034950166112935
1.81600717631815,17.034950166112935
1.817003887172331,21.034950166112935
1.8180005980265124,19.034950166112935
1.8189973088806934,17.034950166112935
1.8199940197348747,11.034950166112935
1.820990730589056,10.034950166112935
1.821987441443237,2.034950166112935
1.8229841522974184,-2.965049833887065
1.8239808631515995,-7.965049833887065
1.8249775740057808,-14.965049833887065
1.825974284859962,-18.965049833887065
1.8269709957141431,-18.965049833887065
1.8279677065683244,-19.965049833887065
1.8289644174225055,-17.965049833887065
1.8299611282766868,-11.965049833887065
1.830957839130868,-7.965049833887065
1.8319545499850491,-1.9650498338870648
1.8329512608392304,3.034950166112935
1.8339479716934115,7.034950166112935
1.8349446825475928,14.034950166112935
1.8359413934017739,17.034950166112935
1.8369381042559552,19.034950166112935
1.8379348151101365,18.034950166112935
1.8389315259643175,17.034950166112935
1.8399282368184988,15.034950166112935
1.84092494767268,10.034950166112935
1.8419216585268612,5.034950166112935
1.8429183693810425,1.0349501661129352
1.8439150802352235,-5.965049833887065
1.8449117910894048,-12.965049833887065
1.845908501943586,-18.965049833887065
1.8469052127977672,-20.965049833887065
1.8479019236519485,-20.965049833887065
1.8488986345061296,-18.965049833887065
1.8498953453603109,-14.965049833887065
1.850892056214492,-6.965049833887065
1.8518887670686732,-1.9650498338870648
1.8528854779228545,2.034950166112935
1.8538821887770356,5.034950166112935
1.8548788996312169,15.034950166112935
1.855875610485398,15.034950166112935
1.8568723213395792,17.034950166112935
1.8578690321937603,20.034950166112935
1.8588657430479416,17.034950166112935
1.859862453902123,16.034950166112935
1.860859164756304,12.034950166112935
1.8618558756104853,4.034950166112935
1.8628525864646663,-3.965049833887065
1.8638492973188476,-5.965049833887065
1.864846008173029,-14.965049833887065
1.86584271902721,-20.965049833887065
1.8668394298813913,-20.965049833887065
1.8678361407355724,-20.965049833887065
1.8688328515897537,-14.965049833887065
1.869829562443935,-12.965049833887065
1.870826273298116,-7.965049833887065
1.8718229841522973,-0.9650498338870648
1.8728196950064784,4.034950166112935
1.8738164058606597,6.034950166112935
1.8748131167148407,12.034950166112935
1.875809827569022,15.034950166112935
1.8768065384232033,18.034950166112935
1.8778032492773844,18.034950166112935
1.8787999601315657,18.034950166112935
1.8797966709857468,14.034950166112935
1.880793381839928,11.034950166112935
1.8817900926941094,1.0349501661129352
1.8827868035482904,0.03495016611293522
1.8837835144024717,-4.965049833887065
1.8847802252566528,-15.965049833887065
1.885776936110834,-18.965049833887065
1.8867736469650154,-20.965049833887065
1.8877703578191964,-19.965049833887065
1.8887670686733777,-17.965049833887065
1.8897637795275588,-9.965049833887065
1.89076049038174,-5.965049833887065
1.8917572012359214,-0.9650498338870648
1.8927539120901025,4.034950166112935
1.8937506229442838,7.034950166112935
1.8947473337984648,11.034950166112935
1.8957440446526461,19.034950166112935
1.8967407555068272,19.034950166112935
1.8977374663610085,19.034950166112935
1.8987341772151898,17.034950166112935
1.8997308880693708,16.034950166112935
1.9007275989235521,12.034950166112935
1.9017243097777332,4.034950166112935
1.9027210206319145,-1.9650498338870648
1.9037177314860958,-6.965049833887065
1.9047144423402769,-14.965049833887065
1.9057111531944582,-19.965049833887065
1.9067078640486392,-20.965049833887065
1.9077045749028205,-21.965049833887065
1.9087012857570018,-15.965049833887065
1.909697996611183,-12.965049833887065
1.9106947074653642,-9.965049833887065
1.9116914183195453,-3.965049833887065
1.9126881291737265,2.034950166112935
1.9136848400279076,8.034950166112935
1.914681550882089,16.034950166112935
1.9156782617362702,20.034950166112935
1.9166749725904513,22.034950166112935
1.9176716834446326,19.034950166112935
1.9186683942988136,16.034950166112935
1.919665105152995,17.034950166112935
1.9206618160071762,10.034950166112935
1.9216585268613573,4.034950166112935
1.9226552377155386,-6.965049833887065
1.9236519485697197,-10.965049833887065
1.924648659423901,-15.965049833887065
1.9256453702780822,-19.965049833887065
1.9266420811322633,-24.965049833887065
1.9276387919864446,-26.965049833887065
1.9286355028406257,-21.965049833887065
1.929632213694807,-20.965049833887065
1.9306289245489883,-14.965049833887065
1.9316256354031693,-6.965049833887065
1.9326223462573506,1.0349501661129352
1.9336190571115317,4.034950166112935
1.934615767965713,10.034950166112935
1.935612478819894,15.034950166112935
1.9366091896740754,18.034950166112935
1.9376059005282567,29.034950166112935
1.9386026113824377,40.034950166112935
1.939599322236619,40.034950166112935
1.9405960330908,22.034950166112935
1.9415927439449814,10.034950166112935
1.9425894547991627,5.034950166112935
1.9435861656533437,0.03495016611293522
1.944582876507525,-7.965049833887065
1.945579587361706,-14.965049833887065
1.9465762982158874,-22.965049833887065
1.9475730090700687,-27.965049833887065
1.9485697199242498,-35.965049833887065
1.949566430778431,-35.965049833887065
1.9505631416326121,-29.965049833887065
1.9515598524867934,-18.965049833887065
1.9525565633409747,-9.965049833887065
1.9535532741951558,-1.9650498338870648
1.954549985049337,10.034950166112935
1.9555466959035182,16.034950166112935
1.9565434067576994,16.034950166112935
1.9575401176118805,18.034950166112935
1.9585368284660618,23.034950166112935
1.959533539320243,20.034950166112935
1.9605302501744242,17.034950166112935
1.9615269610286055,19.034950166112935
1.9625236718827865,21.034950166112935
1.9635203827369678,27.034950166112935
1.9645170935911491,16.034950166112935
1.9655138044453302,15.034950166112935
1.9665105152995115,2.034950166112935
1.9675072261536926,-15.965049833887065
1.9685039370078738,-28.965049833887065
1.9695006478620551,-26.965049833887065
1.9704973587162362,-26.965049833887065
1.9714940695704175,-29.965049833887065
1.9724907804245986,-33.965049833887065
1.9734874912787799,-28.965049833887065
1.974484202132961,-17.965049833887065
1.9754809129871422,-6.965049833887065
1.9764776238413235,7.034950166112935
1.9774743346955046,6.034950166112935
1.978471045549686,2.034950166112935
1.979467756403867,1.0349501661129352
1.9804644672580483,2.034950166112935
1.9814611781122295,0.03495016611293522
1.9824578889664106,1.0349501661129352
1.983454599820592,19.034950166112935
1.984451310674773,8.034950166112935
1.9854480215289543,-2.965049833887065
1.9864447323831356,-14.965049833887065
1.9874414432373166,-10.965049833887065
1.988438154091498,-10.965049833887065
1.989434864945679,-4.965049833887065
1.9904315757998603,6.034950166112935
1.9914282866540416,6.034950166112935
1.9924249975082227,19.034950166112935
1.993421708362404,34.034950166112935
1.994418419216585,37.034950166112935
1.9954151300707663,8.034950166112935
1.9964118409249474,13.034950166112935
1.9974085517791287,21.034950166112935
1.99840526263331,13.034950166112935
1.999401973487491,-1.9650498338870648
2.0003986843416723,-4.965049833887065
2.0013953951958534,18.034950166112935
2.0023921060500345,8.034950166112935
2.003388816904216,11.034950166112935
2.004385527758397,16.034950166112935
2.005382238612578,-6.965049833887065
2.0063789494667597,-30.965049833887065
2.0073756603209407,-40.965049833887065
2.008372371175122,-28.965049833887065
2.0093690820293033,-29.965049833887065
2.0103657928834844,-17.965049833887065
2.0113625037376655,-13.965049833887065
2.0123592145918465,-31.965049833887065
2.013355925446028,-42.965049833887065
2.014352636300209,-30.965049833887065
2.01534934715439,-10.965049833887065
2.0163460580085717,4.034950166112935
2.0173427688627528,17.034950166112935
2.018339479716934,-4.965049833887065
2.0193361905711154,14.034950166112935
2.0203329014252964,52.034950166112935
2.0213296122794775,46.034950166112935
2.0223263231336586,34.034950166112935
2.02332303398784,45.034950166112935
2.024319744842021,25.034950166112935
2.0253164556962022,16.034950166112935
2.0263131665503837,-8.965049833887065
2.027309877404565,1.0349501661129352
2.028306588258746,12.034950166112935
2.029303299112927,18.034950166112935
2.0303000099671085,-7.965049833887065
2.0312967208212895,-12.965049833887065
2.0322934316754706,-12.965049833887065
2.033290142529652,-18.965049833887065
2.034286853383833,-23.965049833887065
2.0352835642380143,-18.965049833887065
2.036280275092196,-25.965049833887065
2.037276985946377,-34.965049833887065
2.038273696800558,-22.965049833887065
2.039270407654739,-11.965049833887065
2.0402671185089205,-16.965049833887065
2.0412638293631016,-19.965049833887065
2.0422605402172826,-7.965049833887065
2.043257251071464,-0.9650498338870648
2.0442539619256452,-7.965049833887065
2.0452506727798263,9.034950166112935
2.0462473836340074,5.034950166112935
2.047244094488189,-12.965049833887065
2.04824080534237,-26.965049833887065
2.049237516196551,-34.965049833887065
2.0502342270507325,-17.965049833887065
2.0512309379049136,-2.965049833887065
2.0522276487590947,-13.965049833887065
2.053224359613276,7.034950166112935
2.0542210704674573,23.034950166112935
2.0552177813216383,29.034950166112935
2.0562144921758194,8.034950166112935
2.057211203030001,6.034950166112935
2.058207913884182,31.034950166112935
2.059204624738363,-3.965049833887065
2.0602013355925446,-23.965049833887065
2.0611980464467257,-2.965049833887065
2.0621947573009067,9.034950166112935
2.063191468155088,-5.965049833887065
2.0641881790092693,-35.965049833887065
2.0651848898634504,-58.965049833887065
2.0661816007176315,-56.965049833887065
2.067178311571813,-29.965049833887065
2.068175022425994,-59.965049833887065
2.069171733280175,-76.96504983388706
2.0701684441343566,-68.96504983388706
2.0711651549885377,-31.965049833887065
2.0721618658427188,-5.965049833887065
2.0731585766969,-22.965049833887065
2.0741552875510814,-33.965049833887065
2.0751519984052624,-55.965049833887065
2.0761487092594435,-43.965049833887065
2.077145420113625,-31.965049833887065
2.078142130967806,-33.965049833887065
2.079138841821987,-12.965049833887065
2.0801355526761687,-0.9650498338870648
2.0811322635303497,-20.965049833887065
2.082128974384531,-70.96504983388706
2.083125685238712,-82.96504983388706
2.0841223960928934,-71.96504983388706
2.0851191069470745,-36.965049833887065
2.0861158178012555,-6.965049833887065
2.087112528655437,12.034950166112935
2.088109239509618,46.034950166112935
2.089105950363799,68.03495016611294
2.0901026612179803,97.03495016611294
2.091099372072162,70.03495016611294
2.092096082926343,-2.965049833887065
2.093092793780524,-27.965049833887065
2.0940895046347054,25.034950166112935
2.0950862154888865,17.034950166112935
2.0960829263430676,-4.965049833887065
2.097079637197249,2.034950166112935
2.09807634805143,28.034950166112935
2.0990730589056112,8.034950166112935
2.1000697697597923,-22.965049833887065
2.101066480613974,-15.965049833887065
2.102063191468155,-6.965049833887065
2.103059902322336,10.034950166112935
2.1040566131765175,-8.965049833887065
2.1050533240306986,-35.965049833887065
2.1060500348848796,-25.965049833887065
2.1070467457390607,-29.965049833887065
2.108043456593242,-47.965049833887065
2.1090401674474233,-34.965049833887065
2.1100368783016044,-36.965049833887065
2.111033589155786,8.034950166112935
2.112030300009967,66.03495016611294
2.113027010864148,104.03495016611294
2.1140237217183295,121.03495016611294
2.1150204325725106,108.03495016611294
2.1160171434266917,53.034950166112935
2.1170138542808727,-19.965049833887065
2.1180105651350543,-13.965049833887065
2.1190072759892353,4.034950166112935
2.1200039868434164,19.034950166112935
2.121000697697598,31.034950166112935
2.121997408551779,35.034950166112935
2.12299411940596,37.034950166112935
2.123990830260141,17.034950166112935
2.1249875411143226,-4.965049833887065
2.1259842519685037,-2.965049833887065
2.126980962822685,-22.965049833887065
2.1279776736768663,-41.965049833887065
2.1289743845310474,-49.965049833887065
2.1299710953852284,-23.965049833887065
2.13096780623941,23.034950166112935
2.131964517093591,82.03495016611294
2.132961227947772,116.03495016611294
2.133957938801953,105.03495016611294
2.1349546496561347,55.034950166112935
2.1359513605103158,12.034950166112935
2.136948071364497,-17.965049833887065
2.1379447822186783,-39.965049833887065
2.1389414930728594,-34.965049833887065
2.1399382039270405,-28.965049833887065
2.1409349147812216,-30.965049833887065
2.141931625635403,2.034950166112935
2.142928336489584,-5.965049833887065
2.143925047343765,20.034950166112935
2.1449217581979467,49.034950166112935
2.145918469052128,32.034950166112935
2.146915179906309,-5.965049833887065
2.1479118907604904,-30.965049833887065
2.1489086016146715,-41.965049833887065
2.1499053124688525,-9.965049833887065
2.1509020233230336,-21.965049833887065
2.151898734177215,17.034950166112935
2.152895445031396,15.034950166112935
2.1538921558855773,-7.965049833887065
2.1548888667397588,-21.965049833887065
2.15588557759394,-22.965049833887065
2.156882288448121,-24.965049833887065
2.1578789993023024,29.034950166112935
2.1588757101564835,50.034950166112935
2.1598724210106646,36.034950166112935
2.1608691318648456,6.034950166112935
2.161865842719027,41.034950166112935
2.1628625535732082,76.03495016611294
2.1638592644273893,102.03495016611294
2.164855975281571,84.03495016611294
2.165852686135752,24.034950166112935
2.166849396989933,-57.965049833887065
2.167846107844114,-103.96504983388706
2.1688428186982955,-99.96504983388706
2.1698395295524766,-80.96504983388706
2.1708362404066577,-70.96504983388706
2.171832951260839,-39.965049833887065
2.1728296621150203,14.034950166112935
2.1738263729692013,69.03495016611294
2.174823083823383,101.03495016611294
2.175819794677564,70.03495016611294
2.176816505531745,62.034950166112935
2.177813216385926,45.034950166112935
2.1788099272401076,-0.9650498338870648
2.1798066380942887,-8.965049833887065
2.1808033489484697,7.034950166112935
2.1818000598026512,-0.9650498338870648
2.1827967706568323,-30.965049833887065
2.1837934815110134,-17.965049833887065
2.1847901923651945,4.034950166112935
2.185786903219376,6.034950166112935
2.186783614073557,31.034950166112935
2.187780324927738,15.034950166112935
2.1887770357819196,-20.965049833887065
2.1897737466361007,-25.965049833887065
2.1907704574902818,-20.965049833887065
2.1917671683444633,-16.965049833887065
2.1927638791986444,-23.965049833887065
2.1937605900528254,-40.965049833887065
2.1947573009070065,-14.965049833887065
2.195754011761188,44.034950166112935
2.196750722615369,98.03495016611294
2.19774743346955,97.03495016611294
2.1987441443237317,36.034950166112935
2.1997408551779127,-27.965049833887065
2.200737566032094,-108.96504983388706
2.201734276886275,-87.96504983388706
2.2027309877404564,-50.965049833887065
2.2037276985946375,-62.965049833887065
2.2047244094488185,-2.965049833887065
2.205721120303,82.03495016611294
2.206717831157181,111.03495016611294
2.207714542011362,49.034950166112935
2.2087112528655437,3.034950166112935
2.2097079637197248,-10.965049833887065
2.210704674573906,-19.965049833887065
2.211701385428087,-36.965049833887065
2.2126980962822684,-40.965049833887065
2.2136948071364495,-19.965049833887065
2.2146915179906306,16.034950166112935
2.215688228844812,53.034950166112935
2.216684939698993,55.034950166112935
2.2176816505531742,64.03495016611294
2.2186783614073553,53.034950166112935
2.219675072261537,5.034950166112935
2.220671783115718,-38.965049833887065
2.221668493969899,-15.965049833887065
2.2226652048240805,-3.965049833887065
2.2236619156782615,-18.965049833887065
2.2246586265324426,-19.965049833887065
2.225655337386624,-19.965049833887065
2.226652048240805,-19.965049833887065
2.2276487590949863,-5.965049833887065
2.2286454699491673,-23.965049833887065
2.229642180803349,-43.965049833887065
2.23063889165753,-23.965049833887065
2.231635602511711,-16.965049833887065
2.2326323133658925,3.034950166112935
2.2336290242200736,19.034950166112935
2.2346257350742547,6.034950166112935
2.235622445928436,24.034950166112935
2.2366191567826172,97.03495016611294
2.2376158676367983,80.03495016611294
2.2386125784909794,93.03495016611294
2.239609289345161,92.03495016611294
2.240606000199342,7.034950166112935
2.241602711053523,-92.96504983388706
2.2425994219077046,-105.96504983388706
2.2435961327618856,-71.96504983388706
2.2445928436160667,-20.965049833887065
2.2455895544702478,33.034950166112935
2.2465862653244293,30.034950166112935
2.2475829761786104,12.034950166112935
2.2485796870327914,-12.965049833887065
2.249576397886973,-65.96504983388706
2.250573108741154,-42.965049833887065
2.251569819595335,-4.965049833887065
2.2525665304495166,-8.965049833887065
2.2535632413036977,15.034950166112935
2.2545599521578787,46.034950166112935
2.25555666301206,37.034950166112935
2.2565533738662413,34.034950166112935
2.2575500847204224,17.034950166112935
2.2585467955746035,15.034950166112935
2.259543506428785,0.03495016611293522
2.260540217282966,-8.965049833887065
2.261536928137147,5.034950166112935
2.262533638991328,13.034950166112935
2.2635303498455097,25.034950166112935
2.264527060699691,12.034950166112935
2.265523771553872,16.034950166112935
2.2665204824080534,-16.965049833887065
2.2675171932622344,-55.965049833887065
2.2685139041164155,-53.965049833887065
2.269510614970597,-24.965049833887065
2.270507325824778,2.034950166112935
2.271504036678959,-11.965049833887065
2.2725007475331402,-25.965049833887065
2.2734974583873218,-36.965049833887065
2.274494169241503,33.034950166112935
2.275490880095684,107.03495016611294
2.2764875909498654,90.03495016611294
2.2774843018040465,38.034950166112935
2.2784810126582276,-7.965049833887065
2.2794777235124086,-68.96504983388706
2.28047443436659,-65.96504983388706
2.281471145220771,-12.965049833887065
2.2824678560749523,-1.9650498338870648
2.283464566929134,-0.9650498338870648
2.284461277783315,27.034950166112935
2.285457988637496,-2.965049833887065
2.2864546994916775,-13.965049833887065
2.2874514103458585,12.034950166112935
2.2884481212000396,12.034950166112935
2.2894448320542207,-14.965049833887065
2.290441542908402,-31.965049833887065
2.2914382537625833,-10.965049833887065
2.2924349646167643,13.034950166112935
2.293431675470946,20.034950166112935
2.294428386325127,-4.965049833887065
2.295425097179308,-27.965049833887065
2.2964218080334895,-38.965049833887065
2.2974185188876706,-1.9650498338870648
2.2984152297418516,7.034950166112935
2.2994119405960327,104.03495016611294
2.3004086514502142,138.03495016611294
2.3014053623043953,74.03495016611294
2.3024020731585764,39.034950166112935
2.303398784012758,-11.965049833887065
2.304395494866939,-57.965049833887065
2.30539220572112,-94.96504983388706
2.306388916575301,-88.96504983388706
2.3073856274294826,-73.96504983388706
2.3083823382836637,-27.965049833887065
2.3093790491378448,0.03495016611293522
2.3103757599920263,22.034950166112935
2.3113724708462073,33.034950166112935
2.3123691817003884,-2.965049833887065
2.31336589255457,6.034950166112935
2.314362603408751,36.034950166112935
2.315359314262932,16.034950166112935
2.316356025117113,-0.9650498338870648
2.3173527359712947,12.034950166112935
2.3183494468254757,16.034950166112935
2.319346157679657,7.034950166112935
2.3203428685338383,5.034950166112935
2.3213395793880194,2.034950166112935
2.3223362902422005,-5.965049833887065
2.3233330010963815,-19.965049833887065
2.324329711950563,-41.965049833887065
2.325326422804744,-85.96504983388706
2.326323133658925,-83.96504983388706
2.3273198445131067,-9.965049833887065
2.3283165553672878,63.034950166112935
2.329313266221469,56.034950166112935
2.3303099770756504,54.034950166112935
2.3313066879298314,68.03495016611294
2.3323033987840125,75.03495016611294
2.3333001096381936,53.034950166112935
2.334296820492375,15.034950166112935
2.335293531346556,-49.965049833887065
2.336290242200737,-55.965049833887065
2.3372869530549187,-32.965049833887065
2.3382836639091,-14.965049833887065
2.339280374763281,5.034950166112935
2.340277085617462,17.034950166112935
2.3412737964716435,-1.9650498338870648
2.3422705073258245,-10.965049833887065
2.3432672181800056,-23.965049833887065
2.344263929034187,-30.965049833887065
2.345260639888368,-20.965049833887065
2.3462573507425493,-26.965049833887065
2.347254061596731,-18.965049833887065
2.348250772450912,-11.965049833887065
2.349247483305093,-7.965049833887065
2.350244194159274,-13.965049833887065
2.3512409050134555,-15.965049833887065
2.3522376158676366,-15.965049833887065
2.3532343267218176,7.034950166112935
2.354231037575999,57.034950166112935
2.3552277484301802,65.03495016611294
2.3562244592843613,22.034950166112935
2.3572211701385424,-12.965049833887065
2.358217880992724,1.0349501661129352
2.359214591846905,6.034950166112935
2.360211302701086,12.034950166112935
2.3612080135552675,17.034950166112935
2.3622047244094486,32.034950166112935
2.3632014352636297,29.034950166112935
2.364198146117811,-9.965049833887065
2.3651948569719923,-34.965049833887065
2.3661915678261733,-28.965049833887065
2.3671882786803544,-27.965049833887065
2.368184989534536,-26.965049833887065
2.369181700388717,-17.965049833887065
2.370178411242898,-8.965049833887065
2.3711751220970796,-1.9650498338870648
2.3721718329512607,6.034950166112935
2.3731685438054417,10.034950166112935
2.3741652546596232,18.034950166112935
2.3751619655138043,19.034950166112935
2.3761586763679854,11.034950166112935
2.3771553872221665,13.034950166112935
2.378152098076348,8.034950166112935
2.379148808930529,9.034950166112935
2.38014551978471,0.03495016611293522
2.3811422306388916,-6.965049833887065
2.3821389414930727,17.034950166112935
2.3831356523472538,19.034950166112935
2.384132363201435,4.034950166112935
2.3851290740556164,-8.965049833887065
2.3861257849097974,-7.965049833887065
2.3871224957639785,-23.965049833887065
2.38811920661816,-30.965049833887065
2.389115917472341,-27.965049833887065
2.390112628326522,-32.965049833887065
2.3911093391807037,-15.965049833887065
2.3921060500348847,24.034950166112935
2.393102760889066,38.034950166112935
2.394099471743247,29.034950166112935
2.3950961825974284,17.034950166112935
2.3960928934516095,14.034950166112935
2.3970896043057905,14.034950166112935
2.398086315159972,14.034950166112935
2.399083026014153,10.034950166112935
2.400079736868334,6.034950166112935
2.4010764477225153,-1.9650498338870648
2.402073158576697,-6.965049833887065
2.403069869430878,-10.965049833887065
2.404066580285059,-15.965049833887065
2.4050632911392404,-19.965049833887065
2.4060600019934215,-23.965049833887065
2.4070567128476026,-23.965049833887065
2.408053423701784,-17.965049833887065
2.409050134555965,-10.965049833887065
2.4100468454101462,-0.9650498338870648
2.4110435562643273,4.034950166112935
2.412040267118509,5.034950166112935
2.41303697797269,8.034950166112935
2.414033688826871,12.034950166112935
2.4150303996810525,18.034950166112935
2.4160271105352336,16.034950166112935
2.4170238213894146,15.034950166112935
2.4180205322435957,9.034950166112935
2.419017243097777,8.034950166112935
2.4200139539519583,24.034950166112935
2.4210106648061394,18.034950166112935
2.422007375660321,-3.965049833887065
2.423004086514502,9.034950166112935
2.424000797368683,-11.965049833887065
2.4249975082228645,-38.965049833887065
2.4259942190770456,-36.965049833887065
2.4269909299312267,-31.965049833887065
2.4279876407854077,-19.965049833887065
2.4289843516395893,-6.965049833887065
2.4299810624937703,-2.965049833887065
2.4309777733479514,-3.965049833887065
2.431974484202133,1.0349501661129352
2.432971195056314,15.034950166112935
2.433967905910495,23.034950166112935
2.434964616764676,22.034950166112935
2.4359613276188576,22.034950166112935
2.4369580384730387,20.034950166112935
2.43795474932722,17.034950166112935
2.4389514601814013,8.034950166112935
2.4399481710355824,12.034950166112935
2.4409448818897634,4.034950166112935
2.441941592743945,-11.965049833887065
2.442938303598126,-13.965049833887065
2.443935014452307,-18.965049833887065
2.444931725306488,-17.965049833887065
2.4459284361606697,-14.965049833887065
2.4469251470148508,-19.965049833887065
2.447921857869032,-19.965049833887065
2.4489185687232133,-14.965049833887065
2.4499152795773944,-14.965049833887065
2.4509119904315755,-14.965049833887065
2.451908701285757,-7.965049833887065
2.452905412139938,13.034950166112935
2.453902122994119,63.034950166112935
2.4548988338483,58.034950166112935
2.4558955447024817,33.034950166112935
2.456892255556663,13.034950166112935
2.457888966410844,11.034950166112935
2.4588856772650254,17.034950166112935
2.4598823881192065,22.034950166112935
2.4608790989733875,-15.965049833887065
2.4618758098275686,-22.965049833887065
2.46287252068175,-27.965049833887065
2.463869231535931,-30.965049833887065
2.4648659423901123,-34.965049833887065
2.4658626532442938,-32.965049833887065
2.466859364098475,-24.965049833887065
2.467856074952656,-20.965049833887065
2.4688527858068374,-14.965049833887065
2.4698494966610185,0.03495016611293522
2.4708462075151996,-2.965049833887065
2.4718429183693806,-4.965049833887065
2.472839629223562,11.034950166112935
2.4738363400777432,30.034950166112935
2.4748330509319243,39.034950166112935
2.475829761786106,38.034950166112935
2.476826472640287,28.034950166112935
2.477823183494468,9.034950166112935
2.478819894348649,5.034950166112935
2.4798166052028305,-8.965049833887065
2.4808133160570116,2.034950166112935
2.4818100269111927,4.034950166112935
2.482806737765374,-15.965049833887065
2.4838034486195553,-17.965049833887065
2.4848001594737363,-19.965049833887065
2.485796870327918,-15.965049833887065
2.486793581182099,-7.965049833887065
2.48779029203628,-9.965049833887065
2.488787002890461,-9.965049833887065
2.4897837137446426,-15.965049833887065
2.4907804245988237,-0.9650498338870648
2.4917771354530047,6.034950166112935
2.4927738463071862,-2.965049833887065
2.4937705571613673,5.034950166112935
2.4947672680155484,9.034950166112935
2.4957639788697294,7.034950166112935
2.496760689723911,23.034950166112935
2.497757400578092,15.034950166112935
2.498754111432273,16.034950166112935
2.4997508222864546,19.034950166112935
2.5007475331406357,11.034950166112935
2.5017442439948168,2.034950166112935
2.5027409548489983,-3.965049833887065
2.5037376657031793,-19.965049833887065
2.5047343765573604,-35.965049833887065
2.5057310874115415,-45.965049833887065
2.506727798265723,-20.965049833887065
2.507724509119904,-1.9650498338870648
2.508721219974085,2.034950166112935
2.5097179308282667,1.0349501661129352
2.5107146416824477,1.0349501661129352
2.511711352536629,6.034950166112935
2.51270806339081,9.034950166112935
2.5137047742449914,-1.9650498338870648
2.5147014850991725,-2.965049833887065
2.5156981959533535,8.034950166112935
2.516694906807535,25.034950166112935
2.517691617661716,42.034950166112935
2.518688328515897,43.034950166112935
2.5196850393700787,25.034950166112935
2.5206817502242598,10.034950166112935
2.521678461078441,-9.965049833887065
2.522675171932622,-19.965049833887065
2.5236718827868034,-38.965049833887065
2.5246685936409845,-23.965049833887065
2.5256653044951656,-6.965049833887065
2.526662015349347,-1.9650498338870648
2.527658726203528,6.034950166112935
2.5286554370577092,5.034950166112935
2.5296521479118907,-1.9650498338870648
2.530648858766072,-13.965049833887065
2.531645569620253,-8.965049833887065
2.532642280474434,-11.965049833887065
2.5336389913286155,-4.965049833887065
2.5346357021827965,0.03495016611293522
2.5356324130369776,5.034950166112935
2.536629123891159,24.034950166112935
2.53762583474534,22.034950166112935
2.5386225455995213,21.034950166112935
2.5396192564537023,12.034950166112935
2.540615967307884,-11.965049833887065
2.541612678162065,-17.965049833887065
2.542609389016246,-8.965049833887065
2.5436060998704275,-3.965049833887065
2.5446028107246086,-5.965049833887065
2.5455995215787897,-11.965049833887065
2.546596232432971,-1.9650498338870648
2.5475929432871522,9.034950166112935
2.5485896541413333,-4.965049833887065
2.5495863649955144,-20.965049833887065
2.550583075849696,-14.965049833887065
2.551579786703877,1.0349501661129352
2.552576497558058,-2.965049833887065
2.5535732084122396,-9.965049833887065
2.5545699192664206,27.034950166112935
2.5555666301206017,38.034950166112935
2.5565633409747828,23.034950166112935
2.5575600518289643,32.034950166112935
2.5585567626831454,48.034950166112935
2.5595534735373264,51.034950166112935
2.560550184391508,11.034950166112935
2.561546895245689,-20.965049833887065
2.56254360609987,-15.965049833887065
2.5635403169540516,-19.965049833887065
2.5645370278082327,-17.965049833887065
2.5655337386624137,-39.965049833887065
2.566530449516595,-51.965049833887065
2.5675271603707763,-37.965049833887065
2.5685238712249574,-30.965049833887065
2.5695205820791385,-0.9650498338870648
2.57051729293332,17.034950166112935
2.571514003787501,23.034950166112935
2.572510714641682,10.034950166112935
2.573507425495863,4.034950166112935
2.5745041363500447,5.034950166112935
2.575500847204226,8.034950166112935
2.576497558058407,15.034950166112935
2.5774942689125884,31.034950166112935
2.5784909797667694,35.034950166112935
2.5794876906209505,36.034950166112935
2.580484401475132,36.034950166112935
2.581481112329313,4.034950166112935
2.582477823183494,-10.965049833887065
2.5834745340376752,-31.965049833887065
2.5844712448918568,-46.965049833887065
2.585467955746038,-40.965049833887065
2.586464666600219,-26.965049833887065
2.5874613774544004,-23.965049833887065
2.5884580883085815,-14.965049833887065
2.5894547991627626,12.034950166112935
2.590451510016944,17.034950166112935
2.591448220871125,7.034950166112935
2.592444931725306,5.034950166112935
2.5934416425794873,13.034950166112935
2.594438353433669,-0.9650498338870648
2.59543506428785,-23.965049833887065
2.596431775142031,-14.965049833887065
2.5974284859962125,-10.965049833887065
2.5984251968503935,-2.965049833887065
2.5994219077045746,20.034950166112935
2.6004186185587557,31.034950166112935
2.601415329412937,64.03495016611294
2.6024120402671183,36.034950166112935
2.6034087511212993,12.034950166112935
2.604405461975481,-11.965049833887065
2.605402172829662,-23.965049833887065
2.606398883683843,-25.965049833887065
2.6073955945380245,-24.965049833887065
2.6083923053922056,-7.965049833887065
2.6093890162463866,2.034950166112935
2.6103857271005677,-18.965049833887065
2.6113824379547492,-14.965049833887065
2.6123791488089303,5.034950166112935
2.6133758596631114,24.034950166112935
2.614372570517293,30.034950166112935
2.615369281371474,15.034950166112935
2.616365992225655,5.034950166112935
2.617362703079836,9.034950166112935
2.6183594139340176,18.034950166112935
2.6193561247881987,8.034950166112935
2.6203528356423798,-3.965049833887065
2.6213495464965613,-7.965049833887065
2.6223462573507423,-7.965049833887065
2.6233429682049234,-17.965049833887065
2.624339679059105,-16.965049833887065
2.625336389913286,-19.965049833887065
2.626333100767467,-11.965049833887065
2.627329811621648,-16.965049833887065
2.6283265224758297,-19.965049833887065
2.6293232333300107,-20.965049833887065
2.630319944184192,-3.965049833887065
2.6313166550383733,5.034950166112935
2.6323133658925544,4.034950166112935
2.6333100767467355,12.034950166112935
2.6343067876009165,15.034950166112935
2.635303498455098,5.034950166112935
2.636300209309279,19.034950166112935
2.63729692016346,36.034950166112935
2.6382936310176417,25.034950166112935
2.6392903418718228,5.034950166112935
2.640287052726004,-0.9650498338870648
2.6412837635801854,-6.965049833887065
2.6422804744343664,-16.965049833887065
2.6432771852885475,-26.965049833887065
2.6442738961427286,-17.965049833887065
2.64527060699691,-6.965049833887065
2.646267317851091,-13.965049833887065
2.647264028705272,8.034950166112935
2.6482607395594537,5.034950166112935
2.649257450413635,-10.965049833887065
2.650254161267816,-2.965049833887065
2.651250872121997,3.034950166112935
2.6522475829761785,-7.965049833887065
2.6532442938303595,5.034950166112935
2.6542410046845406,14.034950166112935
2.655237715538722,14.034950166112935
2.656234426392903,23.034950166112935
2.6572311372470843,17.034950166112935
2.6582278481012658,5.034950166112935
2.659224558955447,8.034950166112935
2.660221269809628,9.034950166112935
2.661217980663809,-1.9650498338870648
2.6622146915179905,-4.965049833887065
2.6632114023721716,-7.965049833887065
2.6642081132263526,-19.965049833887065
2.665204824080534,-16.965049833887065
2.6662015349347152,8.034950166112935
2.6671982457888963,12.034950166112935
2.668194956643078,1.0349501661129352
2.669191667497259,1.0349501661129352
2.67018837835144,-7.965049833887065
2.671185089205621,-7.965049833887065
2.6721818000598025,1.0349501661129352
2.6731785109139836,7.034950166112935
2.6741752217681647,8.034950166112935
2.675171932622346,10.034950166112935
2.6761686434765273,16.034950166112935
2.6771653543307083,22.034950166112935
2.6781620651848894,20.034950166112935
2.679158776039071,15.034950166112935
2.680155486893252,4.034950166112935
2.681152197747433,-2.965049833887065
2.6821489086016146,-2.965049833887065
2.6831456194557957,-10.965049833887065
2.6841423303099767,-19.965049833887065
2.6851390411641582,-22.965049833887065
2.6861357520183393,-14.965049833887065
2.6871324628725204,-16.965049833887065
2.6881291737267015,-16.965049833887065
2.689125884580883,-17.965049833887065
2.690122595435064,-4.965049833887065
2.691119306289245,3.034950166112935
2.6921160171434266,5.034950166112935
2.6931127279976077,12.034950166112935
2.6941094388517888,17.034950166112935
2.69510614970597,20.034950166112935
2.6961028605601514,21.034950166112935
2.6970995714143324,23.034950166112935
2.6980962822685135,19.034950166112935
2.699092993122695,14.034950166112935
2.700089703976876,3.034950166112935
2.701086414831057,-0.9650498338870648
2.7020831256852387,-2.965049833887065
2.7030798365394197,-15.965049833887065
2.704076547393601,-18.965049833887065
2.705073258247782,-21.965049833887065
2.7060699691019634,-19.965049833887065
2.7070666799561445,-17.965049833887065
2.7080633908103255,-14.965049833887065
2.709060101664507,-9.965049833887065
2.710056812518688,-3.965049833887065
2.711053523372869,4.034950166112935
2.7120502342270503,4.034950166112935
2.713046945081232,12.034950166112935
2.714043655935413,12.034950166112935
2.715040366789594,14.034950166112935
2.7160370776437754,14.034950166112935
2.7170337884979565,10.034950166112935
2.7180304993521376,12.034950166112935
2.719027210206319,11.034950166112935
2.7200239210605,14.034950166112935
2.7210206319146812,11.034950166112935
2.7220173427688623,3.034950166112935
2.723014053623044,-13.965049833887065
2.724010764477225,-19.965049833887065
2.725007475331406,-24.965049833887065
2.7260041861855875,-31.965049833887065
2.7270008970397686,-28.965049833887065
2.7279976078939496,-20.965049833887065
2.7289943187481307,-11.965049833887065
2.729991029602312,-1.9650498338870648
2.7309877404564933,-1.9650498338870648
2.7319844513106744,1.0349501661129352
2.732981162164856,9.034950166112935
2.733977873019037,12.034950166112935
2.734974583873218,15.034950166112935
2.7359712947273995,16.034950166112935
2.7369680055815806,17.034950166112935
2.7379647164357617,17.034950166112935
2.7389614272899427,13.034950166112935
2.7399581381441243,4.034950166112935
2.7409548489983053,-2.965049833887065
2.7419515598524864,-7.965049833887065
2.742948270706668,-9.965049833887065
2.743944981560849,-17.965049833887065
2.74494169241503,-20.965049833887065
2.7459384032692116,-18.965049833887065
2.7469351141233926,-17.965049833887065
2.7479318249775737,-15.965049833887065
2.748928535831755,-10.965049833887065
2.7499252466859363,-8.965049833887065
2.7509219575401174,0.03495016611293522
2.7519186683942984,3.034950166112935
2.75291537924848,11.034950166112935
2.753912090102661,13.034950166112935
2.754908800956842,15.034950166112935
2.755905511811023,18.034950166112935
2.7569022226652047,16.034950166112935
2.7578989335193858,15.034950166112935
2.758895644373567,12.034950166112935
2.7598923552277483,7.034950166112935
2.7608890660819294,-2.965049833887065
2.7618857769361105,-7.965049833887065
2.762882487790292,-13.965049833887065
2.763879198644473,-18.965049833887065
2.764875909498654,-22.965049833887065
2.765872620352835,-22.965049833887065
2.7668693312070167,-15.965049833887065
2.767866042061198,-11.965049833887065
2.768862752915379,-8.965049833887065
2.7698594637695604,2.034950166112935
2.7708561746237415,8.034950166112935
2.7718528854779225,7.034950166112935
2.7728495963321036,14.034950166112935
2.773846307186285,24.034950166112935
2.774843018040466,26.034950166112935
2.7758397288946473,16.034950166112935
2.7768364397488288,14.034950166112935
2.77783315060301,13.034950166112935
2.778829861457191,12.034950166112935
2.7798265723113724,5.034950166112935
2.7808232831655535,0.03495016611293522
2.7818199940197346,-4.965049833887065
2.7828167048739156,-10.965049833887065
2.783813415728097,-17.965049833887065
2.7848101265822782,-20.965049833887065
2.7858068374364593,-20.965049833887065
2.786803548290641,-17.965049833887065
2.787800259144822,-13.965049833887065
2.788796969999003,-7.965049833887065
2.789793680853184,-2.965049833887065
2.7907903917073655,1.0349501661129352
2.7917871025615466,5.034950166112935
2.7927838134157277,10.034950166112935
2.793780524269909,16.034950166112935
2.7947772351240903,19.034950166112935
2.7957739459782713,21.034950166112935
2.796770656832453,20.034950166112935
2.797767367686634,16.034950166112935
2.798764078540815,14.034950166112935
2.799760789394996,7.034950166112935
2.8007575002491776,-0.9650498338870648
2.8017542111033586,-1.9650498338870648
2.8027509219575397,-10.965049833887065
2.8037476328117212,-17.965049833887065
2.8047443436659023,-21.965049833887065
2.8057410545200834,-19.965049833887065
2.8067377653742644,-18.965049833887065
2.807734476228446,-10.965049833887065
2.808731187082627,-7.965049833887065
2.809727897936808,-2.965049833887065
2.8107246087909896,3.034950166112935
2.8117213196451707,6.034950166112935
2.8127180304993518,11.034950166112935
2.8137147413535333,16.034950166112935
2.8147114522077143,18.034950166112935
2.8157081630618954,20.034950166112935
2.8167048739160765,22.034950166112935
2.817701584770258,17.034950166112935
2.818698295624439,12.034950166112935
2.81969500647862,5.034950166112935
2.8206917173328017,0.03495016611293522
2.8216884281869827,-4.965049833887065
2.822685139041164,-11.965049833887065
2.8236818498953453,-19.965049833887065
2.8246785607495264,-20.965049833887065
2.8256752716037075,-20.965049833887065
2.8266719824578885,-20.965049833887065
2.82766869331207,-15.965049833887065
2.828665404166251,-10.965049833887065
2.829662115020432,-4.965049833887065
2.8306588258746137,1.0349501661129352
2.8316555367287948,0.03495016611293522
2.832652247582976,7.034950166112935
2.833648958437157,12.034950166112935
2.8346456692913384,16.034950166112935
2.8356423801455195,17.034950166112935
2.8366390909997006,18.034950166112935
2.837635801853882,16.034950166112935
2.838632512708063,13.034950166112935
2.8396292235622442,4.034950166112935
2.8406259344164257,-1.9650498338870648
2.841622645270607,-4.965049833887065
2.842619356124788,-10.965049833887065
2.843616066978969,-16.965049833887065
2.8446127778331505,-21.965049833887065
2.8456094886873315,-21.965049833887065
2.8466061995415126,-21.965049833887065
2.847602910395694,-16.965049833887065
2.848599621249875,-10.965049833887065
2.8495963321040563,-6.965049833887065
2.8505930429582373,1.0349501661129352
2.851589753812419,4.034950166112935
2.8525864646666,8.034950166112935
2.853583175520781,13.034950166112935
2.8545798863749625,17.034950166112935
2.8555765972291436,17.034950166112935
2.8565733080833247,20.034950166112935
2.857570018937506,13.034950166112935
2.8585667297916872,8.034950166112935
2.8595634406458683,6.034950166112935
2.8605601515000494,-1.9650498338870648
2.861556862354231,-3.965049833887065
2.862553573208412,-10.965049833887065
2.863550284062593,-19.965049833887065
2.8645469949167746,-20.965049833887065
2.8655437057709556,-21.965049833887065
2.8665404166251367,-18.965049833887065
2.8675371274793178,-15.965049833887065
2.8685338383334993,-10.965049833887065
2.8695305491876804,-4.965049833887065
2.8705272600418614,3.034950166112935
2.871523970896043,6.034950166112935
2.872520681750224,10.034950166112935
2.873517392604405,15.034950166112935
2.8745141034585866,17.034950166112935
2.8755108143127677,18.034950166112935
2.8765075251669487,18.034950166112935
2.87750423602113,16.034950166112935
2.8785009468753113,12.034950166112935
2.8794976577294924,6.034950166112935
2.8804943685836735,1.0349501661129352
2.881491079437855,-2.965049833887065
2.882487790292036,-10.965049833887065
2.883484501146217,-17.965049833887065
2.8844812120003986,-20.965049833887065
2.8854779228545797,-19.965049833887065
2.886474633708761,-18.965049833887065
2.887471344562942,-15.965049833887065
2.8884680554171234,-10.965049833887065
2.8894647662713044,-4.965049833887065
2.8904614771254855,1.0349501661129352
2.891458187979667,6.034950166112935
2.892454898833848,11.034950166112935
2.893451609688029,17.034950166112935
2.8944483205422102,17.034950166112935
2.8954450313963918,16.034950166112935
2.896441742250573,19.034950166112935
2.897438453104754,16.034950166112935
2.8984351639589354,13.034950166112935
2.8994318748131165,6.034950166112935
2.9004285856672976,0.03495016611293522
2.901425296521479,-5.965049833887065
2.90242200737566,-9.965049833887065
2.903418718229841,-14.965049833887065
2.9044154290840223,-19.965049833887065
2.905412139938204,-20.965049833887065
2.906408850792385,-19.965049833887065
2.907405561646566,-14.965049833887065
2.9084022725007475,-11.965049833887065
2.9093989833549285,-4.965049833887065
2.9103956942091096,2.034950166112935
2.9113924050632907,6.034950166112935
2.912389115917472,10.034950166112935
2.9133858267716533,13.034950166112935
2.9143825376258343,16.034950166112935
2.915379248480016,18.034950166112935
2.916375959334197,21.034950166112935
2.917372670188378,17.034950166112935
2.9183693810425595,14.034950166112935
2.9193660918967406,7.034950166112935
2.9203628027509216,1.0349501661129352
2.9213595136051027,-3.965049833887065
2.9223562244592842,-9.965049833887065
2.9233529353134653,-15.965049833887065
2.9243496461676464,-17.965049833887065
2.925346357021828,-19.965049833887065
2.926343067876009,-19.965049833887065
2.92733977873019,-13.965049833887065
2.928336489584371,-10.965049833887065
2.9293332004385526,-6.965049833887065
2.9303299112927337,0.03495016611293522
2.9313266221469148,7.034950166112935
2.9323233330010963,14.034950166112935
2.9333200438552773,17.034950166112935
2.9343167547094584,17.034950166112935
2.93531346556364,17.034950166112935
2.936310176417821,20.034950166112935
2.937306887272002,17.034950166112935
2.938303598126183,12.034950166112935
2.9393003089803647,10.034950166112935
2.9402970198345457,0.03495016611293522
2.941293730688727,-3.965049833887065
2.9422904415429083,-9.965049833887065
2.9432871523970894,-12.965049833887065
2.9442838632512704,-19.965049833887065
2.9452805741054515,-20.965049833887065
2.946277284959633,-19.965049833887065
2.947273995813814,-18.965049833887065
2.948270706667995,-11.965049833887065
2.9492674175221767,-7.965049833887065
2.9502641283763578,0.03495016611293522
2.951260839230539,3.034950166112935
2.9522575500847204,8.034950166112935
2.9532542609389014,15.034950166112935
2.9542509717930825,14.034950166112935
2.9552476826472636,18.034950166112935
2.956244393501445,21.034950166112935
2.957241104355626,17.034950166112935
2.958237815209807,9.034950166112935
2.9592345260639887,7.034950166112935
2.96023123691817,1.0349501661129352
2.961227947772351,-2.965049833887065
2.9622246586265324,-9.965049833887065
2.9632213694807135,-16.965049833887065
2.9642180803348945,-22.965049833887065
2.9652147911890756,-20.965049833887065
2.966211502043257,-19.965049833887065
2.967208212897438,-17.965049833887065
2.9682049237516193,-13.965049833887065
2.9692016346058008,-3.965049833887065
2.970198345459982,4.034950166112935
2.971195056314163,6.034950166112935
2.972191767168344,8.034950166112935
2.9731884780225255,14.034950166112935
2.9741851888767066,17.034950166112935
2.9751818997308876,16.034950166112935
2.976178610585069,18.034950166112935
2.9771753214392502,16.034950166112935
2.9781720322934313,12.034950166112935
2.979168743147613,6.034950166112935
2.980165454001794,0.03495016611293522
2.981162164855975,-2.965049833887065
2.982158875710156,-7.965049833887065
2.9831555865643375,-14.965049833887065
2.9841522974185186,-18.965049833887065
2.9851490082726997,-20.965049833887065
2.986145719126881,-20.965049833887065
2.9871424299810623,-15.965049833887065
2.9881391408352433,-10.965049833887065
2.9891358516894244,-5.965049833887065
2.990132562543606,2.034950166112935
2.991129273397787,6.034950166112935
2.992125984251968,11.034950166112935
2.9931226951061496,16.034950166112935
2.9941194059603307,17.034950166112935
2.9951161168145117,17.034950166112935
2.9961128276686932,17.034950166112935
2.9971095385228743,16.034950166112935
2.9981062493770554,14.034950166112935
2.9991029602312365,8.034950166112935
3.000099671085418,1.0349501661129352
3.001096381939599,-3.965049833887065
3.00209309279378,-8.965049833887065
3.0030898036479616,-16.965049833887065
3.0040865145021427,-20.965049833887065
3.0050832253563238,-22.965049833887065
3.006079936210505,-20.965049833887065
3.0070766470646864,-12.965049833887065
3.0080733579188674,-11.965049833887065
3.0090700687730485,-8.965049833887065
3.01006677962723,-0.9650498338870648
3.011063490481411,5.034950166112935
3.012060201335592,8.034950166112935
3.0130569121897737,13.034950166112935
3.0140536230439547,15.034950166112935
3.015050333898136,16.034950166112935
3.016047044752317,19.034950166112935
3.0170437556064984,19.034950166112935
3.0180404664606795,17.034950166112935
3.0190371773148605,7.034950166112935
3.020033888169042,2.034950166112935
3.021030599023223,-4.965049833887065
3.022027309877404,-9.965049833887065
3.0230240207315853,-17.965049833887065
3.024020731585767,-19.965049833887065
3.025017442439948,-19.965049833887065
3.026014153294129,-18.965049833887065
3.0270108641483104,-16.965049833887065
3.0280075750024915,-10.965049833887065
3.0290042858566726,-7.965049833887065
3.030000996710854,1.0349501661129352
3.030997707565035,5.034950166112935
3.0319944184192162,7.034950166112935
3.0329911292733973,16.034950166112935
3.033987840127579,17.034950166112935
3.03498455098176,17.034950166112935
3.035981261835941,19.034950166112935
3.0369779726901225,15.034950166112935
3.0379746835443036,11.034950166112935
3.0389713943984846,8.034950166112935
3.039968105252666,3.034950166112935
3.040964816106847,-3.965049833887065
3.0419615269610283,-8.965049833887065
3.0429582378152094,-13.965049833887065
3.043954948669391,-20.965049833887065
3.044951659523572,-21.965049833887065
3.045948370377753,-19.965049833887065
3.0469450812319345,-13.965049833887065
3.0479417920861156,-11.965049833887065
3.0489385029402967,-9.965049833887065
3.0499352137944777,1.0349501661129352
3.0509319246486593,3.034950166112935
3.0519286355028403,7.034950166112935
3.0529253463570214,16.034950166112935
3.053922057211203,17.034950166112935
3.054918768065384,16.034950166112935
3.055915478919565,18.034950166112935
3.0569121897737466,16.034950166112935
3.0579089006279276,15.034950166112935
3.0589056114821087,11.034950166112935
3.05990232233629,2.034950166112935
3.0608990331904713,-2.965049833887065
3.0618957440446524,-5.965049833887065
3.0628924548988334,-15.965049833887065
3.063889165753015,-18.965049833887065
3.064885876607196,-19.965049833887065
3.065882587461377,-19.965049833887065
3.066879298315558,-14.965049833887065
3.0678760091697397,-11.965049833887065
3.0688727200239208,-7.965049833887065
3.069869430878102,0.03495016611293522
3.0708661417322833,4.034950166112935
3.0718628525864644,9.034950166112935
3.0728595634406455,14.034950166112935
3.073856274294827,14.034950166112935
3.074852985149008,16.034950166112935
3.075849696003189,19.034950166112935
3.07684640685737,19.034950166112935
3.0778431177115517,15.034950166112935
3.078839828565733,7.034950166112935
3.079836539419914,-0.9650498338870648
3.0808332502740954,-5.965049833887065
3.0818299611282765,-7.965049833887065
3.0828266719824575,-17.965049833887065
3.0838233828366386,-17.965049833887065
3.08482009369082,-19.965049833887065
3.085816804545001,-17.965049833887065
3.0868135153991823,-16.965049833887065
3.0878102262533638,-11.965049833887065
3.088806937107545,-5.965049833887065
3.089803647961726,0.03495016611293522
3.0908003588159074,3.034950166112935
3.0917970696700885,7.034950166112935
3.0927937805242696,13.034950166112935
3.0937904913784506,17.034950166112935
3.094787202232632,17.034950166112935
3.095783913086813,18.034950166112935
3.0967806239409943,16.034950166112935
3.097777334795176,14.034950166112935
3.098774045649357,9.034950166112935
3.099770756503538,5.034950166112935
3.1007674673577195,-0.9650498338870648
3.1017641782119005,-6.965049833887065
3.1027608890660816,-11.965049833887065
3.1037575999202627,-18.965049833887065
3.104754310774444,-19.965049833887065
3.1057510216286253,-20.965049833887065
3.1067477324828063,-14.965049833887065
3.107744443336988,-9.965049833887065
3.108741154191169,-7.965049833887065
3.10973786504535,-0.9650498338870648
3.110734575899531,6.034950166112935
3.1117312867537126,8.034950166112935
3.1127279976078936,12.034950166112935
3.1137247084620747,17.034950166112935
3.1147214193162562,19.034950166112935
3.1157181301704373,17.034950166112935
3.1167148410246184,16.034950166112935
3.1177115518788,13.034950166112935
3.118708262732981,8.034950166112935
3.119704973587162,2.034950166112935
3.120701684441343,-4.965049833887065
3.1216983952955246,-7.965049833887065
3.1226951061497057,-14.965049833887065
3.1236918170038868,-18.965049833887065
3.1246885278580683,-20.965049833887065
3.1256852387122493,-21.965049833887065
3.1266819495664304,-16.965049833887065
3.1276786604206115,-10.965049833887065
3.128675371274793,-7.965049833887065
3.129672082128974,-1.9650498338870648
3.130668792983155,2.034950166112935
3.1316655038373367,5.034950166112935
3.1326622146915177,12.034950166112935
3.133658925545699,16.034950166112935
3.1346556363998803,17.034950166112935
3.1356523472540614,18.034950166112935
3.1366490581082425,17.034950166112935
3.1376457689624235,13.034950166112935
3.138642479816605,9.034950166112935
3.139639190670786,1.0349501661129352
3.140635901524967,-0.9650498338870648
3.1416326123791487,-6.965049833887065
3.1426293232333298,-13.965049833887065
