Time,EMG
0.0,6.006179401993336
0.000996710854181202,13.006179401993336
0.001993421708362404,15.006179401993336
0.002990132562543606,19.006179401993336
0.003986843416724808,16.006179401993336
0.00498355427090601,13.006179401993336
0.005980265125087212,10.006179401993336
0.006976975979268414,7.006179401993336
0.007973686833449616,1.0061794019933359
0.008970397687630818,-3.993820598006664
0.00996710854181202,-8.993820598006664
0.01096381939599322,-14.993820598006664
0.011960530250174423,-17.993820598006664
0.012957241104355626,-17.993820598006664
0.013953951958536827,-17.993820598006664
0.014950662812718028,-11.993820598006664
0.01594737366689923,-10.993820598006664
0.016944084521080434,-5.993820598006664
0.017940795375261637,2.006179401993336
0.018937506229442836,4.006179401993336
0.01993421708362404,9.006179401993336
0.02093092793780524,15.006179401993336
0.02192763879198644,16.006179401993336
0.022924349646167644,15.006179401993336
0.023921060500348847,16.006179401993336
0.02491777135453005,13.006179401993336
0.025914482208711252,12.006179401993336
0.02691119306289245,6.006179401993336
0.027907903917073654,-0.9938205980066641
0.028904614771254857,-6.993820598006664
0.029901325625436057,-7.993820598006664
0.03089803647961726,-11.993820598006664
0.03189474733379846,-17.993820598006664
0.032891458187979665,-19.993820598006664
0.03388816904216087,-19.993820598006664
0.03488487989634207,-13.993820598006664
0.03588159075052327,-8.993820598006664
0.03687830160470447,-4.993820598006664
0.03787501245888567,2.006179401993336
0.038871723313066875,5.006179401993336
0.03986843416724808,8.006179401993336
0.04086514502142928,14.006179401993336
0.04186185587561048,16.006179401993336
0.042858566729791686,18.006179401993336
0.04385527758397288,17.006179401993336
0.044851988438154085,17.006179401993336
0.04584869929233529,11.006179401993336
0.04684541014651649,6.006179401993336
0.04784212100069769,-1.9938205980066641
0.048838831854878896,-5.993820598006664
0.0498355427090601,-9.993820598006664
0.0508322535632413,-15.993820598006664
0.051828964417422504,-13.993820598006664
0.0528256752716037,-19.993820598006664
0.0538223861257849,-18.993820598006664
0.054819096979966106,-14.993820598006664
0.05581580783414731,-11.993820598006664
0.05681251868832851,-4.993820598006664
0.057809229542509714,1.0061794019933359
0.05880594039669092,3.006179401993336
0.05980265125087211,8.006179401993336
0.060799362105053316,16.006179401993336
0.06179607295923452,16.006179401993336
0.06279278381341573,17.006179401993336
0.06378949466759692,18.006179401993336
0.06478620552177812,16.006179401993336
0.06578291637595933,12.006179401993336
0.06677962723014053,8.006179401993336
0.06777633808432174,2.006179401993336
0.06877304893850293,-2.993820598006664
0.06976975979268414,-6.993820598006664
0.07076647064686534,-15.993820598006664
0.07176318150104655,-17.993820598006664
0.07275989235522774,-20.993820598006664
0.07375660320940894,-18.993820598006664
0.07475331406359015,-12.993820598006664
0.07575002491777134,-9.993820598006664
0.07674673577195255,-5.993820598006664
0.07774344662613375,1.0061794019933359
0.07874015748031496,6.006179401993336
0.07973686833449616,10.006179401993336
0.08073357918867735,14.006179401993336
0.08173029004285856,16.006179401993336
0.08272700089703976,17.006179401993336
0.08372371175122097,16.006179401993336
0.08472042260540216,15.006179401993336
0.08571713345958337,12.006179401993336
0.08671384431376457,6.006179401993336
0.08771055516794576,0.006179401993335887
0.08870726602212697,-5.993820598006664
0.08970397687630817,-9.993820598006664
0.09070068773048938,-17.993820598006664
0.09169739858467058,-17.993820598006664
0.09269410943885178,-19.993820598006664
0.09369082029303298,-18.993820598006664
0.09468753114721419,-13.993820598006664
0.09568424200139539,-11.993820598006664
0.09668095285557658,-7.993820598006664
0.09767766370975779,1.0061794019933359
0.09867437456393899,6.006179401993336
0.0996710854181202,8.006179401993336
0.1006677962723014,15.006179401993336
0.1016645071264826,16.006179401993336
0.1026612179806638,18.006179401993336
0.10365792883484501,17.006179401993336
0.1046546396890262,16.006179401993336
0.1056513505432074,14.006179401993336
0.10664806139738861,10.006179401993336
0.1076447722515698,3.006179401993336
0.10864148310575102,-2.993820598006664
0.10963819395993221,-6.993820598006664
0.11063490481411342,-15.993820598006664
0.11163161566829462,-18.993820598006664
0.11262832652247581,-19.993820598006664
0.11362503737665702,-17.993820598006664
0.11462174823083822,-11.993820598006664
0.11561845908501943,-8.993820598006664
0.11661516993920062,-4.993820598006664
0.11761188079338183,1.0061794019933359
0.11860859164756303,5.006179401993336
0.11960530250174423,7.006179401993336
0.12060201335592544,12.006179401993336
0.12159872421010663,12.006179401993336
0.12259543506428784,17.006179401993336
0.12359214591846904,18.006179401993336
0.12458885677265025,18.006179401993336
0.12558556762683146,12.006179401993336
0.12658227848101264,8.006179401993336
0.12757898933519385,1.0061794019933359
0.12857570018937506,-3.993820598006664
0.12957241104355624,-7.993820598006664
0.13056912189773745,-14.993820598006664
0.13156583275191866,-19.993820598006664
0.13256254360609987,-19.993820598006664
0.13355925446028105,-18.993820598006664
0.13455596531446226,-12.993820598006664
0.13555267616864347,-7.993820598006664
0.13654938702282465,-6.993820598006664
0.13754609787700586,0.006179401993335887
0.13854280873118707,4.006179401993336
0.13953951958536828,6.006179401993336
0.14053623043954946,14.006179401993336
0.14153294129373067,16.006179401993336
0.14252965214791188,18.006179401993336
0.1435263630020931,19.006179401993336
0.14452307385627428,18.006179401993336
0.14551978471045549,12.006179401993336
0.1465164955646367,9.006179401993336
0.14751320641881788,0.006179401993335887
0.1485099172729991,-5.993820598006664
0.1495066281271803,-7.993820598006664
0.1505033389813615,-14.993820598006664
0.1515000498355427,-18.993820598006664
0.1524967606897239,-17.993820598006664
0.1534934715439051,-17.993820598006664
0.1544901823980863,-12.993820598006664
0.1554868932522675,-10.993820598006664
0.1564836041064487,-6.993820598006664
0.15748031496062992,2.006179401993336
0.1584770258148111,3.006179401993336
0.1594737366689923,7.006179401993336
0.16047044752317352,13.006179401993336
0.1614671583773547,17.006179401993336
0.1624638692315359,17.006179401993336
0.16346058008571712,17.006179401993336
0.16445729093989833,15.006179401993336
0.1654540017940795,12.006179401993336
0.16645071264826072,9.006179401993336
0.16744742350244193,3.006179401993336
0.16844413435662312,-2.993820598006664
0.16944084521080433,-9.993820598006664
0.17043755606498553,-15.993820598006664
0.17143426691916674,-17.993820598006664
0.17243097777334793,-19.993820598006664
0.17342768862752914,-17.993820598006664
0.17442439948171035,-12.993820598006664
0.17542111033589153,-9.993820598006664
0.17641782119007274,-3.993820598006664
0.17741453204425395,3.006179401993336
0.17841124289843516,4.006179401993336
0.17940795375261634,8.006179401993336
0.18040466460679755,12.006179401993336
0.18140137546097876,14.006179401993336
0.18239808631515997,17.006179401993336
0.18339479716934115,16.006179401993336
0.18439150802352236,12.006179401993336
0.18538821887770357,10.006179401993336
0.18638492973188475,5.006179401993336
0.18738164058606596,-1.9938205980066641
0.18837835144024717,-2.993820598006664
0.18937506229442838,-7.993820598006664
0.19037177314860956,-15.993820598006664
0.19136848400279077,-15.993820598006664
0.19236519485697198,-16.993820598006664
0.19336190571115316,-17.993820598006664
0.19435861656533437,-10.993820598006664
0.19535532741951558,-5.993820598006664
0.1963520382736968,-5.993820598006664
0.19734874912787798,0.006179401993335887
0.19834545998205919,3.006179401993336
0.1993421708362404,7.006179401993336
0.20033888169042158,12.006179401993336
0.2013355925446028,15.006179401993336
0.202332303398784,16.006179401993336
0.2033290142529652,17.006179401993336
0.2043257251071464,14.006179401993336
0.2053224359613276,12.006179401993336
0.2063191468155088,8.006179401993336
0.20731585766969002,-0.9938205980066641
0.2083125685238712,-4.993820598006664
0.2093092793780524,-8.993820598006664
0.21030599023223362,-13.993820598006664
0.2113027010864148,-17.993820598006664
0.212299411940596,-18.993820598006664
0.21329612279477722,-17.993820598006664
0.21429283364895843,-16.993820598006664
0.2152895445031396,-10.993820598006664
0.21628625535732082,-7.993820598006664
0.21728296621150203,-0.9938205980066641
0.21827967706568321,4.006179401993336
0.21927638791986442,8.006179401993336
0.22027309877404563,14.006179401993336
0.22126980962822684,15.006179401993336
0.22226652048240803,18.006179401993336
0.22326323133658924,14.006179401993336
0.22425994219077044,14.006179401993336
0.22525665304495163,15.006179401993336
0.22625336389913284,8.006179401993336
0.22725007475331405,3.006179401993336
0.22824678560749526,-3.993820598006664
0.22924349646167644,-6.993820598006664
0.23024020731585765,-10.993820598006664
0.23123691817003886,-16.993820598006664
0.23223362902422004,-18.993820598006664
0.23323033987840125,-15.993820598006664
0.23422705073258246,-14.993820598006664
0.23522376158676367,-8.993820598006664
0.23622047244094485,-4.993820598006664
0.23721718329512606,1.0061794019933359
0.23821389414930727,4.006179401993336
0.23921060500348845,6.006179401993336
0.24020731585766966,13.006179401993336
0.24120402671185087,15.006179401993336
0.24220073756603208,18.006179401993336
0.24319744842021326,18.006179401993336
0.24419415927439447,16.006179401993336
0.24519087012857568,12.006179401993336
0.2461875809827569,8.006179401993336
0.24718429183693807,2.006179401993336
0.24818100269111928,-4.993820598006664
0.2491777135453005,-6.993820598006664
0.2501744243994817,-14.993820598006664
0.2511711352536629,-19.993820598006664
0.2521678461078441,-19.993820598006664
0.2531645569620253,-20.993820598006664
0.2541612678162065,-16.993820598006664
0.2551579786703877,-9.993820598006664
0.2561546895245689,-5.993820598006664
0.2571514003787501,0.006179401993335887
0.2581481112329313,5.006179401993336
0.2591448220871125,9.006179401993336
0.2601415329412937,12.006179401993336
0.2611382437954749,14.006179401993336
0.26213495464965614,17.006179401993336
0.2631316655038373,17.006179401993336
0.2641283763580185,15.006179401993336
0.26512508721219974,12.006179401993336
0.2661217980663809,8.006179401993336
0.2671185089205621,4.006179401993336
0.26811521977474334,-4.993820598006664
0.2691119306289245,-7.993820598006664
0.2701086414831057,-14.993820598006664
0.27110535233728694,-15.993820598006664
0.2721020631914681,-19.993820598006664
0.2730987740456493,-17.993820598006664
0.27409548489983054,-12.993820598006664
0.2750921957540117,-8.993820598006664
0.27608890660819296,-3.993820598006664
0.27708561746237415,1.0061794019933359
0.2780823283165553,4.006179401993336
0.27907903917073656,9.006179401993336
0.28007575002491775,13.006179401993336
0.28107246087909893,14.006179401993336
0.28206917173328017,17.006179401993336
0.28306588258746135,19.006179401993336
0.28406259344164253,16.006179401993336
0.28505930429582377,12.006179401993336
0.28605601515000495,9.006179401993336
0.2870527260041862,3.006179401993336
0.28804943685836737,-5.993820598006664
0.28904614771254855,-8.993820598006664
0.2900428585667298,-14.993820598006664
0.29103956942091097,-15.993820598006664
0.29203628027509215,-19.993820598006664
0.2930329911292734,-17.993820598006664
0.29402970198345457,-13.993820598006664
0.29502641283763575,-10.993820598006664
0.296023123691817,-2.993820598006664
0.2970198345459982,-0.9938205980066641
0.29801654540017936,2.006179401993336
0.2990132562543606,7.006179401993336
0.3000099671085418,13.006179401993336
0.301006677962723,15.006179401993336
0.3020033888169042,17.006179401993336
0.3030000996710854,17.006179401993336
0.3039968105252666,15.006179401993336
0.3049935213794478,11.006179401993336
0.305990232233629,5.006179401993336
0.3069869430878102,1.0061794019933359
0.3079836539419914,-1.9938205980066641
0.3089803647961726,-5.993820598006664
0.3099770756503538,-10.993820598006664
0.310973786504535,-14.993820598006664
0.3119704973587162,-18.993820598006664
0.3129672082128974,-17.993820598006664
0.3139639190670786,-15.993820598006664
0.31496062992125984,-12.993820598006664
0.315957340775441,-9.993820598006664
0.3169540516296222,0.006179401993335887
0.31795076248380344,2.006179401993336
0.3189474733379846,9.006179401993336
0.3199441841921658,14.006179401993336
0.32094089504634704,14.006179401993336
0.3219376059005282,17.006179401993336
0.3229343167547094,15.006179401993336
0.32393102760889064,13.006179401993336
0.3249277384630718,12.006179401993336
0.32592444931725306,8.006179401993336
0.32692116017143424,1.0061794019933359
0.3279178710256154,-4.993820598006664
0.32891458187979666,-7.993820598006664
0.32991129273397785,-15.993820598006664
0.330908003588159,-17.993820598006664
0.33190471444234027,-19.993820598006664
0.33290142529652145,-19.993820598006664
0.33389813615070263,-11.993820598006664
0.33489484700488387,-8.993820598006664
0.33589155785906505,-3.993820598006664
0.33688826871324623,1.0061794019933359
0.33788497956742747,5.006179401993336
0.33888169042160865,5.006179401993336
0.3398784012757899,14.006179401993336
0.34087511212997107,15.006179401993336
0.34187182298415225,19.006179401993336
0.3428685338383335,18.006179401993336
0.34386524469251467,16.006179401993336
0.34486195554669585,12.006179401993336
0.3458586664008771,8.006179401993336
0.3468553772550583,1.0061794019933359
0.34785208810923945,-4.993820598006664
0.3488487989634207,-6.993820598006664
0.3498455098176019,-14.993820598006664
0.35084222067178306,-17.993820598006664
0.3518389315259643,-17.993820598006664
0.3528356423801455,-19.993820598006664
0.3538323532343267,-11.993820598006664
0.3548290640885079,-9.993820598006664
0.3558257749426891,-7.993820598006664
0.3568224857968703,-0.9938205980066641
0.3578191966510515,2.006179401993336
0.3588159075052327,6.006179401993336
0.3598126183594139,12.006179401993336
0.3608093292135951,16.006179401993336
0.3618060400677763,17.006179401993336
0.3628027509219575,15.006179401993336
0.3637994617761387,14.006179401993336
0.36479617263031994,10.006179401993336
0.3657928834845011,7.006179401993336
0.3667895943386823,2.006179401993336
0.36778630519286354,-2.993820598006664
0.3687830160470447,-5.993820598006664
0.3697797269012259,-14.993820598006664
0.37077643775540714,-15.993820598006664
0.3717731486095883,-18.993820598006664
0.3727698594637695,-14.993820598006664
0.37376657031795074,-11.993820598006664
0.3747632811721319,-10.993820598006664
0.3757599920263131,-6.993820598006664
0.37675670288049434,-0.9938205980066641
0.3777534137346755,2.006179401993336
0.37875012458885676,6.006179401993336
0.37974683544303794,12.006179401993336
0.3807435462972191,14.006179401993336
0.38174025715140036,17.006179401993336
0.38273696800558155,17.006179401993336
0.38373367885976273,16.006179401993336
0.38473038971394397,12.006179401993336
0.38572710056812515,8.006179401993336
0.38672381142230633,1.0061794019933359
0.38772052227648757,-4.993820598006664
0.38871723313066875,-3.993820598006664
0.38971394398485,-12.993820598006664
0.39071065483903117,-16.993820598006664
0.39170736569321235,-19.993820598006664
0.3927040765473936,-19.993820598006664
0.39370078740157477,-11.993820598006664
0.39469749825575595,-10.993820598006664
0.3956942091099372,-4.993820598006664
0.39669091996411837,1.0061794019933359
0.39768763081829955,5.006179401993336
0.3986843416724808,9.006179401993336
0.399681052526662,14.006179401993336
0.40067776338084315,13.006179401993336
0.4016744742350244,18.006179401993336
0.4026711850892056,19.006179401993336
0.4036678959433868,14.006179401993336
0.404664606797568,13.006179401993336
0.4056613176517492,5.006179401993336
0.4066580285059304,0.006179401993335887
0.4076547393601116,-4.993820598006664
0.4086514502142928,-6.993820598006664
0.409648161068474,-15.993820598006664
0.4106448719226552,-19.993820598006664
0.4116415827768364,-19.993820598006664
0.4126382936310176,-19.993820598006664
0.4136350044851988,-13.993820598006664
0.41463171533938004,-10.993820598006664
0.4156284261935612,-2.993820598006664
0.4166251370477424,1.0061794019933359
0.41762184790192364,6.006179401993336
0.4186185587561048,6.006179401993336
0.419615269610286,16.006179401993336
0.42061198046446724,16.006179401993336
0.4216086913186484,17.006179401993336
0.4226054021728296,17.006179401993336
0.42360211302701084,16.006179401993336
0.424598823881192,14.006179401993336
0.4255955347353732,8.006179401993336
0.42659224558955444,4.006179401993336
0.4275889564437356,-3.993820598006664
0.42858566729791686,-7.993820598006664
0.42958237815209804,-17.993820598006664
0.4305790890062792,-19.993820598006664
0.43157579986046046,-18.993820598006664
0.43257251071464164,-18.993820598006664
0.4335692215688228,-13.993820598006664
0.43456593242300406,-9.993820598006664
0.43556264327718525,-4.993820598006664
0.43655935413136643,2.006179401993336
0.43755606498554767,3.006179401993336
0.43855277583972885,8.006179401993336
0.43954948669391003,13.006179401993336
0.44054619754809127,17.006179401993336
0.44154290840227245,17.006179401993336
0.4425396192564537,17.006179401993336
0.44353633011063487,15.006179401993336
0.44453304096481605,14.006179401993336
0.4455297518189973,9.006179401993336
0.44652646267317847,1.0061794019933359
0.44752317352735965,-6.993820598006664
0.4485198843815409,-8.993820598006664
0.44951659523572207,-15.993820598006664
0.45051330608990325,-18.993820598006664
0.4515100169440845,-19.993820598006664
0.4525067277982657,-17.993820598006664
0.4535034386524469,-11.993820598006664
0.4545001495066281,-11.993820598006664
0.4554968603608093,-6.993820598006664
0.4564935712149905,4.006179401993336
0.4574902820691717,5.006179401993336
0.4584869929233529,9.006179401993336
0.4594837037775341,12.006179401993336
0.4604804146317153,15.006179401993336
0.4614771254858965,16.006179401993336
0.4624738363400777,16.006179401993336
0.4634705471942589,14.006179401993336
0.4644672580484401,14.006179401993336
0.4654639689026213,8.006179401993336
0.4664606797568025,3.006179401993336
0.46745739061098374,-5.993820598006664
0.4684541014651649,-6.993820598006664
0.4694508123193461,-14.993820598006664
0.47044752317352734,-19.993820598006664
0.4714442340277085,-19.993820598006664
0.4724409448818897,-17.993820598006664
0.47343765573607094,-14.993820598006664
0.4744343665902521,-10.993820598006664
0.4754310774444333,-4.993820598006664
0.47642778829861454,0.006179401993335887
0.4774244991527957,3.006179401993336
0.4784212100069769,8.006179401993336
0.47941792086115814,13.006179401993336
0.4804146317153393,19.006179401993336
0.48141134256952056,18.006179401993336
0.48240805342370174,16.006179401993336
0.4834047642778829,12.006179401993336
0.48440147513206416,13.006179401993336
0.48539818598624535,6.006179401993336
0.4863948968404265,1.0061794019933359
0.48739160769460776,-2.993820598006664
0.48838831854878895,-6.993820598006664
0.48938502940297013,-12.993820598006664
0.49038174025715137,-17.993820598006664
0.49137845111133255,-19.993820598006664
0.4923751619655138,-16.993820598006664
0.49337187281969497,-13.993820598006664
0.49436858367387615,-10.993820598006664
0.4953652945280574,-6.993820598006664
0.49636200538223857,2.006179401993336
0.49735871623641975,4.006179401993336
0.498355427090601,9.006179401993336
0.49935213794478217,13.006179401993336
0.5003488487989634,14.006179401993336
0.5013455596531445,17.006179401993336
0.5023422705073258,20.006179401993336
0.503338981361507,15.006179401993336
0.5043356922156882,12.006179401993336
0.5053324030698694,9.006179401993336
0.5063291139240506,3.006179401993336
0.5073258247782317,-3.993820598006664
0.508322535632413,-6.993820598006664
0.5093192464865942,-14.993820598006664
0.5103159573407754,-19.993820598006664
0.5113126681949566,-20.993820598006664
0.5123093790491378,-18.993820598006664
0.513306089903319,-15.993820598006664
0.5143028007575002,-9.993820598006664
0.5152995116116814,-4.993820598006664
0.5162962224658626,0.006179401993335887
0.5172929333200438,4.006179401993336
0.518289644174225,7.006179401993336
0.5192863550284063,8.006179401993336
0.5202830658825874,15.006179401993336
0.5212797767367686,16.006179401993336
0.5222764875909498,17.006179401993336
0.523273198445131,16.006179401993336
0.5242699092993123,10.006179401993336
0.5252666201534935,7.006179401993336
0.5262633310076746,1.0061794019933359
0.5272600418618558,-2.993820598006664
0.528256752716037,-8.993820598006664
0.5292534635702182,-14.993820598006664
0.5302501744243995,-14.993820598006664
0.5312468852785807,-17.993820598006664
0.5322435961327618,-18.993820598006664
0.533240306986943,-11.993820598006664
0.5342370178411242,-10.993820598006664
0.5352337286953054,-6.993820598006664
0.5362304395494867,1.0061794019933359
0.5372271504036679,5.006179401993336
0.538223861257849,6.006179401993336
0.5392205721120302,13.006179401993336
0.5402172829662114,13.006179401993336
0.5412139938203927,17.006179401993336
0.5422107046745739,17.006179401993336
0.5432074155287551,16.006179401993336
0.5442041263829362,13.006179401993336
0.5452008372371174,8.006179401993336
0.5461975480912986,3.006179401993336
0.5471942589454799,-3.993820598006664
0.5481909697996611,-6.993820598006664
0.5491876806538423,-12.993820598006664
0.5501843915080235,-18.993820598006664
0.5511811023622046,-15.993820598006664
0.5521778132163859,-18.993820598006664
0.5531745240705671,-12.993820598006664
0.5541712349247483,-9.993820598006664
0.5551679457789295,-7.993820598006664
0.5561646566331107,3.006179401993336
0.5571613674872918,4.006179401993336
0.5581580783414731,7.006179401993336
0.5591547891956543,12.006179401993336
0.5601515000498355,17.006179401993336
0.5611482109040167,17.006179401993336
0.5621449217581979,19.006179401993336
0.5631416326123792,17.006179401993336
0.5641383434665603,11.006179401993336
0.5651350543207415,8.006179401993336
0.5661317651749227,2.006179401993336
0.5671284760291039,-3.993820598006664
0.5681251868832851,-8.993820598006664
0.5691218977374664,-16.993820598006664
0.5701186085916475,-16.993820598006664
0.5711153194458287,-21.993820598006664
0.5721120303000099,-20.993820598006664
0.5731087411541911,-16.993820598006664
0.5741054520083724,-9.993820598006664
0.5751021628625536,-3.993820598006664
0.5760988737167347,2.006179401993336
0.5770955845709159,3.006179401993336
0.5780922954250971,8.006179401993336
0.5790890062792783,14.006179401993336
0.5800857171334596,15.006179401993336
0.5810824279876408,17.006179401993336
0.5820791388418219,14.006179401993336
0.5830758496960031,16.006179401993336
0.5840725605501843,12.006179401993336
0.5850692714043655,7.006179401993336
0.5860659822585468,1.0061794019933359
0.587062693112728,-2.993820598006664
0.5880594039669091,-6.993820598006664
0.5890561148210903,-13.993820598006664
0.5900528256752715,-17.993820598006664
0.5910495365294528,-17.993820598006664
0.592046247383634,-18.993820598006664
0.5930429582378152,-13.993820598006664
0.5940396690919963,-9.993820598006664
0.5950363799461775,-9.993820598006664
0.5960330908003587,-1.9938205980066641
0.59702980165454,1.0061794019933359
0.5980265125087212,5.006179401993336
0.5990232233629024,14.006179401993336
0.6000199342170836,15.006179401993336
0.6010166450712647,18.006179401993336
0.602013355925446,17.006179401993336
0.6030100667796272,14.006179401993336
0.6040067776338084,13.006179401993336
0.6050034884879896,7.006179401993336
0.6060001993421708,0.006179401993335887
0.6069969101963519,-1.9938205980066641
0.6079936210505332,-5.993820598006664
0.6089903319047144,-10.993820598006664
0.6099870427588956,-17.993820598006664
0.6109837536130768,-20.993820598006664
0.611980464467258,-19.993820598006664
0.6129771753214392,-15.993820598006664
0.6139738861756204,-11.993820598006664
0.6149705970298016,-4.993820598006664
0.6159673078839828,1.0061794019933359
0.616964018738164,3.006179401993336
0.6179607295923452,7.006179401993336
0.6189574404465265,13.006179401993336
0.6199541513007076,14.006179401993336
0.6209508621548888,17.006179401993336
0.62194757300907,16.006179401993336
0.6229442838632512,15.006179401993336
0.6239409947174324,11.006179401993336
0.6249377055716137,9.006179401993336
0.6259344164257948,3.006179401993336
0.626931127279976,-3.993820598006664
0.6279278381341572,-3.993820598006664
0.6289245489883384,-12.993820598006664
0.6299212598425197,-17.993820598006664
0.6309179706967009,-17.993820598006664
0.631914681550882,-18.993820598006664
0.6329113924050632,-15.993820598006664
0.6339081032592444,-9.993820598006664
0.6349048141134256,-5.993820598006664
0.6359015249676069,0.006179401993335887
0.6368982358217881,1.0061794019933359
0.6378949466759692,6.006179401993336
0.6388916575301504,12.006179401993336
0.6398883683843316,17.006179401993336
0.6408850792385129,16.006179401993336
0.6418817900926941,16.006179401993336
0.6428785009468753,16.006179401993336
0.6438752118010564,13.006179401993336
0.6448719226552376,8.006179401993336
0.6458686335094188,1.0061794019933359
0.6468653443636001,-3.993820598006664
0.6478620552177813,-6.993820598006664
0.6488587660719625,-16.993820598006664
0.6498554769261436,-15.993820598006664
0.6508521877803248,-17.993820598006664
0.6518488986345061,-16.993820598006664
0.6528456094886873,-12.993820598006664
0.6538423203428685,-8.993820598006664
0.6548390311970497,-5.993820598006664
0.6558357420512309,2.006179401993336
0.656832452905412,4.006179401993336
0.6578291637595933,9.006179401993336
0.6588258746137745,16.006179401993336
0.6598225854679557,16.006179401993336
0.6608192963221369,15.006179401993336
0.661816007176318,17.006179401993336
0.6628127180304992,15.006179401993336
0.6638094288846805,11.006179401993336
0.6648061397388617,8.006179401993336
0.6658028505930429,2.006179401993336
0.6667995614472241,-1.9938205980066641
0.6677962723014053,-4.993820598006664
0.6687929831555866,-14.993820598006664
0.6697896940097677,-14.993820598006664
0.6707864048639489,-19.993820598006664
0.6717831157181301,-19.993820598006664
0.6727798265723113,-15.993820598006664
0.6737765374264925,-10.993820598006664
0.6747732482806738,-7.993820598006664
0.6757699591348549,-1.9938205980066641
0.6767666699890361,4.006179401993336
0.6777633808432173,9.006179401993336
0.6787600916973985,12.006179401993336
0.6797568025515798,14.006179401993336
0.680753513405761,19.006179401993336
0.6817502242599421,16.006179401993336
0.6827469351141233,15.006179401993336
0.6837436459683045,13.006179401993336
0.6847403568224857,8.006179401993336
0.685737067676667,3.006179401993336
0.6867337785308482,-2.993820598006664
0.6877304893850293,-7.993820598006664
0.6887272002392105,-15.993820598006664
0.6897239110933917,-19.993820598006664
0.690720621947573,-19.993820598006664
0.6917173328017542,-19.993820598006664
0.6927140436559354,-13.993820598006664
0.6937107545101165,-11.993820598006664
0.6947074653642977,-6.993820598006664
0.6957041762184789,0.006179401993335887
0.6967008870726602,4.006179401993336
0.6976975979268414,5.006179401993336
0.6986943087810226,13.006179401993336
0.6996910196352037,16.006179401993336
0.7006877304893849,17.006179401993336
0.7016844413435661,16.006179401993336
0.7026811521977474,14.006179401993336
0.7036778630519286,12.006179401993336
0.7046745739061098,8.006179401993336
0.705671284760291,3.006179401993336
0.7066679956144721,-2.993820598006664
0.7076647064686534,-5.993820598006664
0.7086614173228346,-14.993820598006664
0.7096581281770158,-16.993820598006664
0.710654839031197,-17.993820598006664
0.7116515498853782,-17.993820598006664
0.7126482607395593,-11.993820598006664
0.7136449715937406,-10.993820598006664
0.7146416824479218,-6.993820598006664
0.715638393302103,1.0061794019933359
0.7166351041562842,5.006179401993336
0.7176318150104654,6.006179401993336
0.7186285258646467,13.006179401993336
0.7196252367188278,16.006179401993336
0.720621947573009,17.006179401993336
0.7216186584271902,17.006179401993336
0.7226153692813714,14.006179401993336
0.7236120801355526,11.006179401993336
0.7246087909897339,6.006179401993336
0.725605501843915,4.006179401993336
0.7266022126980962,-2.993820598006664
0.7275989235522774,-5.993820598006664
0.7285956344064586,-13.993820598006664
0.7295923452606399,-15.993820598006664
0.7305890561148211,-19.993820598006664
0.7315857669690022,-17.993820598006664
0.7325824778231834,-12.993820598006664
0.7335791886773646,-10.993820598006664
0.7345758995315458,-6.993820598006664
0.7355726103857271,-2.993820598006664
0.7365693212399083,5.006179401993336
0.7375660320940894,8.006179401993336
0.7385627429482706,12.006179401993336
0.7395594538024518,15.006179401993336
0.7405561646566331,16.006179401993336
0.7415528755108143,18.006179401993336
0.7425495863649955,16.006179401993336
0.7435462972191766,9.006179401993336
0.7445430080733578,10.006179401993336
0.745539718927539,4.006179401993336
0.7465364297817203,-2.993820598006664
0.7475331406359015,-6.993820598006664
0.7485298514900827,-14.993820598006664
0.7495265623442638,-15.993820598006664
0.750523273198445,-19.993820598006664
0.7515199840526262,-19.993820598006664
0.7525166949068075,-15.993820598006664
0.7535134057609887,-11.993820598006664
0.7545101166151699,-6.993820598006664
0.755506827469351,0.006179401993335887
0.7565035383235322,4.006179401993336
0.7575002491777135,5.006179401993336
0.7584969600318947,12.006179401993336
0.7594936708860759,15.006179401993336
0.7604903817402571,16.006179401993336
0.7614870925944383,20.006179401993336
0.7624838034486194,17.006179401993336
0.7634805143028007,12.006179401993336
0.7644772251569819,9.006179401993336
0.7654739360111631,3.006179401993336
0.7664706468653443,-2.993820598006664
0.7674673577195255,-6.993820598006664
0.7684640685737067,-14.993820598006664
0.7694607794278879,-17.993820598006664
0.7704574902820691,-19.993820598006664
0.7714542011362503,-19.993820598006664
0.7724509119904315,-14.993820598006664
0.7734476228446127,-10.993820598006664
0.774444333698794,-8.993820598006664
0.7754410445529751,0.006179401993335887
0.7764377554071563,1.0061794019933359
0.7774344662613375,7.006179401993336
0.7784311771155187,12.006179401993336
0.7794278879697,15.006179401993336
0.7804245988238812,17.006179401993336
0.7814213096780623,16.006179401993336
0.7824180205322435,15.006179401993336
0.7834147313864247,12.006179401993336
0.7844114422406059,7.006179401993336
0.7854081530947872,1.0061794019933359
0.7864048639489684,-2.993820598006664
0.7874015748031495,-7.993820598006664
0.7883982856573307,-14.993820598006664
0.7893949965115119,-18.993820598006664
0.7903917073656931,-19.993820598006664
0.7913884182198744,-15.993820598006664
0.7923851290740556,-15.993820598006664
0.7933818399282367,-11.993820598006664
0.7943785507824179,-5.993820598006664
0.7953752616365991,1.0061794019933359
0.7963719724907804,5.006179401993336
0.7973686833449616,9.006179401993336
0.7983653941991428,15.006179401993336
0.799362105053324,17.006179401993336
0.8003588159075051,19.006179401993336
0.8013555267616863,17.006179401993336
0.8023522376158676,17.006179401993336
0.8033489484700488,15.006179401993336
0.80434565932423,9.006179401993336
0.8053423701784111,4.006179401993336
0.8063390810325923,-2.993820598006664
0.8073357918867736,-5.993820598006664
0.8083325027409548,-14.993820598006664
0.809329213595136,-17.993820598006664
0.8103259244493172,-16.993820598006664
0.8113226353034984,-17.993820598006664
0.8123193461576795,-12.993820598006664
0.8133160570118608,-10.993820598006664
0.814312767866042,-8.993820598006664
0.8153094787202232,0.006179401993335887
0.8163061895744044,4.006179401993336
0.8173029004285856,7.006179401993336
0.8182996112827668,12.006179401993336
0.819296322136948,12.006179401993336
0.8202930329911292,17.006179401993336
0.8212897438453104,17.006179401993336
0.8222864546994916,13.006179401993336
0.8232831655536728,13.006179401993336
0.824279876407854,8.006179401993336
0.8252765872620352,3.006179401993336
0.8262732981162164,-3.993820598006664
0.8272700089703976,-6.993820598006664
0.8282667198245788,-12.993820598006664
0.8292634306787601,-18.993820598006664
0.8302601415329413,-20.993820598006664
0.8312568523871224,-17.993820598006664
0.8322535632413036,-14.993820598006664
0.8332502740954848,-11.993820598006664
0.834246984949666,-5.993820598006664
0.8352436958038473,-1.9938205980066641
0.8362404066580285,4.006179401993336
0.8372371175122096,8.006179401993336
0.8382338283663908,13.006179401993336
0.839230539220572,15.006179401993336
0.8402272500747532,16.006179401993336
0.8412239609289345,15.006179401993336
0.8422206717831157,16.006179401993336
0.8432173826372968,13.006179401993336
0.844214093491478,7.006179401993336
0.8452108043456592,3.006179401993336
0.8462075151998405,-2.993820598006664
0.8472042260540217,-3.993820598006664
0.8482009369082029,-12.993820598006664
0.849197647762384,-15.993820598006664
0.8501943586165652,-17.993820598006664
0.8511910694707464,-17.993820598006664
0.8521877803249277,-13.993820598006664
0.8531844911791089,-10.993820598006664
0.8541812020332901,-4.993820598006664
0.8551779128874712,2.006179401993336
0.8561746237416524,4.006179401993336
0.8571713345958337,7.006179401993336
0.8581680454500149,11.006179401993336
0.8591647563041961,16.006179401993336
0.8601614671583773,16.006179401993336
0.8611581780125585,17.006179401993336
0.8621548888667396,15.006179401993336
0.8631515997209209,9.006179401993336
0.8641483105751021,6.006179401993336
0.8651450214292833,2.006179401993336
0.8661417322834645,-2.993820598006664
0.8671384431376457,-5.993820598006664
0.868135153991827,-13.993820598006664
0.8691318648460081,-14.993820598006664
0.8701285757001893,-17.993820598006664
0.8711252865543705,-17.993820598006664
0.8721219974085517,-14.993820598006664
0.8731187082627329,-11.993820598006664
0.8741154191169141,-5.993820598006664
0.8751121299710953,0.006179401993335887
0.8761088408252765,4.006179401993336
0.8771055516794577,5.006179401993336
0.8781022625336389,10.006179401993336
0.8790989733878201,12.006179401993336
0.8800956842420014,18.006179401993336
0.8810923950961825,18.006179401993336
0.8820891059503637,17.006179401993336
0.8830858168045449,13.006179401993336
0.8840825276587261,9.006179401993336
0.8850792385129074,3.006179401993336
0.8860759493670886,-2.993820598006664
0.8870726602212697,-4.993820598006664
0.8880693710754509,-12.993820598006664
0.8890660819296321,-15.993820598006664
0.8900627927838133,-17.993820598006664
0.8910595036379946,-19.993820598006664
0.8920562144921758,-13.993820598006664
0.8930529253463569,-13.993820598006664
0.8940496362005381,-9.993820598006664
0.8950463470547193,-1.9938205980066641
0.8960430579089006,2.006179401993336
0.8970397687630818,5.006179401993336
0.898036479617263,11.006179401993336
0.8990331904714441,15.006179401993336
0.9000299013256253,16.006179401993336
0.9010266121798065,17.006179401993336
0.9020233230339878,16.006179401993336
0.903020033888169,11.006179401993336
0.9040167447423502,8.006179401993336
0.9050134555965313,3.006179401993336
0.9060101664507125,-6.993820598006664
0.9070068773048938,-5.993820598006664
0.908003588159075,-11.993820598006664
0.9090002990132562,-15.993820598006664
0.9099970098674374,-16.993820598006664
0.9109937207216185,-18.993820598006664
0.9119904315757997,-12.993820598006664
0.912987142429981,-11.993820598006664
0.9139838532841622,-6.993820598006664
0.9149805641383434,3.006179401993336
0.9159772749925246,4.006179401993336
0.9169739858467058,4.006179401993336
0.9179706967008869,13.006179401993336
0.9189674075550682,17.006179401993336
0.9199641184092494,17.006179401993336
0.9209608292634306,19.006179401993336
0.9219575401176118,17.006179401993336
0.922954250971793,12.006179401993336
0.9239509618259742,7.006179401993336
0.9249476726801554,1.0061794019933359
0.9259443835343366,-2.993820598006664
0.9269410943885178,-5.993820598006664
0.927937805242699,-15.993820598006664
0.9289345160968802,-17.993820598006664
0.9299312269510615,-19.993820598006664
0.9309279378052426,-19.993820598006664
0.9319246486594238,-13.993820598006664
0.932921359513605,-10.993820598006664
0.9339180703677862,-5.993820598006664
0.9349147812219675,-1.9938205980066641
0.9359114920761487,4.006179401993336
0.9369082029303298,8.006179401993336
0.937904913784511,13.006179401993336
0.9389016246386922,16.006179401993336
0.9398983354928734,16.006179401993336
0.9408950463470547,14.006179401993336
0.9418917572012359,15.006179401993336
0.942888468055417,14.006179401993336
0.9438851789095982,8.006179401993336
0.9448818897637794,4.006179401993336
0.9458786006179607,-2.993820598006664
0.9468753114721419,-7.993820598006664
0.9478720223263231,-13.993820598006664
0.9488687331805042,-16.993820598006664
0.9498654440346854,-17.993820598006664
0.9508621548888666,-17.993820598006664
0.9518588657430479,-13.993820598006664
0.9528555765972291,-10.993820598006664
0.9538522874514103,-5.993820598006664
0.9548489983055914,2.006179401993336
0.9558457091597726,3.006179401993336
0.9568424200139538,6.006179401993336
0.9578391308681351,12.006179401993336
0.9588358417223163,16.006179401993336
0.9598325525764975,15.006179401993336
0.9608292634306786,20.006179401993336
0.9618259742848598,16.006179401993336
0.9628226851390411,13.006179401993336
0.9638193959932223,10.006179401993336
0.9648161068474035,4.006179401993336
0.9658128177015847,-1.9938205980066641
0.9668095285557659,-6.993820598006664
0.967806239409947,-15.993820598006664
0.9688029502641283,-18.993820598006664
0.9697996611183095,-20.993820598006664
0.9707963719724907,-20.993820598006664
0.9717930828266719,-14.993820598006664
0.972789793680853,-12.993820598006664
0.9737865045350343,-5.993820598006664
0.9747832153892155,-0.9938205980066641
0.9757799262433967,4.006179401993336
0.9767766370975779,6.006179401993336
0.9777733479517591,14.006179401993336
0.9787700588059403,17.006179401993336
0.9797667696601216,17.006179401993336
0.9807634805143027,18.006179401993336
0.9817601913684839,17.006179401993336
0.9827569022226651,12.006179401993336
0.9837536130768463,7.006179401993336
0.9847503239310276,0.006179401993335887
0.9857470347852088,-3.993820598006664
0.9867437456393899,-5.993820598006664
0.9877404564935711,-11.993820598006664
0.9887371673477523,-16.993820598006664
0.9897338782019335,-14.993820598006664
0.9907305890561148,-15.993820598006664
0.991727299910296,-10.993820598006664
0.9927240107644771,-10.993820598006664
0.9937207216186583,-5.993820598006664
0.9947174324728395,-1.9938205980066641
0.9957141433270208,3.006179401993336
0.996710854181202,8.006179401993336
0.9977075650353832,14.006179401993336
0.9987042758895643,15.006179401993336
0.9997009867437455,16.006179401993336
1.0006976975979267,17.006179401993336
1.001694408452108,16.006179401993336
1.002691119306289,17.006179401993336
1.0036878301604704,13.006179401993336
1.0046845410146517,1.0061794019933359
1.0056812518688327,-7.993820598006664
1.006677962723014,-9.993820598006664
1.007674673577195,-13.993820598006664
1.0086713844313764,-20.993820598006664
1.0096680952855577,-22.993820598006664
1.0106648061397387,-23.993820598006664
1.01166151699392,-19.993820598006664
1.0126582278481011,-15.993820598006664
1.0136549387022824,-14.993820598006664
1.0146516495564635,-0.9938205980066641
1.0156483604106448,-1.9938205980066641
1.016645071264826,-3.993820598006664
1.0176417821190071,4.006179401993336
1.0186384929731884,7.006179401993336
1.0196352038273695,12.006179401993336
1.0206319146815508,20.006179401993336
1.021628625535732,31.006179401993336
1.0226253363899132,33.006179401993336
1.0236220472440944,22.006179401993336
1.0246187580982755,18.006179401993336
1.0256154689524568,25.006179401993336
1.026612179806638,11.006179401993336
1.0276088906608192,-11.993820598006664
1.0286056015150005,-18.993820598006664
1.0296023123691815,-8.993820598006664
1.0305990232233628,-4.993820598006664
1.031595734077544,-10.993820598006664
1.0325924449317252,-18.993820598006664
1.0335891557859065,-27.993820598006664
1.0345858666400876,-36.993820598006664
1.0355825774942689,-40.993820598006664
1.03657928834845,-28.993820598006664
1.0375759992026312,-11.993820598006664
1.0385727100568125,3.006179401993336
1.0395694209109936,30.006179401993336
1.0405661317651749,43.006179401993336
1.041562842619356,47.006179401993336
1.0425595534735372,43.006179401993336
1.0435562643277185,12.006179401993336
1.0445529751818996,7.006179401993336
1.045549686036081,12.006179401993336
1.046546396890262,4.006179401993336
1.0475431077444433,-2.993820598006664
1.0485398185986246,-9.993820598006664
1.0495365294528056,-28.993820598006664
1.050533240306987,-59.993820598006664
1.051529951161168,-79.99382059800666
1.0525266620153493,-65.99382059800666
1.0535233728695304,-19.993820598006664
1.0545200837237116,32.006179401993336
1.055516794577893,46.006179401993336
1.056513505432074,32.006179401993336
1.0575102162862553,-4.993820598006664
1.0585069271404364,-28.993820598006664
1.0595036379946177,-5.993820598006664
1.060500348848799,23.006179401993336
1.06149705970298,68.00617940199334
1.0624937705571613,88.00617940199334
1.0634904814113424,64.00617940199334
1.0644871922655237,15.006179401993336
1.065483903119705,20.006179401993336
1.066480613973886,34.006179401993336
1.0674773248280673,15.006179401993336
1.0684740356822484,-42.993820598006664
1.0694707465364297,-75.99382059800666
1.0704674573906108,-80.99382059800666
1.071464168244792,-71.99382059800666
1.0724608790989734,-31.993820598006664
1.0734575899531544,17.006179401993336
1.0744543008073357,30.006179401993336
1.0754510116615168,3.006179401993336
1.076447722515698,-18.993820598006664
1.0774444333698794,25.006179401993336
1.0784411442240605,51.006179401993336
1.0794378550782417,22.006179401993336
1.0804345659324228,7.006179401993336
1.0814312767866041,-17.993820598006664
1.0824279876407854,-26.993820598006664
1.0834246984949665,-11.993820598006664
1.0844214093491478,20.006179401993336
1.0854181202033288,15.006179401993336
1.0864148310575101,5.006179401993336
1.0874115419116914,-8.993820598006664
1.0884082527658725,-31.993820598006664
1.0894049636200538,-60.993820598006664
1.0904016744742349,-67.99382059800666
1.0913983853284162,-38.993820598006664
1.0923950961825972,-8.993820598006664
1.0933918070367785,37.006179401993336
1.0943885178909598,41.006179401993336
1.0953852287451409,25.006179401993336
1.0963819395993222,21.006179401993336
1.0973786504535032,19.006179401993336
1.0983753613076845,3.006179401993336
1.0993720721618658,-9.993820598006664
1.100368783016047,-14.993820598006664
1.1013654938702282,-19.993820598006664
1.1023622047244093,-14.993820598006664
1.1033589155785906,8.006179401993336
1.1043556264327719,78.00617940199334
1.105352337286953,97.00617940199334
1.1063490481411342,20.006179401993336
1.1073457589953153,2.006179401993336
1.1083424698494966,37.006179401993336
1.1093391807036777,39.006179401993336
1.110335891557859,2.006179401993336
1.1113326024120402,-52.993820598006664
1.1123293132662213,-54.993820598006664
1.1133260241204026,-55.993820598006664
1.1143227349745837,-79.99382059800666
1.115319445828765,-87.99382059800666
1.1163161566829463,-65.99382059800666
1.1173128675371273,3.006179401993336
1.1183095783913086,29.006179401993336
1.1193062892454897,1.0061794019933359
1.120303000099671,-30.993820598006664
1.1212997109538523,-12.993820598006664
1.1222964218080334,41.006179401993336
1.1232931326622146,85.00617940199334
1.1242898435163957,125.00617940199334
1.125286554370577,101.00617940199334
1.1262832652247583,35.006179401993336
1.1272799760789394,-25.993820598006664
1.1282766869331207,-21.993820598006664
1.1292733977873017,-3.993820598006664
1.130270108641483,-51.993820598006664
1.131266819495664,-54.993820598006664
1.1322635303498454,-68.99382059800666
1.1332602412040267,-36.993820598006664
1.1342569520582078,11.006179401993336
1.135253662912389,31.006179401993336
1.1362503737665701,6.006179401993336
1.1372470846207514,-23.993820598006664
1.1382437954749327,-7.993820598006664
1.1392405063291138,-7.993820598006664
1.140237217183295,5.006179401993336
1.1412339280374761,8.006179401993336
1.1422306388916574,7.006179401993336
1.1432273497458387,17.006179401993336
1.1442240606000198,-14.993820598006664
1.145220771454201,-13.993820598006664
1.1462174823083822,8.006179401993336
1.1472141931625635,12.006179401993336
1.1482109040167447,56.006179401993336
1.1492076148709258,80.00617940199334
1.1502043257251071,63.006179401993336
1.1512010365792882,54.006179401993336
1.1521977474334695,12.006179401993336
1.1531944582876505,-15.993820598006664
1.1541911691418318,-51.993820598006664
1.1551878799960131,-50.993820598006664
1.1561845908501942,-61.993820598006664
1.1571813017043755,-76.99382059800666
1.1581780125585566,-47.993820598006664
1.1591747234127379,-11.993820598006664
1.1601714342669192,-0.9938205980066641
1.1611681451211002,26.006179401993336
1.1621648559752815,33.006179401993336
1.1631615668294626,20.006179401993336
1.1641582776836439,-20.993820598006664
1.1651549885378252,-32.993820598006664
1.1661516993920062,6.006179401993336
1.1671484102461875,11.006179401993336
1.1681451211003686,-33.993820598006664
1.16914183195455,-24.993820598006664
1.170138542808731,5.006179401993336
1.1711352536629123,24.006179401993336
1.1721319645170936,15.006179401993336
1.1731286753712746,-2.993820598006664
1.174125386225456,1.0061794019933359
1.175122097079637,-20.993820598006664
1.1761188079338183,-4.993820598006664
1.1771155187879996,68.00617940199334
1.1781122296421807,70.00617940199334
1.179108940496362,20.006179401993336
1.180105651350543,32.006179401993336
1.1811023622047243,68.00617940199334
1.1820990730589056,30.006179401993336
1.1830957839130867,-2.993820598006664
1.184092494767268,6.006179401993336
1.185089205621449,-2.993820598006664
1.1860859164756303,-14.993820598006664
1.1870826273298116,-49.993820598006664
1.1880793381839927,-39.993820598006664
1.189076049038174,-36.993820598006664
1.190072759892355,-40.993820598006664
1.1910694707465364,-15.993820598006664
1.1920661816007174,-35.993820598006664
1.1930628924548987,-63.993820598006664
1.19405960330908,-47.993820598006664
1.195056314163261,-3.993820598006664
1.1960530250174424,13.006179401993336
1.1970497358716234,41.006179401993336
1.1980464467258047,112.00617940199334
1.199043157579986,98.00617940199334
1.200039868434167,12.006179401993336
1.2010365792883484,-13.993820598006664
1.2020332901425295,-12.993820598006664
1.2030300009967108,-7.993820598006664
1.204026711850892,34.006179401993336
1.2050234227050731,-5.993820598006664
1.2060201335592544,-39.993820598006664
1.2070168444134355,-66.99382059800666
1.2080135552676168,-29.993820598006664
1.2090102661217978,-24.993820598006664
1.2100069769759791,-43.993820598006664
1.2110036878301604,-50.993820598006664
1.2120003986843415,-17.993820598006664
1.2129971095385228,44.006179401993336
1.2139938203927039,65.00617940199334
1.2149905312468852,78.00617940199334
1.2159872421010665,61.006179401993336
1.2169839529552475,36.006179401993336
1.2179806638094288,17.006179401993336
1.21897737466361,4.006179401993336
1.2199740855177912,-34.993820598006664
1.2209707963719725,-68.99382059800666
1.2219675072261535,-52.993820598006664
1.2229642180803348,-29.993820598006664
1.223960928934516,-4.993820598006664
1.2249576397886972,4.006179401993336
1.2259543506428785,22.006179401993336
1.2269510614970596,51.006179401993336
1.2279477723512409,91.00617940199334
1.228944483205422,50.006179401993336
1.2299411940596032,-7.993820598006664
1.2309379049137843,-23.993820598006664
1.2319346157679656,-66.99382059800666
1.2329313266221469,-67.99382059800666
1.233928037476328,-46.993820598006664
1.2349247483305092,-43.993820598006664
1.2359214591846903,-23.993820598006664
1.2369181700388716,-3.993820598006664
1.237914880893053,37.006179401993336
1.238911591747234,38.006179401993336
1.2399083026014153,27.006179401993336
1.2409050134555963,39.006179401993336
1.2419017243097776,43.006179401993336
1.242898435163959,11.006179401993336
1.24389514601814,-19.993820598006664
1.2448918568723213,13.006179401993336
1.2458885677265024,61.006179401993336
1.2468852785806837,56.006179401993336
1.2478819894348647,18.006179401993336
1.248878700289046,-26.993820598006664
1.2498754111432273,-62.993820598006664
1.2508721219974084,-58.993820598006664
1.2518688328515897,-40.993820598006664
1.2528655437057707,-14.993820598006664
1.253862254559952,7.006179401993336
1.2548589654141333,-2.993820598006664
1.2558556762683144,-8.993820598006664
1.2568523871224957,-6.993820598006664
1.2578490979766768,-7.993820598006664
1.258845808830858,16.006179401993336
1.2598425196850394,21.006179401993336
1.2608392305392204,19.006179401993336
1.2618359413934017,20.006179401993336
1.2628326522475828,12.006179401993336
1.263829363101764,9.006179401993336
1.2648260739559454,-14.993820598006664
1.2658227848101264,-16.993820598006664
1.2668194956643077,-16.993820598006664
1.2678162065184888,-18.993820598006664
1.26881291737267,-26.993820598006664
1.2698096282268512,-27.993820598006664
1.2708063390810325,-23.993820598006664
1.2718030499352138,-7.993820598006664
1.2727997607893948,1.0061794019933359
1.2737964716435761,4.006179401993336
1.2747931824977572,8.006179401993336
1.2757898933519385,13.006179401993336
1.2767866042061198,20.006179401993336
1.2777833150603009,24.006179401993336
1.2787800259144821,24.006179401993336
1.2797767367686632,16.006179401993336
1.2807734476228445,18.006179401993336
1.2817701584770258,9.006179401993336
1.2827668693312069,4.006179401993336
1.2837635801853882,5.006179401993336
1.2847602910395692,-2.993820598006664
1.2857570018937505,-7.993820598006664
1.2867537127479316,-13.993820598006664
1.287750423602113,-15.993820598006664
1.2887471344562942,-18.993820598006664
1.2897438453104753,-17.993820598006664
1.2907405561646565,-14.993820598006664
1.2917372670188376,-10.993820598006664
1.292733977873019,-4.993820598006664
1.2937306887272002,0.006179401993335887
1.2947273995813813,3.006179401993336
1.2957241104355626,5.006179401993336
1.2967208212897436,14.006179401993336
1.297717532143925,16.006179401993336
1.2987142429981062,16.006179401993336
1.2997109538522873,16.006179401993336
1.3007076647064686,20.006179401993336
1.3017043755606497,16.006179401993336
1.302701086414831,8.006179401993336
1.3036977972690122,5.006179401993336
1.3046945081231933,-3.993820598006664
1.3056912189773746,-5.993820598006664
1.3066879298315557,-13.993820598006664
1.307684640685737,-18.993820598006664
1.308681351539918,-20.993820598006664
1.3096780623940993,-17.993820598006664
1.3106747732482806,-12.993820598006664
1.3116714841024617,-9.993820598006664
1.312668194956643,-4.993820598006664
1.313664905810824,0.006179401993335887
1.3146616166650054,4.006179401993336
1.3156583275191867,8.006179401993336
1.3166550383733677,13.006179401993336
1.317651749227549,17.006179401993336
1.31864846008173,16.006179401993336
1.3196451709359114,17.006179401993336
1.3206418817900927,17.006179401993336
1.3216385926442737,13.006179401993336
1.322635303498455,8.006179401993336
1.323632014352636,2.006179401993336
1.3246287252068174,-2.993820598006664
1.3256254360609985,-5.993820598006664
1.3266221469151798,-14.993820598006664
1.327618857769361,-17.993820598006664
1.3286155686235421,-15.993820598006664
1.3296122794777234,-14.993820598006664
1.3306089903319045,-12.993820598006664
1.3316057011860858,-11.993820598006664
1.332602412040267,-8.993820598006664
1.3335991228944482,-1.9938205980066641
1.3345958337486294,1.0061794019933359
1.3355925446028105,5.006179401993336
1.3365892554569918,13.006179401993336
1.337585966311173,14.006179401993336
1.3385826771653542,17.006179401993336
1.3395793880195355,16.006179401993336
1.3405760988737165,14.006179401993336
1.3415728097278978,9.006179401993336
1.3425695205820791,5.006179401993336
1.3435662314362602,3.006179401993336
1.3445629422904415,-2.993820598006664
1.3455596531446226,-7.993820598006664
1.3465563639988039,-12.993820598006664
1.347553074852985,-15.993820598006664
1.3485497857071662,-17.993820598006664
1.3495464965613475,-19.993820598006664
1.3505432074155286,-12.993820598006664
1.3515399182697099,-10.993820598006664
1.352536629123891,-8.993820598006664
1.3535333399780722,0.006179401993335887
1.3545300508322535,5.006179401993336
1.3555267616864346,9.006179401993336
1.356523472540616,11.006179401993336
1.357520183394797,13.006179401993336
1.3585168942489783,13.006179401993336
1.3595136051031596,16.006179401993336
1.3605103159573406,20.006179401993336
1.361507026811522,14.006179401993336
1.362503737665703,11.006179401993336
1.3635004485198843,3.006179401993336
1.3644971593740653,-3.993820598006664
1.3654938702282466,-7.993820598006664
1.366490581082428,-15.993820598006664
1.367487291936609,-17.993820598006664
1.3684840027907903,-19.993820598006664
1.3694807136449714,-19.993820598006664
1.3704774244991527,-17.993820598006664
1.371474135353334,-20.993820598006664
1.372470846207515,-10.993820598006664
1.3734675570616963,-2.993820598006664
1.3744642679158774,20.006179401993336
1.3754609787700587,19.006179401993336
1.37645768962424,13.006179401993336
1.377454400478421,9.006179401993336
1.3784511113326023,25.006179401993336
1.3794478221867834,25.006179401993336
1.3804445330409647,23.006179401993336
1.381441243895146,18.006179401993336
1.382437954749327,12.006179401993336
1.3834346656035084,-3.993820598006664
1.3844313764576894,-7.993820598006664
1.3854280873118707,-11.993820598006664
1.3864247981660518,-19.993820598006664
1.387421509020233,-20.993820598006664
1.3884182198744144,-18.993820598006664
1.3894149307285955,-19.993820598006664
1.3904116415827767,-16.993820598006664
1.3914083524369578,-12.993820598006664
1.3924050632911391,-9.993820598006664
1.3934017741453204,-4.993820598006664
1.3943984849995015,-0.9938205980066641
1.3953951958536828,7.006179401993336
1.3963919067078638,13.006179401993336
1.3973886175620451,12.006179401993336
1.3983853284162264,5.006179401993336
1.3993820392704075,0.006179401993335887
1.4003787501245888,-1.9938205980066641
1.4013754609787699,2.006179401993336
1.4023721718329512,30.006179401993336
1.4033688826871322,42.006179401993336
1.4043655935413135,25.006179401993336
1.4053623043954948,9.006179401993336
1.4063590152496759,-3.993820598006664
1.4073557261038572,-17.993820598006664
1.4083524369580382,-26.993820598006664
1.4093491478122195,-20.993820598006664
1.4103458586664008,-16.993820598006664
1.411342569520582,-19.993820598006664
1.4123392803747632,-10.993820598006664
1.4133359912289443,-5.993820598006664
1.4143327020831256,-4.993820598006664
1.4153294129373069,-0.9938205980066641
1.416326123791488,1.0061794019933359
1.4173228346456692,4.006179401993336
1.4183195454998503,2.006179401993336
1.4193162563540316,1.0061794019933359
1.4203129672082129,14.006179401993336
1.421309678062394,16.006179401993336
1.4223063889165752,19.006179401993336
1.4233030997707563,27.006179401993336
1.4242998106249376,18.006179401993336
1.4252965214791187,-3.993820598006664
1.4262932323333,-3.993820598006664
1.4272899431874813,-20.993820598006664
1.4282866540416623,-14.993820598006664
1.4292833648958436,-14.993820598006664
1.4302800757500247,-22.993820598006664
1.431276786604206,-28.993820598006664
1.4322734974583873,-18.993820598006664
1.4332702083125684,-2.993820598006664
1.4342669191667496,5.006179401993336
1.4352636300209307,13.006179401993336
1.436260340875112,12.006179401993336
1.4372570517292933,10.006179401993336
1.4382537625834744,14.006179401993336
1.4392504734376557,13.006179401993336
1.4402471842918367,14.006179401993336
1.441243895146018,12.006179401993336
1.4422406060001993,7.006179401993336
1.4432373168543804,0.006179401993335887
1.4442340277085617,0.006179401993335887
1.4452307385627428,-0.9938205980066641
1.446227449416924,-9.993820598006664
1.4472241602711051,-10.993820598006664
1.4482208711252864,-17.993820598006664
1.4492175819794677,-14.993820598006664
1.4502142928336488,-12.993820598006664
1.45121100368783,-13.993820598006664
1.4522077145420111,-9.993820598006664
1.4532044253961924,-1.9938205980066641
1.4542011362503737,4.006179401993336
1.4551978471045548,8.006179401993336
1.456194557958736,12.006179401993336
1.4571912688129172,16.006179401993336
1.4581879796670985,17.006179401993336
1.4591846905212797,18.006179401993336
1.4601814013754608,18.006179401993336
1.4611781122296421,13.006179401993336
1.4621748230838232,7.006179401993336
1.4631715339380045,6.006179401993336
1.4641682447921855,-3.993820598006664
1.4651649556463668,-3.993820598006664
1.4661616665005481,-17.993820598006664
1.4671583773547292,-20.993820598006664
1.4681550882089105,-12.993820598006664
1.4691517990630916,-7.993820598006664
1.4701485099172729,-14.993820598006664
1.4711452207714542,-6.993820598006664
1.4721419316256352,-2.993820598006664
1.4731386424798165,-1.9938205980066641
1.4741353533339976,0.006179401993335887
1.4751320641881789,5.006179401993336
1.4761287750423602,8.006179401993336
1.4771254858965412,10.006179401993336
1.4781221967507225,17.006179401993336
1.4791189076049036,17.006179401993336
1.480115618459085,15.006179401993336
1.4811123293132662,12.006179401993336
1.4821090401674473,8.006179401993336
1.4831057510216286,2.006179401993336
1.4841024618758096,-1.9938205980066641
1.485099172729991,-5.993820598006664
1.486095883584172,-15.993820598006664
1.4870925944383533,-18.993820598006664
1.4880893052925346,-18.993820598006664
1.4890860161467157,-20.993820598006664
1.490082727000897,-15.993820598006664
1.491079437855078,-9.993820598006664
1.4920761487092593,-7.993820598006664
1.4930728595634406,8.006179401993336
1.4940695704176217,7.006179401993336
1.495066281271803,8.006179401993336
1.496062992125984,14.006179401993336
1.4970597029801653,13.006179401993336
1.4980564138343466,17.006179401993336
1.4990531246885277,14.006179401993336
1.500049835542709,17.006179401993336
1.50104654639689,13.006179401993336
1.5020432572510714,10.006179401993336
1.5030399681052524,1.0061794019933359
1.5040366789594337,-4.993820598006664
1.505033389813615,-6.993820598006664
1.506030100667796,-17.993820598006664
1.5070268115219774,-22.993820598006664
1.5080235223761584,-17.993820598006664
1.5090202332303397,-10.993820598006664
1.510016944084521,-10.993820598006664
1.511013654938702,1.0061794019933359
1.5120103657928834,3.006179401993336
1.5130070766470645,-3.993820598006664
1.5140037875012458,-3.993820598006664
1.515000498355427,0.006179401993335887
1.5159972092096081,8.006179401993336
1.5169939200637894,12.006179401993336
1.5179906309179705,7.006179401993336
1.5189873417721518,7.006179401993336
1.519984052626333,8.006179401993336
1.5209807634805141,4.006179401993336
1.5219774743346954,11.006179401993336
1.5229741851888765,15.006179401993336
1.5239708960430578,30.006179401993336
1.5249676068972389,37.006179401993336
1.5259643177514202,-0.9938205980066641
1.5269610286056015,-34.993820598006664
1.5279577394597825,-27.993820598006664
1.5289544503139638,-20.993820598006664
1.529951161168145,-18.993820598006664
1.5309478720223262,-15.993820598006664
1.5319445828765075,-4.993820598006664
1.5329412937306885,3.006179401993336
1.5339380045848698,5.006179401993336
1.534934715439051,4.006179401993336
1.5359314262932322,6.006179401993336
1.5369281371474135,12.006179401993336
1.5379248480015946,16.006179401993336
1.5389215588557759,16.006179401993336
1.539918269709957,18.006179401993336
1.5409149805641382,16.006179401993336
1.5419116914183193,9.006179401993336
1.5429084022725006,4.006179401993336
1.5439051131266819,0.006179401993335887
1.544901823980863,-6.993820598006664
1.5458985348350442,-14.993820598006664
1.5468952456892253,-19.993820598006664
1.5478919565434066,-16.993820598006664
1.548888667397588,-15.993820598006664
1.549885378251769,-12.993820598006664
1.5508820891059503,-9.993820598006664
1.5518787999601313,-2.993820598006664
1.5528755108143126,0.006179401993335887
1.553872221668494,4.006179401993336
1.554868932522675,8.006179401993336
1.5558656433768563,13.006179401993336
1.5568623542310374,16.006179401993336
1.5578590650852187,18.006179401993336
1.5588557759394,17.006179401993336
1.559852486793581,16.006179401993336
1.5608491976477623,12.006179401993336
1.5618459085019434,12.006179401993336
1.5628426193561247,6.006179401993336
1.5638393302103057,1.0061794019933359
1.564836041064487,-3.993820598006664
1.5658327519186683,-14.993820598006664
1.5668294627728494,-19.993820598006664
1.5678261736270307,-17.993820598006664
1.5688228844812118,-19.993820598006664
1.569819595335393,-14.993820598006664
1.5708163061895744,-9.993820598006664
1.5718130170437554,-6.993820598006664
1.5728097278979367,1.0061794019933359
1.5738064387521178,3.006179401993336
1.574803149606299,9.006179401993336
1.5757998604604804,12.006179401993336
1.5767965713146614,13.006179401993336
1.5777932821688427,12.006179401993336
1.5787899930230238,13.006179401993336
1.579786703877205,7.006179401993336
1.5807834147313862,9.006179401993336
1.5817801255855675,15.006179401993336
1.5827768364397488,17.006179401993336
1.5837735472939298,16.006179401993336
1.5847702581481111,2.006179401993336
1.5857669690022922,-14.993820598006664
1.5867636798564735,-19.993820598006664
1.5877603907106548,-23.993820598006664
1.5887571015648358,-26.993820598006664
1.5897538124190171,-19.993820598006664
1.5907505232731982,-13.993820598006664
1.5917472341273795,-8.993820598006664
1.5927439449815608,-2.993820598006664
1.5937406558357419,2.006179401993336
1.5947373666899232,5.006179401993336
1.5957340775441042,8.006179401993336
1.5967307883982855,12.006179401993336
1.5977274992524668,14.006179401993336
1.598724210106648,14.006179401993336
1.5997209209608292,14.006179401993336
1.6007176318150103,13.006179401993336
1.6017143426691915,9.006179401993336
1.6027110535233726,2.006179401993336
1.603707764377554,-0.9938205980066641
1.6047044752317352,-3.993820598006664
1.6057011860859163,-9.993820598006664
1.6066978969400976,-17.993820598006664
1.6076946077942786,-17.993820598006664
1.60869131864846,-19.993820598006664
1.6096880295026412,-17.993820598006664
1.6106847403568223,-12.993820598006664
1.6116814512110036,-9.993820598006664
1.6126781620651847,-1.9938205980066641
1.613674872919366,0.006179401993335887
1.6146715837735472,5.006179401993336
1.6156682946277283,14.006179401993336
1.6166650054819096,15.006179401993336
1.6176617163360907,17.006179401993336
1.618658427190272,17.006179401993336
1.619655138044453,16.006179401993336
1.6206518488986343,13.006179401993336
1.6216485597528156,8.006179401993336
1.6226452706069967,4.006179401993336
1.623641981461178,-2.993820598006664
1.624638692315359,-7.993820598006664
1.6256354031695404,-17.993820598006664
1.6266321140237217,-26.993820598006664
1.6276288248779027,-19.993820598006664
1.628625535732084,-18.993820598006664
1.629622246586265,-12.993820598006664
1.6306189574404464,-2.993820598006664
1.6316156682946277,9.006179401993336
1.6326123791488087,12.006179401993336
1.63360909000299,1.0061794019933359
1.634605800857171,1.0061794019933359
1.6356025117113524,4.006179401993336
1.6365992225655337,11.006179401993336
1.6375959334197148,15.006179401993336
1.638592644273896,15.006179401993336
1.6395893551280771,17.006179401993336
1.6405860659822584,13.006179401993336
1.6415827768364395,9.006179401993336
1.6425794876906208,3.006179401993336
1.643576198544802,-1.9938205980066641
1.6445729093989832,-6.993820598006664
1.6455696202531644,-15.993820598006664
1.6465663311073455,-19.993820598006664
1.6475630419615268,-19.993820598006664
1.648559752815708,-20.993820598006664
1.6495564636698892,-15.993820598006664
1.6505531745240705,-13.993820598006664
1.6515498853782515,-9.993820598006664
1.6525465962324328,-2.993820598006664
1.6535433070866141,1.0061794019933359
1.6545400179407952,8.006179401993336
1.6555367287949765,13.006179401993336
1.6565334396491576,14.006179401993336
1.6575301505033389,19.006179401993336
1.6585268613575201,17.006179401993336
1.6595235722117012,17.006179401993336
1.6605202830658825,14.006179401993336
1.6615169939200636,9.006179401993336
1.6625137047742449,3.006179401993336
1.663510415628426,-4.993820598006664
1.6645071264826072,-5.993820598006664
1.6655038373367885,-12.993820598006664
1.6665005481909696,-17.993820598006664
1.667497259045151,-21.993820598006664
1.668493969899332,-22.993820598006664
1.6694906807535133,-14.993820598006664
1.6704873916076945,-11.993820598006664
1.6714841024618756,-7.993820598006664
1.672480813316057,-2.993820598006664
1.673477524170238,-1.9938205980066641
1.6744742350244193,5.006179401993336
1.6754709458786006,12.006179401993336
1.6764676567327816,15.006179401993336
1.677464367586963,16.006179401993336
1.678461078441144,17.006179401993336
1.6794577892953253,22.006179401993336
1.6804545001495064,22.006179401993336
1.6814512110036877,12.006179401993336
1.682447921857869,4.006179401993336
1.68344463271205,-1.9938205980066641
1.6844413435662313,-5.993820598006664
1.6854380544204124,-15.993820598006664
1.6864347652745937,-17.993820598006664
1.687431476128775,-21.993820598006664
1.688428186982956,-20.993820598006664
1.6894248978371373,-14.993820598006664
1.6904216086913184,-10.993820598006664
1.6914183195454997,-7.993820598006664
1.692415030399681,-0.9938205980066641
1.693411741253862,4.006179401993336
1.6944084521080434,10.006179401993336
1.6954051629622244,12.006179401993336
1.6964018738164057,12.006179401993336
1.697398584670587,15.006179401993336
1.698395295524768,16.006179401993336
1.6993920063789494,17.006179401993336
1.7003887172331305,14.006179401993336
1.7013854280873117,11.006179401993336
1.7023821389414928,6.006179401993336
1.703378849795674,-2.993820598006664
1.7043755606498554,-6.993820598006664
1.7053722715040365,-12.993820598006664
1.7063689823582178,-19.993820598006664
1.7073656932123988,-19.993820598006664
1.7083624040665801,-19.993820598006664
1.7093591149207614,-15.993820598006664
1.7103558257749425,-8.993820598006664
1.7113525366291238,-3.993820598006664
1.7123492474833049,-2.993820598006664
1.7133459583374862,2.006179401993336
1.7143426691916674,6.006179401993336
1.7153393800458485,8.006179401993336
1.7163360909000298,14.006179401993336
1.7173328017542109,16.006179401993336
1.7183295126083922,14.006179401993336
1.7193262234625732,13.006179401993336
1.7203229343167545,12.006179401993336
1.7213196451709358,8.006179401993336
1.722316356025117,3.006179401993336
1.7233130668792982,-5.993820598006664
1.7243097777334793,-5.993820598006664
1.7253064885876606,-10.993820598006664
1.7263031994418419,-19.993820598006664
1.727299910296023,-21.993820598006664
1.7282966211502042,-19.993820598006664
1.7292933320043853,-15.993820598006664
1.7302900428585666,-10.993820598006664
1.7312867537127479,-7.993820598006664
1.732283464566929,-0.9938205980066641
1.7332801754211102,5.006179401993336
1.7342768862752913,8.006179401993336
1.7352735971294726,13.006179401993336
1.736270307983654,17.006179401993336
1.737267018837835,18.006179401993336
1.7382637296920163,17.006179401993336
1.7392604405461973,17.006179401993336
1.7402571514003786,12.006179401993336
1.7412538622545597,10.006179401993336
1.742250573108741,3.006179401993336
1.7432472839629223,-1.9938205980066641
1.7442439948171033,-4.993820598006664
1.7452407056712846,-12.993820598006664
1.7462374165254657,-15.993820598006664
1.747234127379647,-18.993820598006664
1.7482308382338283,-19.993820598006664
1.7492275490880094,-17.993820598006664
1.7502242599421907,-12.993820598006664
1.7512209707963717,-4.993820598006664
1.752217681650553,-1.9938205980066641
1.7532143925047343,6.006179401993336
1.7542111033589154,8.006179401993336
1.7552078142130967,13.006179401993336
1.7562045250672778,13.006179401993336
1.757201235921459,18.006179401993336
1.7581979467756401,18.006179401993336
1.7591946576298214,17.006179401993336
1.7601913684840027,12.006179401993336
1.7611880793381838,9.006179401993336
1.762184790192365,4.006179401993336
1.7631815010465461,-1.9938205980066641
1.7641782119007274,-4.993820598006664
1.7651749227549087,-11.993820598006664
1.7661716336090898,-17.993820598006664
1.767168344463271,-22.993820598006664
1.7681650553174522,-21.993820598006664
1.7691617661716335,-16.993820598006664
1.7701584770258147,-11.993820598006664
1.7711551878799958,-9.993820598006664
1.7721518987341771,-1.9938205980066641
1.7731486095883582,4.006179401993336
1.7741453204425395,7.006179401993336
1.7751420312967208,12.006179401993336
1.7761387421509018,16.006179401993336
1.7771354530050831,16.006179401993336
1.7781321638592642,17.006179401993336
1.7791288747134455,17.006179401993336
1.7801255855676266,12.006179401993336
1.7811222964218079,6.006179401993336
1.7821190072759892,3.006179401993336
1.7831157181301702,-4.993820598006664
1.7841124289843515,-6.993820598006664
1.7851091398385326,-14.993820598006664
1.7861058506927139,-16.993820598006664
1.7871025615468952,-18.993820598006664
1.7880992724010762,-15.993820598006664
1.7890959832552575,-16.993820598006664
1.7900926941094386,-12.993820598006664
1.79108940496362,-6.993820598006664
1.7920861158178012,-1.9938205980066641
1.7930828266719823,5.006179401993336
1.7940795375261636,7.006179401993336
1.7950762483803446,12.006179401993336
1.796072959234526,17.006179401993336
1.797069670088707,17.006179401993336
1.7980663809428883,17.006179401993336
1.7990630917970696,18.006179401993336
1.8000598026512507,14.006179401993336
1.801056513505432,9.006179401993336
1.802053224359613,4.006179401993336
1.8030499352137943,-1.9938205980066641
1.8040466460679756,-8.993820598006664
1.8050433569221567,-11.993820598006664
1.806040067776338,-17.993820598006664
1.807036778630519,-19.993820598006664
1.8080334894847003,-15.993820598006664
1.8090302003388816,-14.993820598006664
1.8100269111930627,-11.993820598006664
1.811023622047244,-9.993820598006664
1.812020332901425,-1.9938205980066641
1.8130170437556064,2.006179401993336
1.8140137546097876,4.006179401993336
1.8150104654639687,12.006179401993336
1.81600717631815,12.006179401993336
1.817003887172331,16.006179401993336
1.8180005980265124,16.006179401993336
1.8189973088806934,16.006179401993336
1.8199940197348747,15.006179401993336
1.820990730589056,9.006179401993336
1.821987441443237,4.006179401993336
1.8229841522974184,-2.993820598006664
1.8239808631515995,-7.993820598006664
1.8249775740057808,-14.993820598006664
1.825974284859962,-14.993820598006664
1.8269709957141431,-18.993820598006664
1.8279677065683244,-17.993820598006664
1.8289644174225055,-12.993820598006664
1.8299611282766868,-10.993820598006664
1.830957839130868,-6.993820598006664
1.8319545499850491,-1.9938205980066641
1.8329512608392304,5.006179401993336
1.8339479716934115,6.006179401993336
1.8349446825475928,9.006179401993336
1.8359413934017739,13.006179401993336
1.8369381042559552,17.006179401993336
1.8379348151101365,19.006179401993336
1.8389315259643175,19.006179401993336
1.8399282368184988,14.006179401993336
1.84092494767268,7.006179401993336
1.8419216585268612,2.006179401993336
1.8429183693810425,-0.9938205980066641
1.8439150802352235,-4.993820598006664
1.8449117910894048,-12.993820598006664
1.845908501943586,-14.993820598006664
1.8469052127977672,-18.993820598006664
1.8479019236519485,-19.993820598006664
1.8488986345061296,-15.993820598006664
1.8498953453603109,-11.993820598006664
1.850892056214492,-9.993820598006664
1.8518887670686732,0.006179401993335887
1.8528854779228545,1.0061794019933359
1.8538821887770356,3.006179401993336
1.8548788996312169,11.006179401993336
1.855875610485398,14.006179401993336
1.8568723213395792,18.006179401993336
1.8578690321937603,18.006179401993336
1.8588657430479416,19.006179401993336
1.859862453902123,14.006179401993336
1.860859164756304,11.006179401993336
1.8618558756104853,4.006179401993336
1.8628525864646663,-3.993820598006664
1.8638492973188476,-6.993820598006664
1.864846008173029,-14.993820598006664
1.86584271902721,-17.993820598006664
1.8668394298813913,-17.993820598006664
1.8678361407355724,-22.993820598006664
1.8688328515897537,-15.993820598006664
1.869829562443935,-11.993820598006664
1.870826273298116,-8.993820598006664
1.8718229841522973,-2.993820598006664
1.8728196950064784,2.006179401993336
1.8738164058606597,4.006179401993336
1.8748131167148407,11.006179401993336
1.875809827569022,12.006179401993336
1.8768065384232033,19.006179401993336
1.8778032492773844,18.006179401993336
1.8787999601315657,16.006179401993336
1.8797966709857468,13.006179401993336
1.880793381839928,8.006179401993336
1.8817900926941094,4.006179401993336
1.8827868035482904,-2.993820598006664
1.8837835144024717,-4.993820598006664
1.8847802252566528,-12.993820598006664
1.885776936110834,-16.993820598006664
1.8867736469650154,-18.993820598006664
1.8877703578191964,-20.993820598006664
1.8887670686733777,-15.993820598006664
1.8897637795275588,-12.993820598006664
1.89076049038174,-7.993820598006664
1.8917572012359214,-2.993820598006664
1.8927539120901025,3.006179401993336
1.8937506229442838,8.006179401993336
1.8947473337984648,13.006179401993336
1.8957440446526461,16.006179401993336
1.8967407555068272,16.006179401993336
1.8977374663610085,17.006179401993336
1.8987341772151898,15.006179401993336
1.8997308880693708,17.006179401993336
1.9007275989235521,8.006179401993336
1.9017243097777332,5.006179401993336
1.9027210206319145,-1.9938205980066641
1.9037177314860958,-6.993820598006664
1.9047144423402769,-11.993820598006664
1.9057111531944582,-17.993820598006664
1.9067078640486392,-17.993820598006664
1.9077045749028205,-17.993820598006664
1.9087012857570018,-15.993820598006664
1.909697996611183,-12.993820598006664
1.9106947074653642,-6.993820598006664
1.9116914183195453,-1.9938205980066641
1.9126881291737265,2.006179401993336
1.9136848400279076,7.006179401993336
1.914681550882089,11.006179401993336
1.9156782617362702,14.006179401993336
1.9166749725904513,16.006179401993336
1.9176716834446326,16.006179401993336
1.9186683942988136,16.006179401993336
1.919665105152995,15.006179401993336
1.9206618160071762,9.006179401993336
1.9216585268613573,3.006179401993336
1.9226552377155386,-2.993820598006664
1.9236519485697197,-6.993820598006664
1.924648659423901,-12.993820598006664
1.9256453702780822,-16.993820598006664
1.9266420811322633,-19.993820598006664
1.9276387919864446,-19.993820598006664
1.9286355028406257,-13.993820598006664
1.929632213694807,-11.993820598006664
1.9306289245489883,-7.993820598006664
1.9316256354031693,-2.993820598006664
1.9326223462573506,4.006179401993336
1.9336190571115317,7.006179401993336
1.934615767965713,12.006179401993336
1.935612478819894,14.006179401993336
1.9366091896740754,17.006179401993336
1.9376059005282567,19.006179401993336
1.9386026113824377,19.006179401993336
1.939599322236619,16.006179401993336
1.9405960330908,10.006179401993336
1.9415927439449814,4.006179401993336
1.9425894547991627,-2.993820598006664
1.9435861656533437,-3.993820598006664
1.944582876507525,-12.993820598006664
1.945579587361706,-14.993820598006664
1.9465762982158874,-15.993820598006664
1.9475730090700687,-19.993820598006664
1.9485697199242498,-13.993820598006664
1.949566430778431,-9.993820598006664
1.9505631416326121,-5.993820598006664
1.9515598524867934,-1.9938205980066641
1.9525565633409747,4.006179401993336
1.9535532741951558,9.006179401993336
1.954549985049337,12.006179401993336
1.9555466959035182,16.006179401993336
1.9565434067576994,14.006179401993336
1.9575401176118805,16.006179401993336
1.9585368284660618,17.006179401993336
1.959533539320243,14.006179401993336
1.9605302501744242,12.006179401993336
1.9615269610286055,6.006179401993336
1.9625236718827865,-2.993820598006664
1.9635203827369678,-6.993820598006664
1.9645170935911491,-12.993820598006664
1.9655138044453302,-18.993820598006664
1.9665105152995115,-19.993820598006664
1.9675072261536926,-21.993820598006664
1.9685039370078738,-15.993820598006664
1.9695006478620551,-10.993820598006664
1.9704973587162362,-7.993820598006664
1.9714940695704175,-1.9938205980066641
1.9724907804245986,2.006179401993336
1.9734874912787799,4.006179401993336
1.974484202132961,10.006179401993336
1.9754809129871422,16.006179401993336
1.9764776238413235,14.006179401993336
1.9774743346955046,16.006179401993336
1.978471045549686,16.006179401993336
1.979467756403867,13.006179401993336
1.9804644672580483,12.006179401993336
1.9814611781122295,5.006179401993336
1.9824578889664106,-1.9938205980066641
1.983454599820592,-4.993820598006664
1.984451310674773,-11.993820598006664
1.9854480215289543,-16.993820598006664
1.9864447323831356,-19.993820598006664
1.9874414432373166,-19.993820598006664
1.988438154091498,-17.993820598006664
1.989434864945679,-14.993820598006664
1.9904315757998603,-7.993820598006664
1.9914282866540416,-1.9938205980066641
1.9924249975082227,2.006179401993336
1.993421708362404,4.006179401993336
1.994418419216585,12.006179401993336
1.9954151300707663,16.006179401993336
1.9964118409249474,16.006179401993336
1.9974085517791287,18.006179401993336
1.99840526263331,17.006179401993336
1.999401973487491,15.006179401993336
2.0003986843416723,10.006179401993336
2.0013953951958534,3.006179401993336
2.0023921060500345,-1.9938205980066641
2.003388816904216,-5.993820598006664
2.004385527758397,-12.993820598006664
2.005382238612578,-16.993820598006664
2.0063789494667597,-19.993820598006664
2.0073756603209407,-18.993820598006664
2.008372371175122,-17.993820598006664
2.0093690820293033,-12.993820598006664
2.0103657928834844,-4.993820598006664
2.0113625037376655,-2.993820598006664
2.0123592145918465,1.0061794019933359
2.013355925446028,6.006179401993336
2.014352636300209,13.006179401993336
2.01534934715439,15.006179401993336
2.0163460580085717,19.006179401993336
2.0173427688627528,16.006179401993336
2.018339479716934,17.006179401993336
2.0193361905711154,12.006179401993336
2.0203329014252964,10.006179401993336
2.0213296122794775,4.006179401993336
2.0223263231336586,-2.993820598006664
2.02332303398784,-4.993820598006664
2.024319744842021,-10.993820598006664
2.0253164556962022,-17.993820598006664
2.0263131665503837,-14.993820598006664
2.027309877404565,-18.993820598006664
2.028306588258746,-15.993820598006664
2.029303299112927,-10.993820598006664
2.0303000099671085,-7.993820598006664
2.0312967208212895,-1.9938205980066641
2.0322934316754706,2.006179401993336
2.033290142529652,8.006179401993336
2.034286853383833,13.006179401993336
2.0352835642380143,13.006179401993336
2.036280275092196,19.006179401993336
2.037276985946377,17.006179401993336
2.038273696800558,18.006179401993336
2.039270407654739,12.006179401993336
2.0402671185089205,12.006179401993336
2.0412638293631016,5.006179401993336
2.0422605402172826,-0.9938205980066641
2.043257251071464,-3.993820598006664
2.0442539619256452,-12.993820598006664
2.0452506727798263,-15.993820598006664
2.0462473836340074,-19.993820598006664
2.047244094488189,-18.993820598006664
2.04824080534237,-14.993820598006664
2.049237516196551,-8.993820598006664
2.0502342270507325,-4.993820598006664
2.0512309379049136,-1.9938205980066641
2.0522276487590947,5.006179401993336
2.053224359613276,7.006179401993336
2.0542210704674573,11.006179401993336
2.0552177813216383,14.006179401993336
2.0562144921758194,16.006179401993336
2.057211203030001,17.006179401993336
2.058207913884182,14.006179401993336
2.059204624738363,13.006179401993336
2.0602013355925446,11.006179401993336
2.0611980464467257,6.006179401993336
2.0621947573009067,-2.993820598006664
2.063191468155088,-4.993820598006664
2.0641881790092693,-10.993820598006664
2.0651848898634504,-17.993820598006664
2.0661816007176315,-19.993820598006664
2.067178311571813,-18.993820598006664
2.068175022425994,-16.993820598006664
2.069171733280175,-11.993820598006664
2.0701684441343566,-6.993820598006664
2.0711651549885377,-2.993820598006664
2.0721618658427188,1.0061794019933359
2.0731585766969,4.006179401993336
2.0741552875510814,7.006179401993336
2.0751519984052624,12.006179401993336
2.0761487092594435,15.006179401993336
2.077145420113625,16.006179401993336
2.078142130967806,16.006179401993336
2.079138841821987,13.006179401993336
2.0801355526761687,9.006179401993336
2.0811322635303497,2.006179401993336
2.082128974384531,-2.993820598006664
2.083125685238712,-5.993820598006664
2.0841223960928934,-12.993820598006664
2.0851191069470745,-17.993820598006664
2.0861158178012555,-15.993820598006664
2.087112528655437,-18.993820598006664
2.088109239509618,-14.993820598006664
2.089105950363799,-10.993820598006664
2.0901026612179803,-10.993820598006664
2.091099372072162,0.006179401993335887
2.092096082926343,6.006179401993336
2.093092793780524,8.006179401993336
2.0940895046347054,9.006179401993336
2.0950862154888865,15.006179401993336
2.0960829263430676,16.006179401993336
2.097079637197249,16.006179401993336
2.09807634805143,17.006179401993336
2.0990730589056112,13.006179401993336
2.1000697697597923,8.006179401993336
2.101066480613974,4.006179401993336
2.102063191468155,-2.993820598006664
2.103059902322336,-5.993820598006664
2.1040566131765175,-10.993820598006664
2.1050533240306986,-14.993820598006664
2.1060500348848796,-14.993820598006664
2.1070467457390607,-16.993820598006664
2.108043456593242,-15.993820598006664
2.1090401674474233,-12.993820598006664
2.1100368783016044,-7.993820598006664
2.111033589155786,-1.9938205980066641
2.112030300009967,3.006179401993336
2.113027010864148,6.006179401993336
2.1140237217183295,10.006179401993336
2.1150204325725106,14.006179401993336
2.1160171434266917,14.006179401993336
2.1170138542808727,17.006179401993336
2.1180105651350543,15.006179401993336
2.1190072759892353,13.006179401993336
2.1200039868434164,8.006179401993336
2.121000697697598,5.006179401993336
2.121997408551779,-2.993820598006664
2.12299411940596,-2.993820598006664
2.123990830260141,-11.993820598006664
2.1249875411143226,-17.993820598006664
2.1259842519685037,-19.993820598006664
2.126980962822685,-17.993820598006664
2.1279776736768663,-12.993820598006664
2.1289743845310474,-11.993820598006664
2.1299710953852284,-7.993820598006664
2.13096780623941,-2.993820598006664
2.131964517093591,2.006179401993336
2.132961227947772,6.006179401993336
2.133957938801953,11.006179401993336
2.1349546496561347,13.006179401993336
2.1359513605103158,17.006179401993336
2.136948071364497,15.006179401993336
2.1379447822186783,17.006179401993336
2.1389414930728594,12.006179401993336
2.1399382039270405,9.006179401993336
2.1409349147812216,5.006179401993336
2.141931625635403,-3.993820598006664
2.142928336489584,-3.993820598006664
2.143925047343765,-13.993820598006664
2.1449217581979467,-17.993820598006664
2.145918469052128,-17.993820598006664
2.146915179906309,-18.993820598006664
2.1479118907604904,-16.993820598006664
2.1489086016146715,-10.993820598006664
2.1499053124688525,-6.993820598006664
2.1509020233230336,1.0061794019933359
2.151898734177215,3.006179401993336
2.152895445031396,5.006179401993336
2.1538921558855773,9.006179401993336
2.1548888667397588,14.006179401993336
2.15588557759394,15.006179401993336
2.156882288448121,14.006179401993336
2.1578789993023024,15.006179401993336
2.1588757101564835,15.006179401993336
2.1598724210106646,10.006179401993336
2.1608691318648456,6.006179401993336
2.161865842719027,-1.9938205980066641
2.1628625535732082,-4.993820598006664
2.1638592644273893,-11.993820598006664
2.164855975281571,-14.993820598006664
2.165852686135752,-17.993820598006664
2.166849396989933,-18.993820598006664
2.167846107844114,-13.993820598006664
2.1688428186982955,-11.993820598006664
2.1698395295524766,-6.993820598006664
2.1708362404066577,0.006179401993335887
2.171832951260839,2.006179401993336
2.1728296621150203,5.006179401993336
2.1738263729692013,11.006179401993336
2.174823083823383,14.006179401993336
2.175819794677564,17.006179401993336
2.176816505531745,14.006179401993336
2.177813216385926,19.006179401993336
2.1788099272401076,15.006179401993336
2.1798066380942887,9.006179401993336
2.1808033489484697,4.006179401993336
2.1818000598026512,-2.993820598006664
2.1827967706568323,-5.993820598006664
2.1837934815110134,-13.993820598006664
2.1847901923651945,-15.993820598006664
2.185786903219376,-18.993820598006664
2.186783614073557,-18.993820598006664
2.187780324927738,-15.993820598006664
2.1887770357819196,-10.993820598006664
2.1897737466361007,-6.993820598006664
2.1907704574902818,-2.993820598006664
2.1917671683444633,3.006179401993336
2.1927638791986444,6.006179401993336
2.1937605900528254,11.006179401993336
2.1947573009070065,11.006179401993336
2.195754011761188,15.006179401993336
2.196750722615369,17.006179401993336
2.19774743346955,18.006179401993336
2.1987441443237317,15.006179401993336
2.1997408551779127,9.006179401993336
2.200737566032094,6.006179401993336
2.201734276886275,-3.993820598006664
2.2027309877404564,-6.993820598006664
2.2037276985946375,-11.993820598006664
2.2047244094488185,-14.993820598006664
2.205721120303,-17.993820598006664
2.206717831157181,-19.993820598006664
2.207714542011362,-14.993820598006664
2.2087112528655437,-7.993820598006664
2.2097079637197248,-7.993820598006664
2.210704674573906,-0.9938205980066641
2.211701385428087,4.006179401993336
2.2126980962822684,7.006179401993336
2.2136948071364495,11.006179401993336
2.2146915179906306,15.006179401993336
2.215688228844812,18.006179401993336
2.216684939698993,14.006179401993336
2.2176816505531742,16.006179401993336
2.2186783614073553,13.006179401993336
2.219675072261537,12.006179401993336
2.220671783115718,4.006179401993336
2.221668493969899,-2.993820598006664
2.2226652048240805,-2.993820598006664
2.2236619156782615,-10.993820598006664
2.2246586265324426,-17.993820598006664
2.225655337386624,-15.993820598006664
2.226652048240805,-19.993820598006664
2.2276487590949863,-16.993820598006664
2.2286454699491673,-13.993820598006664
2.229642180803349,-9.993820598006664
2.23063889165753,-2.993820598006664
2.231635602511711,3.006179401993336
2.2326323133658925,5.006179401993336
2.2336290242200736,8.006179401993336
2.2346257350742547,11.006179401993336
2.235622445928436,15.006179401993336
2.2366191567826172,16.006179401993336
2.2376158676367983,17.006179401993336
2.2386125784909794,13.006179401993336
2.239609289345161,10.006179401993336
2.240606000199342,6.006179401993336
2.241602711053523,-0.9938205980066641
2.2425994219077046,-5.993820598006664
2.2435961327618856,-9.993820598006664
2.2445928436160667,-15.993820598006664
2.2455895544702478,-19.993820598006664
2.2465862653244293,-19.993820598006664
2.2475829761786104,-14.993820598006664
2.2485796870327914,-10.993820598006664
2.249576397886973,-7.993820598006664
2.250573108741154,-2.993820598006664
2.251569819595335,2.006179401993336
2.2525665304495166,8.006179401993336
2.2535632413036977,11.006179401993336
2.2545599521578787,14.006179401993336
2.25555666301206,16.006179401993336
2.2565533738662413,19.006179401993336
2.2575500847204224,16.006179401993336
2.2585467955746035,14.006179401993336
2.259543506428785,11.006179401993336
2.260540217282966,2.006179401993336
2.261536928137147,-1.9938205980066641
2.262533638991328,-3.993820598006664
2.2635303498455097,-11.993820598006664
2.264527060699691,-14.993820598006664
2.265523771553872,-16.993820598006664
2.2665204824080534,-19.993820598006664
2.2675171932622344,-16.993820598006664
2.2685139041164155,-12.993820598006664
2.269510614970597,-10.993820598006664
2.270507325824778,-4.993820598006664
2.271504036678959,-1.9938205980066641
2.2725007475331402,6.006179401993336
2.2734974583873218,9.006179401993336
2.274494169241503,12.006179401993336
2.275490880095684,17.006179401993336
2.2764875909498654,17.006179401993336
2.2774843018040465,16.006179401993336
2.2784810126582276,17.006179401993336
2.2794777235124086,10.006179401993336
2.28047443436659,5.006179401993336
2.281471145220771,-2.993820598006664
2.2824678560749523,-4.993820598006664
2.283464566929134,-9.993820598006664
2.284461277783315,-16.993820598006664
2.285457988637496,-19.993820598006664
2.2864546994916775,-18.993820598006664
2.2874514103458585,-14.993820598006664
2.2884481212000396,-10.993820598006664
2.2894448320542207,-7.993820598006664
2.290441542908402,-2.993820598006664
2.2914382537625833,3.006179401993336
2.2924349646167643,5.006179401993336
2.293431675470946,12.006179401993336
2.294428386325127,16.006179401993336
2.295425097179308,16.006179401993336
2.2964218080334895,18.006179401993336
2.2974185188876706,17.006179401993336
2.2984152297418516,14.006179401993336
2.2994119405960327,10.006179401993336
2.3004086514502142,4.006179401993336
2.3014053623043953,-1.9938205980066641
2.3024020731585764,-5.993820598006664
2.303398784012758,-10.993820598006664
2.304395494866939,-14.993820598006664
2.30539220572112,-15.993820598006664
2.306388916575301,-19.993820598006664
2.3073856274294826,-15.993820598006664
2.3083823382836637,-10.993820598006664
2.3093790491378448,-7.993820598006664
2.3103757599920263,-1.9938205980066641
2.3113724708462073,3.006179401993336
2.3123691817003884,6.006179401993336
2.31336589255457,12.006179401993336
2.314362603408751,15.006179401993336
2.315359314262932,15.006179401993336
2.316356025117113,15.006179401993336
2.3173527359712947,16.006179401993336
2.3183494468254757,11.006179401993336
2.319346157679657,11.006179401993336
2.3203428685338383,6.006179401993336
2.3213395793880194,-1.9938205980066641
2.3223362902422005,-4.993820598006664
2.3233330010963815,-10.993820598006664
2.324329711950563,-14.993820598006664
2.325326422804744,-16.993820598006664
2.326323133658925,-20.993820598006664
2.3273198445131067,-14.993820598006664
2.3283165553672878,-11.993820598006664
2.329313266221469,-7.993820598006664
2.3303099770756504,-2.993820598006664
2.3313066879298314,0.006179401993335887
2.3323033987840125,6.006179401993336
2.3333001096381936,8.006179401993336
2.334296820492375,12.006179401993336
2.335293531346556,14.006179401993336
2.336290242200737,14.006179401993336
2.3372869530549187,17.006179401993336
2.3382836639091,14.006179401993336
2.339280374763281,11.006179401993336
2.340277085617462,5.006179401993336
2.3412737964716435,0.006179401993335887
2.3422705073258245,-6.993820598006664
2.3432672181800056,-9.993820598006664
2.344263929034187,-17.993820598006664
2.345260639888368,-18.993820598006664
2.3462573507425493,-20.993820598006664
2.347254061596731,-14.993820598006664
2.348250772450912,-11.993820598006664
2.349247483305093,-8.993820598006664
2.350244194159274,1.0061794019933359
2.3512409050134555,5.006179401993336
2.3522376158676366,8.006179401993336
2.3532343267218176,13.006179401993336
2.354231037575999,16.006179401993336
2.3552277484301802,16.006179401993336
2.3562244592843613,17.006179401993336
2.3572211701385424,16.006179401993336
2.358217880992724,10.006179401993336
2.359214591846905,10.006179401993336
2.360211302701086,4.006179401993336
2.3612080135552675,-1.9938205980066641
2.3622047244094486,-3.993820598006664
2.3632014352636297,-11.993820598006664
2.364198146117811,-16.993820598006664
2.3651948569719923,-17.993820598006664
2.3661915678261733,-18.993820598006664
2.3671882786803544,-15.993820598006664
2.368184989534536,-11.993820598006664
2.369181700388717,-8.993820598006664
2.370178411242898,-0.9938205980066641
2.3711751220970796,2.006179401993336
2.3721718329512607,8.006179401993336
2.3731685438054417,10.006179401993336
2.3741652546596232,14.006179401993336
2.3751619655138043,15.006179401993336
2.3761586763679854,16.006179401993336
2.3771553872221665,17.006179401993336
2.378152098076348,13.006179401993336
2.379148808930529,9.006179401993336
2.38014551978471,5.006179401993336
2.3811422306388916,-3.993820598006664
2.3821389414930727,-7.993820598006664
2.3831356523472538,-12.993820598006664
2.384132363201435,-14.993820598006664
2.3851290740556164,-17.993820598006664
2.3861257849097974,-19.993820598006664
2.3871224957639785,-15.993820598006664
2.38811920661816,-10.993820598006664
2.389115917472341,-7.993820598006664
2.390112628326522,-4.993820598006664
2.3911093391807037,4.006179401993336
2.3921060500348847,5.006179401993336
2.393102760889066,10.006179401993336
2.394099471743247,14.006179401993336
2.3950961825974284,14.006179401993336
2.3960928934516095,16.006179401993336
2.3970896043057905,19.006179401993336
2.398086315159972,14.006179401993336
2.399083026014153,10.006179401993336
2.400079736868334,4.006179401993336
2.4010764477225153,-1.9938205980066641
2.402073158576697,-3.993820598006664
2.403069869430878,-12.993820598006664
2.404066580285059,-14.993820598006664
2.4050632911392404,-18.993820598006664
2.4060600019934215,-19.993820598006664
2.4070567128476026,-15.993820598006664
2.408053423701784,-11.993820598006664
2.409050134555965,-7.993820598006664
2.4100468454101462,-2.993820598006664
2.4110435562643273,3.006179401993336
2.412040267118509,6.006179401993336
2.41303697797269,13.006179401993336
2.414033688826871,15.006179401993336
2.4150303996810525,17.006179401993336
2.4160271105352336,17.006179401993336
2.4170238213894146,17.006179401993336
2.4180205322435957,12.006179401993336
2.419017243097777,11.006179401993336
2.4200139539519583,5.006179401993336
2.4210106648061394,-1.9938205980066641
2.422007375660321,-2.993820598006664
2.423004086514502,-10.993820598006664
2.424000797368683,-17.993820598006664
2.4249975082228645,-22.993820598006664
2.4259942190770456,-19.993820598006664
2.4269909299312267,-16.993820598006664
2.4279876407854077,-10.993820598006664
2.4289843516395893,-9.993820598006664
2.4299810624937703,-3.993820598006664
2.4309777733479514,4.006179401993336
2.431974484202133,7.006179401993336
2.432971195056314,11.006179401993336
2.433967905910495,17.006179401993336
2.434964616764676,18.006179401993336
2.4359613276188576,17.006179401993336
2.4369580384730387,19.006179401993336
2.43795474932722,14.006179401993336
2.4389514601814013,12.006179401993336
2.4399481710355824,6.006179401993336
2.4409448818897634,-1.9938205980066641
2.441941592743945,-2.993820598006664
2.442938303598126,-9.993820598006664
2.443935014452307,-15.993820598006664
2.444931725306488,-17.993820598006664
2.4459284361606697,-18.993820598006664
2.4469251470148508,-15.993820598006664
2.447921857869032,-12.993820598006664
2.4489185687232133,-9.993820598006664
2.4499152795773944,-5.993820598006664
2.4509119904315755,2.006179401993336
2.451908701285757,5.006179401993336
2.452905412139938,11.006179401993336
2.453902122994119,14.006179401993336
2.4548988338483,15.006179401993336
2.4558955447024817,17.006179401993336
2.456892255556663,13.006179401993336
2.457888966410844,14.006179401993336
2.4588856772650254,10.006179401993336
2.4598823881192065,4.006179401993336
2.4608790989733875,-1.9938205980066641
2.4618758098275686,-5.993820598006664
2.46287252068175,-10.993820598006664
2.463869231535931,-15.993820598006664
2.4648659423901123,-19.993820598006664
2.4658626532442938,-17.993820598006664
2.466859364098475,-16.993820598006664
2.467856074952656,-12.993820598006664
2.4688527858068374,-7.993820598006664
2.4698494966610185,-2.993820598006664
2.4708462075151996,3.006179401993336
2.4718429183693806,4.006179401993336
2.472839629223562,9.006179401993336
2.4738363400777432,15.006179401993336
2.4748330509319243,19.006179401993336
2.475829761786106,17.006179401993336
2.476826472640287,17.006179401993336
2.477823183494468,12.006179401993336
2.478819894348649,9.006179401993336
2.4798166052028305,5.006179401993336
2.4808133160570116,-1.9938205980066641
2.4818100269111927,-4.993820598006664
2.482806737765374,-10.993820598006664
2.4838034486195553,-17.993820598006664
2.4848001594737363,-16.993820598006664
2.485796870327918,-19.993820598006664
2.486793581182099,-15.993820598006664
2.48779029203628,-13.993820598006664
2.488787002890461,-10.993820598006664
2.4897837137446426,-4.993820598006664
2.4907804245988237,2.006179401993336
2.4917771354530047,5.006179401993336
2.4927738463071862,12.006179401993336
2.4937705571613673,14.006179401993336
2.4947672680155484,17.006179401993336
2.4957639788697294,17.006179401993336
2.496760689723911,19.006179401993336
2.497757400578092,13.006179401993336
2.498754111432273,12.006179401993336
2.4997508222864546,6.006179401993336
2.5007475331406357,0.006179401993335887
2.5017442439948168,-4.993820598006664
2.5027409548489983,-10.993820598006664
2.5037376657031793,-17.993820598006664
2.5047343765573604,-19.993820598006664
2.5057310874115415,-18.993820598006664
2.506727798265723,-15.993820598006664
2.507724509119904,-12.993820598006664
2.508721219974085,-6.993820598006664
2.5097179308282667,-1.9938205980066641
2.5107146416824477,5.006179401993336
2.511711352536629,7.006179401993336
2.51270806339081,11.006179401993336
2.5137047742449914,14.006179401993336
2.5147014850991725,17.006179401993336
2.5156981959533535,17.006179401993336
2.516694906807535,15.006179401993336
2.517691617661716,13.006179401993336
2.518688328515897,9.006179401993336
2.5196850393700787,6.006179401993336
2.5206817502242598,1.0061794019933359
2.521678461078441,-3.993820598006664
2.522675171932622,-10.993820598006664
2.5236718827868034,-16.993820598006664
2.5246685936409845,-18.993820598006664
2.5256653044951656,-20.993820598006664
2.526662015349347,-16.993820598006664
2.527658726203528,-13.993820598006664
2.5286554370577092,-8.993820598006664
2.5296521479118907,-2.993820598006664
2.530648858766072,3.006179401993336
2.531645569620253,4.006179401993336
2.532642280474434,11.006179401993336
2.5336389913286155,13.006179401993336
2.5346357021827965,17.006179401993336
2.5356324130369776,17.006179401993336
2.536629123891159,16.006179401993336
2.53762583474534,13.006179401993336
2.5386225455995213,10.006179401993336
2.5396192564537023,8.006179401993336
2.540615967307884,-2.993820598006664
2.541612678162065,-5.993820598006664
2.542609389016246,-9.993820598006664
2.5436060998704275,-14.993820598006664
2.5446028107246086,-19.993820598006664
2.5455995215787897,-19.993820598006664
2.546596232432971,-16.993820598006664
2.5475929432871522,-11.993820598006664
2.5485896541413333,-10.993820598006664
2.5495863649955144,-5.993820598006664
2.550583075849696,1.0061794019933359
2.551579786703877,6.006179401993336
2.552576497558058,10.006179401993336
2.5535732084122396,13.006179401993336
2.5545699192664206,18.006179401993336
2.5555666301206017,17.006179401993336
2.5565633409747828,18.006179401993336
2.5575600518289643,12.006179401993336
2.5585567626831454,10.006179401993336
2.5595534735373264,4.006179401993336
2.560550184391508,-2.993820598006664
2.561546895245689,-3.993820598006664
2.56254360609987,-11.993820598006664
2.5635403169540516,-16.993820598006664
2.5645370278082327,-14.993820598006664
2.5655337386624137,-18.993820598006664
2.566530449516595,-15.993820598006664
2.5675271603707763,-12.993820598006664
2.5685238712249574,-7.993820598006664
2.5695205820791385,-3.993820598006664
2.57051729293332,2.006179401993336
2.571514003787501,6.006179401993336
2.572510714641682,10.006179401993336
2.573507425495863,14.006179401993336
2.5745041363500447,16.006179401993336
2.575500847204226,17.006179401993336
2.576497558058407,17.006179401993336
2.5774942689125884,15.006179401993336
2.5784909797667694,12.006179401993336
2.5794876906209505,6.006179401993336
2.580484401475132,-0.9938205980066641
2.581481112329313,-5.993820598006664
2.582477823183494,-10.993820598006664
2.5834745340376752,-15.993820598006664
2.5844712448918568,-17.993820598006664
2.585467955746038,-19.993820598006664
2.586464666600219,-12.993820598006664
2.5874613774544004,-9.993820598006664
2.5884580883085815,-7.993820598006664
2.5894547991627626,-1.9938205980066641
2.590451510016944,1.0061794019933359
2.591448220871125,2.006179401993336
2.592444931725306,12.006179401993336
2.5934416425794873,13.006179401993336
2.594438353433669,17.006179401993336
2.59543506428785,17.006179401993336
2.596431775142031,17.006179401993336
2.5974284859962125,13.006179401993336
2.5984251968503935,11.006179401993336
2.5994219077045746,4.006179401993336
2.6004186185587557,-1.9938205980066641
2.601415329412937,-4.993820598006664
2.6024120402671183,-12.993820598006664
2.6034087511212993,-15.993820598006664
2.604405461975481,-17.993820598006664
2.605402172829662,-16.993820598006664
2.606398883683843,-13.993820598006664
2.6073955945380245,-12.993820598006664
2.6083923053922056,-7.993820598006664
2.6093890162463866,-1.9938205980066641
2.6103857271005677,4.006179401993336
2.6113824379547492,8.006179401993336
2.6123791488089303,10.006179401993336
2.6133758596631114,14.006179401993336
2.614372570517293,17.006179401993336
2.615369281371474,14.006179401993336
2.616365992225655,15.006179401993336
2.617362703079836,11.006179401993336
2.6183594139340176,8.006179401993336
2.6193561247881987,4.006179401993336
2.6203528356423798,-0.9938205980066641
2.6213495464965613,-4.993820598006664
2.6223462573507423,-11.993820598006664
2.6233429682049234,-16.993820598006664
2.624339679059105,-18.993820598006664
2.625336389913286,-20.993820598006664
2.626333100767467,-17.993820598006664
2.627329811621648,-13.993820598006664
2.6283265224758297,-4.993820598006664
2.6293232333300107,-2.993820598006664
2.630319944184192,3.006179401993336
2.6313166550383733,4.006179401993336
2.6323133658925544,6.006179401993336
2.6333100767467355,9.006179401993336
2.6343067876009165,14.006179401993336
2.635303498455098,16.006179401993336
2.636300209309279,17.006179401993336
2.63729692016346,13.006179401993336
2.6382936310176417,12.006179401993336
2.6392903418718228,7.006179401993336
2.640287052726004,0.006179401993335887
2.6412837635801854,-1.9938205980066641
2.6422804744343664,-11.993820598006664
2.6432771852885475,-17.993820598006664
2.6442738961427286,-16.993820598006664
2.64527060699691,-17.993820598006664
2.646267317851091,-14.993820598006664
2.647264028705272,-9.993820598006664
2.6482607395594537,-8.993820598006664
2.649257450413635,-1.9938205980066641
2.650254161267816,1.0061794019933359
2.651250872121997,4.006179401993336
2.6522475829761785,11.006179401993336
2.6532442938303595,16.006179401993336
2.6542410046845406,17.006179401993336
2.655237715538722,13.006179401993336
2.656234426392903,15.006179401993336
2.6572311372470843,14.006179401993336
2.6582278481012658,9.006179401993336
2.659224558955447,3.006179401993336
2.660221269809628,-0.9938205980066641
2.661217980663809,-4.993820598006664
2.6622146915179905,-9.993820598006664
2.6632114023721716,-16.993820598006664
2.6642081132263526,-17.993820598006664
2.665204824080534,-18.993820598006664
2.6662015349347152,-14.993820598006664
2.6671982457888963,-12.993820598006664
2.668194956643078,-7.993820598006664
2.669191667497259,0.006179401993335887
2.67018837835144,3.006179401993336
2.671185089205621,6.006179401993336
2.6721818000598025,11.006179401993336
2.6731785109139836,13.006179401993336
2.6741752217681647,17.006179401993336
2.675171932622346,17.006179401993336
2.6761686434765273,18.006179401993336
2.6771653543307083,14.006179401993336
2.6781620651848894,12.006179401993336
2.679158776039071,4.006179401993336
2.680155486893252,-2.993820598006664
2.681152197747433,-5.993820598006664
2.6821489086016146,-8.993820598006664
2.6831456194557957,-17.993820598006664
2.6841423303099767,-17.993820598006664
2.6851390411641582,-19.993820598006664
2.6861357520183393,-14.993820598006664
2.6871324628725204,-9.993820598006664
2.6881291737267015,-7.993820598006664
2.689125884580883,-2.993820598006664
2.690122595435064,4.006179401993336
2.691119306289245,5.006179401993336
2.6921160171434266,8.006179401993336
2.6931127279976077,12.006179401993336
2.6941094388517888,12.006179401993336
2.69510614970597,14.006179401993336
2.6961028605601514,16.006179401993336
2.6970995714143324,13.006179401993336
2.6980962822685135,12.006179401993336
2.699092993122695,6.006179401993336
2.700089703976876,-0.9938205980066641
2.701086414831057,-3.993820598006664
2.7020831256852387,-10.993820598006664
2.7030798365394197,-15.993820598006664
2.704076547393601,-18.993820598006664
2.705073258247782,-17.993820598006664
2.7060699691019634,-16.993820598006664
2.7070666799561445,-12.993820598006664
2.7080633908103255,-7.993820598006664
2.709060101664507,-2.993820598006664
2.710056812518688,4.006179401993336
2.711053523372869,7.006179401993336
2.7120502342270503,10.006179401993336
2.713046945081232,15.006179401993336
2.714043655935413,18.006179401993336
2.715040366789594,17.006179401993336
2.7160370776437754,20.006179401993336
2.7170337884979565,16.006179401993336
2.7180304993521376,11.006179401993336
2.719027210206319,5.006179401993336
2.7200239210605,-2.993820598006664
2.7210206319146812,-7.993820598006664
2.7220173427688623,-12.993820598006664
2.723014053623044,-14.993820598006664
2.724010764477225,-17.993820598006664
2.725007475331406,-17.993820598006664
2.7260041861855875,-15.993820598006664
2.7270008970397686,-11.993820598006664
2.7279976078939496,-8.993820598006664
2.7289943187481307,-2.993820598006664
2.729991029602312,0.006179401993335887
2.7309877404564933,5.006179401993336
2.7319844513106744,7.006179401993336
2.732981162164856,12.006179401993336
2.733977873019037,16.006179401993336
2.734974583873218,16.006179401993336
2.7359712947273995,20.006179401993336
2.7369680055815806,14.006179401993336
2.7379647164357617,12.006179401993336
2.7389614272899427,5.006179401993336
2.7399581381441243,-2.993820598006664
2.7409548489983053,-5.993820598006664
2.7419515598524864,-12.993820598006664
2.742948270706668,-15.993820598006664
2.743944981560849,-18.993820598006664
2.74494169241503,-19.993820598006664
2.7459384032692116,-14.993820598006664
2.7469351141233926,-12.993820598006664
2.7479318249775737,-9.993820598006664
2.748928535831755,-1.9938205980066641
2.7499252466859363,2.006179401993336
2.7509219575401174,7.006179401993336
2.7519186683942984,12.006179401993336
2.75291537924848,15.006179401993336
2.753912090102661,18.006179401993336
2.754908800956842,18.006179401993336
2.755905511811023,17.006179401993336
2.7569022226652047,14.006179401993336
2.7578989335193858,13.006179401993336
2.758895644373567,6.006179401993336
2.7598923552277483,-1.9938205980066641
2.7608890660819294,-2.993820598006664
2.7618857769361105,-9.993820598006664
2.762882487790292,-13.993820598006664
2.763879198644473,-18.993820598006664
2.764875909498654,-18.993820598006664
2.765872620352835,-15.993820598006664
2.7668693312070167,-11.993820598006664
2.767866042061198,-9.993820598006664
2.768862752915379,-1.9938205980066641
2.7698594637695604,3.006179401993336
2.7708561746237415,5.006179401993336
2.7718528854779225,7.006179401993336
2.7728495963321036,12.006179401993336
2.773846307186285,14.006179401993336
2.774843018040466,15.006179401993336
2.7758397288946473,16.006179401993336
2.7768364397488288,12.006179401993336
2.77783315060301,11.006179401993336
2.778829861457191,6.006179401993336
2.7798265723113724,-0.9938205980066641
2.7808232831655535,-7.993820598006664
2.7818199940197346,-11.993820598006664
2.7828167048739156,-15.993820598006664
2.783813415728097,-17.993820598006664
2.7848101265822782,-18.993820598006664
2.7858068374364593,-16.993820598006664
2.786803548290641,-12.993820598006664
2.787800259144822,-8.993820598006664
2.788796969999003,-2.993820598006664
2.789793680853184,1.0061794019933359
2.7907903917073655,5.006179401993336
2.7917871025615466,11.006179401993336
2.7927838134157277,14.006179401993336
2.793780524269909,18.006179401993336
2.7947772351240903,17.006179401993336
2.7957739459782713,17.006179401993336
2.796770656832453,14.006179401993336
2.797767367686634,12.006179401993336
2.798764078540815,6.006179401993336
2.799760789394996,-1.9938205980066641
2.8007575002491776,-6.993820598006664
2.8017542111033586,-10.993820598006664
2.8027509219575397,-16.993820598006664
2.8037476328117212,-18.993820598006664
2.8047443436659023,-18.993820598006664
2.8057410545200834,-13.993820598006664
2.8067377653742644,-10.993820598006664
2.807734476228446,-6.993820598006664
2.808731187082627,-1.9938205980066641
2.809727897936808,2.006179401993336
2.8107246087909896,7.006179401993336
2.8117213196451707,10.006179401993336
2.8127180304993518,12.006179401993336
2.8137147413535333,16.006179401993336
2.8147114522077143,17.006179401993336
2.8157081630618954,17.006179401993336
2.8167048739160765,14.006179401993336
2.817701584770258,11.006179401993336
2.818698295624439,6.006179401993336
2.81969500647862,0.006179401993335887
2.8206917173328017,-6.993820598006664
2.8216884281869827,-12.993820598006664
2.822685139041164,-18.993820598006664
2.8236818498953453,-18.993820598006664
2.8246785607495264,-17.993820598006664
2.8256752716037075,-18.993820598006664
2.8266719824578885,-12.993820598006664
2.82766869331207,-9.993820598006664
2.828665404166251,-4.993820598006664
2.829662115020432,2.006179401993336
2.8306588258746137,5.006179401993336
2.8316555367287948,11.006179401993336
2.832652247582976,16.006179401993336
2.833648958437157,16.006179401993336
2.8346456692913384,13.006179401993336
2.8356423801455195,17.006179401993336
2.8366390909997006,13.006179401993336
2.837635801853882,12.006179401993336
2.838632512708063,5.006179401993336
2.8396292235622442,-2.993820598006664
2.8406259344164257,-2.993820598006664
2.841622645270607,-10.993820598006664
2.842619356124788,-17.993820598006664
2.843616066978969,-14.993820598006664
2.8446127778331505,-15.993820598006664
2.8456094886873315,-14.993820598006664
2.8466061995415126,-10.993820598006664
2.847602910395694,-9.993820598006664
2.848599621249875,-2.993820598006664
2.8495963321040563,3.006179401993336
2.8505930429582373,6.006179401993336
2.851589753812419,8.006179401993336
2.8525864646666,11.006179401993336
2.853583175520781,16.006179401993336
2.8545798863749625,16.006179401993336
2.8555765972291436,17.006179401993336
2.8565733080833247,15.006179401993336
2.857570018937506,12.006179401993336
2.8585667297916872,7.006179401993336
2.8595634406458683,0.006179401993335887
2.8605601515000494,-3.993820598006664
2.861556862354231,-10.993820598006664
2.862553573208412,-15.993820598006664
2.863550284062593,-17.993820598006664
2.8645469949167746,-20.993820598006664
2.8655437057709556,-16.993820598006664
2.8665404166251367,-10.993820598006664
2.8675371274793178,-8.993820598006664
2.8685338383334993,-2.993820598006664
2.8695305491876804,1.0061794019933359
2.8705272600418614,5.006179401993336
2.871523970896043,8.006179401993336
2.872520681750224,14.006179401993336
2.873517392604405,19.006179401993336
2.8745141034585866,15.006179401993336
2.8755108143127677,17.006179401993336
2.8765075251669487,12.006179401993336
2.87750423602113,9.006179401993336
2.8785009468753113,4.006179401993336
2.8794976577294924,1.0061794019933359
2.8804943685836735,-2.993820598006664
2.881491079437855,-10.993820598006664
2.882487790292036,-15.993820598006664
2.883484501146217,-18.993820598006664
2.8844812120003986,-18.993820598006664
2.8854779228545797,-18.993820598006664
2.886474633708761,-14.993820598006664
2.887471344562942,-9.993820598006664
2.8884680554171234,-3.993820598006664
2.8894647662713044,4.006179401993336
2.8904614771254855,6.006179401993336
2.891458187979667,11.006179401993336
2.892454898833848,12.006179401993336
2.893451609688029,15.006179401993336
2.8944483205422102,17.006179401993336
2.8954450313963918,19.006179401993336
2.896441742250573,15.006179401993336
2.897438453104754,12.006179401993336
2.8984351639589354,6.006179401993336
2.8994318748131165,-2.993820598006664
2.9004285856672976,-4.993820598006664
2.901425296521479,-8.993820598006664
2.90242200737566,-14.993820598006664
2.903418718229841,-19.993820598006664
2.9044154290840223,-18.993820598006664
2.905412139938204,-15.993820598006664
2.906408850792385,-12.993820598006664
2.907405561646566,-7.993820598006664
2.9084022725007475,-0.9938205980066641
2.9093989833549285,4.006179401993336
2.9103956942091096,8.006179401993336
2.9113924050632907,9.006179401993336
2.912389115917472,15.006179401993336
2.9133858267716533,16.006179401993336
2.9143825376258343,17.006179401993336
2.915379248480016,16.006179401993336
2.916375959334197,15.006179401993336
2.917372670188378,12.006179401993336
2.9183693810425595,6.006179401993336
2.9193660918967406,0.006179401993335887
2.9203628027509216,-3.993820598006664
2.9213595136051027,-9.993820598006664
2.9223562244592842,-16.993820598006664
2.9233529353134653,-17.993820598006664
2.9243496461676464,-18.993820598006664
2.925346357021828,-17.993820598006664
2.926343067876009,-10.993820598006664
2.92733977873019,-9.993820598006664
2.928336489584371,-2.993820598006664
2.9293332004385526,3.006179401993336
2.9303299112927337,4.006179401993336
2.9313266221469148,9.006179401993336
2.9323233330010963,15.006179401993336
2.9333200438552773,17.006179401993336
2.9343167547094584,16.006179401993336
2.93531346556364,17.006179401993336
2.936310176417821,15.006179401993336
2.937306887272002,11.006179401993336
2.938303598126183,7.006179401993336
2.9393003089803647,-1.9938205980066641
2.9402970198345457,-3.993820598006664
2.941293730688727,-9.993820598006664
2.9422904415429083,-15.993820598006664
2.9432871523970894,-19.993820598006664
2.9442838632512704,-20.993820598006664
2.9452805741054515,-16.993820598006664
2.946277284959633,-14.993820598006664
2.947273995813814,-9.993820598006664
2.948270706667995,-3.993820598006664
2.9492674175221767,1.0061794019933359
2.9502641283763578,6.006179401993336
2.951260839230539,9.006179401993336
2.9522575500847204,12.006179401993336
2.9532542609389014,17.006179401993336
2.9542509717930825,17.006179401993336
2.9552476826472636,17.006179401993336
2.956244393501445,15.006179401993336
2.957241104355626,9.006179401993336
2.958237815209807,6.006179401993336
2.9592345260639887,-0.9938205980066641
2.96023123691817,-4.993820598006664
2.961227947772351,-10.993820598006664
2.9622246586265324,-15.993820598006664
2.9632213694807135,-14.993820598006664
2.9642180803348945,-18.993820598006664
2.9652147911890756,-19.993820598006664
2.966211502043257,-11.993820598006664
2.967208212897438,-10.993820598006664
2.9682049237516193,-3.993820598006664
2.9692016346058008,2.006179401993336
2.970198345459982,5.006179401993336
2.971195056314163,10.006179401993336
2.972191767168344,14.006179401993336
2.9731884780225255,17.006179401993336
2.9741851888767066,17.006179401993336
2.9751818997308876,17.006179401993336
2.976178610585069,13.006179401993336
2.9771753214392502,10.006179401993336
2.9781720322934313,4.006179401993336
2.979168743147613,1.0061794019933359
2.980165454001794,-4.993820598006664
2.981162164855975,-7.993820598006664
2.982158875710156,-17.993820598006664
2.9831555865643375,-15.993820598006664
2.9841522974185186,-18.993820598006664
2.9851490082726997,-16.993820598006664
2.986145719126881,-14.993820598006664
2.9871424299810623,-9.993820598006664
2.9881391408352433,-3.993820598006664
2.9891358516894244,3.006179401993336
2.990132562543606,5.006179401993336
2.991129273397787,11.006179401993336
2.992125984251968,13.006179401993336
2.9931226951061496,17.006179401993336
2.9941194059603307,16.006179401993336
2.9951161168145117,15.006179401993336
2.9961128276686932,14.006179401993336
2.9971095385228743,10.006179401993336
2.9981062493770554,5.006179401993336
2.9991029602312365,-0.9938205980066641
3.000099671085418,-5.993820598006664
3.001096381939599,-9.993820598006664
3.00209309279378,-17.993820598006664
3.0030898036479616,-18.993820598006664
3.0040865145021427,-20.993820598006664
3.0050832253563238,-20.993820598006664
3.006079936210505,-12.993820598006664
3.0070766470646864,-8.993820598006664
3.0080733579188674,-2.993820598006664
3.0090700687730485,1.0061794019933359
3.01006677962723,4.006179401993336
3.011063490481411,10.006179401993336
3.012060201335592,12.006179401993336
3.0130569121897737,17.006179401993336
3.0140536230439547,17.006179401993336
3.015050333898136,17.006179401993336
3.016047044752317,15.006179401993336
3.0170437556064984,11.006179401993336
3.0180404664606795,7.006179401993336
3.0190371773148605,-3.993820598006664
3.020033888169042,-4.993820598006664
3.021030599023223,-8.993820598006664
3.022027309877404,-14.993820598006664
3.0230240207315853,-17.993820598006664
3.024020731585767,-18.993820598006664
3.025017442439948,-16.993820598006664
3.026014153294129,-14.993820598006664
3.0270108641483104,-7.993820598006664
3.0280075750024915,-2.993820598006664
3.0290042858566726,2.006179401993336
3.030000996710854,5.006179401993336
3.030997707565035,8.006179401993336
3.0319944184192162,13.006179401993336
3.0329911292733973,14.006179401993336
3.033987840127579,14.006179401993336
3.03498455098176,19.006179401993336
3.035981261835941,18.006179401993336
3.0369779726901225,14.006179401993336
3.0379746835443036,8.006179401993336
3.0389713943984846,-2.993820598006664
3.039968105252666,-2.993820598006664
3.040964816106847,-10.993820598006664
3.0419615269610283,-15.993820598006664
3.0429582378152094,-17.993820598006664
3.043954948669391,-18.993820598006664
3.044951659523572,-14.993820598006664
3.045948370377753,-12.993820598006664
3.0469450812319345,-8.993820598006664
3.0479417920861156,-2.993820598006664
3.0489385029402967,1.0061794019933359
3.0499352137944777,4.006179401993336
3.0509319246486593,8.006179401993336
3.0519286355028403,12.006179401993336
3.0529253463570214,14.006179401993336
3.053922057211203,15.006179401993336
3.054918768065384,16.006179401993336
3.055915478919565,15.006179401993336
3.0569121897737466,12.006179401993336
3.0579089006279276,8.006179401993336
3.0589056114821087,-2.993820598006664
3.05990232233629,-3.993820598006664
3.0608990331904713,-10.993820598006664
3.0618957440446524,-15.993820598006664
3.0628924548988334,-18.993820598006664
3.063889165753015,-19.993820598006664
3.064885876607196,-14.993820598006664
3.065882587461377,-10.993820598006664
3.066879298315558,-9.993820598006664
3.0678760091697397,-4.993820598006664
3.0688727200239208,1.0061794019933359
3.069869430878102,5.006179401993336
3.0708661417322833,11.006179401993336
3.0718628525864644,12.006179401993336
3.0728595634406455,14.006179401993336
3.073856274294827,17.006179401993336
3.074852985149008,18.006179401993336
3.075849696003189,14.006179401993336
3.07684640685737,9.006179401993336
3.0778431177115517,5.006179401993336
3.078839828565733,1.0061794019933359
3.079836539419914,-2.993820598006664
3.0808332502740954,-11.993820598006664
3.0818299611282765,-15.993820598006664
3.0828266719824575,-18.993820598006664
3.0838233828366386,-18.993820598006664
3.08482009369082,-14.993820598006664
3.085816804545001,-10.993820598006664
3.0868135153991823,-9.993820598006664
3.0878102262533638,-3.993820598006664
3.088806937107545,1.0061794019933359
3.089803647961726,5.006179401993336
3.0908003588159074,8.006179401993336
3.0917970696700885,13.006179401993336
3.0927937805242696,17.006179401993336
3.0937904913784506,15.006179401993336
3.094787202232632,17.006179401993336
3.095783913086813,16.006179401993336
3.0967806239409943,12.006179401993336
3.097777334795176,8.006179401993336
3.098774045649357,-0.9938205980066641
3.099770756503538,-4.993820598006664
3.1007674673577195,-10.993820598006664
3.1017641782119005,-14.993820598006664
3.1027608890660816,-18.993820598006664
3.1037575999202627,-19.993820598006664
3.104754310774444,-15.993820598006664
3.1057510216286253,-13.993820598006664
3.1067477324828063,-7.993820598006664
3.107744443336988,-3.993820598006664
3.108741154191169,1.0061794019933359
3.10973786504535,4.006179401993336
3.110734575899531,5.006179401993336
3.1117312867537126,12.006179401993336
3.1127279976078936,16.006179401993336
3.1137247084620747,15.006179401993336
3.1147214193162562,17.006179401993336
3.1157181301704373,14.006179401993336
3.1167148410246184,11.006179401993336
3.1177115518788,6.006179401993336
3.118708262732981,1.0061794019933359
3.119704973587162,-3.993820598006664
3.120701684441343,-7.993820598006664
3.1216983952955246,-17.993820598006664
3.1226951061497057,-17.993820598006664
3.1236918170038868,-19.993820598006664
3.1246885278580683,-15.993820598006664
3.1256852387122493,-10.993820598006664
3.1266819495664304,-8.993820598006664
3.1276786604206115,-1.9938205980066641
3.128675371274793,2.006179401993336
3.129672082128974,5.006179401993336
3.130668792983155,8.006179401993336
3.1316655038373367,15.006179401993336
3.1326622146915177,20.006179401993336
3.133658925545699,16.006179401993336
3.1346556363998803,20.006179401993336
3.1356523472540614,16.006179401993336
3.1366490581082425,12.006179401993336
3.1376457689624235,3.006179401993336
3.138642479816605,0.006179401993335887
3.139639190670786,-2.993820598006664
3.140635901524967,-9.993820598006664
3.1416326123791487,-14.993820598006664
3.1426293232333298,-17.993820598006664
3.143626034087511,-19.993820598006664
3.144622744941692,-17.993820598006664
3.1456194557958734,-13.993820598006664
3.1466161666500545,-10.993820598006664
