Time,EMG
0.0,3.0160132890365503
0.000996710854181202,3.0160132890365503
0.001993421708362404,6.01601328903655
0.002990132562543606,9.01601328903655
0.003986843416724808,6.01601328903655
0.00498355427090601,6.01601328903655
0.005980265125087212,2.0160132890365503
0.006976975979268414,3.0160132890365503
0.007973686833449616,-1.9839867109634497
0.008970397687630818,-6.98398671096345
0.00996710854181202,-2.9839867109634497
0.01096381939599322,-7.98398671096345
0.011960530250174423,-7.98398671096345
0.012957241104355626,-8.98398671096345
0.013953951958536827,-4.98398671096345
0.014950662812718028,-2.9839867109634497
0.01594737366689923,1.0160132890365503
0.016944084521080434,5.01601328903655
0.017940795375261637,2.0160132890365503
0.018937506229442836,2.0160132890365503
0.01993421708362404,3.0160132890365503
0.02093092793780524,1.0160132890365503
0.02192763879198644,5.01601328903655
0.022924349646167644,7.01601328903655
0.023921060500348847,6.01601328903655
0.02491777135453005,8.01601328903655
0.025914482208711252,2.0160132890365503
0.02691119306289245,3.0160132890365503
0.027907903917073654,0.016013289036550304
0.028904614771254857,-3.9839867109634497
0.029901325625436057,-2.9839867109634497
0.03089803647961726,-6.98398671096345
0.03189474733379846,-9.98398671096345
0.032891458187979665,-4.98398671096345
0.03388816904216087,-6.98398671096345
0.03488487989634207,-3.9839867109634497
0.03588159075052327,-2.9839867109634497
0.03687830160470447,-0.9839867109634497
0.03787501245888567,1.0160132890365503
0.038871723313066875,6.01601328903655
0.03986843416724808,4.01601328903655
0.04086514502142928,4.01601328903655
0.04186185587561048,7.01601328903655
0.042858566729791686,7.01601328903655
0.04385527758397288,5.01601328903655
0.044851988438154085,6.01601328903655
0.04584869929233529,2.0160132890365503
0.04684541014651649,3.0160132890365503
0.04784212100069769,-1.9839867109634497
0.048838831854878896,-3.9839867109634497
0.0498355427090601,-5.98398671096345
0.0508322535632413,-5.98398671096345
0.051828964417422504,-6.98398671096345
0.0528256752716037,-4.98398671096345
0.0538223861257849,-4.98398671096345
0.054819096979966106,-4.98398671096345
0.05581580783414731,-3.9839867109634497
0.05681251868832851,-1.9839867109634497
0.057809229542509714,4.01601328903655
0.05880594039669092,2.0160132890365503
0.05980265125087211,4.01601328903655
0.060799362105053316,5.01601328903655
0.06179607295923452,6.01601328903655
0.06279278381341573,4.01601328903655
0.06378949466759692,5.01601328903655
0.06478620552177812,2.0160132890365503
0.06578291637595933,1.0160132890365503
0.06677962723014053,1.0160132890365503
0.06777633808432174,2.0160132890365503
0.06877304893850293,-0.9839867109634497
0.06976975979268414,-4.98398671096345
0.07076647064686534,-11.98398671096345
0.07176318150104655,-14.98398671096345
0.07275989235522774,-9.98398671096345
0.07375660320940894,-2.9839867109634497
0.07475331406359015,5.01601328903655
0.07575002491777134,9.01601328903655
0.07674673577195255,7.01601328903655
0.07774344662613375,3.0160132890365503
0.07874015748031496,1.0160132890365503
0.07973686833449616,0.016013289036550304
0.08073357918867735,1.0160132890365503
0.08173029004285856,3.0160132890365503
0.08272700089703976,7.01601328903655
0.08372371175122097,5.01601328903655
0.08472042260540216,4.01601328903655
0.08571713345958337,4.01601328903655
0.08671384431376457,1.0160132890365503
0.08771055516794576,1.0160132890365503
0.08870726602212697,-2.9839867109634497
0.08970397687630817,-3.9839867109634497
0.09070068773048938,-5.98398671096345
0.09169739858467058,-9.98398671096345
0.09269410943885178,-10.98398671096345
0.09369082029303298,-7.98398671096345
0.09468753114721419,-5.98398671096345
0.09568424200139539,-1.9839867109634497
0.09668095285557658,2.0160132890365503
0.09767766370975779,3.0160132890365503
0.09867437456393899,3.0160132890365503
0.0996710854181202,4.01601328903655
0.1006677962723014,6.01601328903655
0.1016645071264826,5.01601328903655
0.1026612179806638,6.01601328903655
0.10365792883484501,5.01601328903655
0.1046546396890262,5.01601328903655
0.1056513505432074,1.0160132890365503
0.10664806139738861,1.0160132890365503
0.1076447722515698,1.0160132890365503
0.10864148310575102,0.016013289036550304
0.10963819395993221,-2.9839867109634497
0.11063490481411342,-7.98398671096345
0.11163161566829462,-8.98398671096345
0.11262832652247581,-6.98398671096345
0.11362503737665702,-7.98398671096345
0.11462174823083822,-2.9839867109634497
0.11561845908501943,-1.9839867109634497
0.11661516993920062,0.016013289036550304
0.11761188079338183,4.01601328903655
0.11860859164756303,2.0160132890365503
0.11960530250174423,2.0160132890365503
0.12060201335592544,5.01601328903655
0.12159872421010663,7.01601328903655
0.12259543506428784,8.01601328903655
0.12359214591846904,3.0160132890365503
0.12458885677265025,5.01601328903655
0.12558556762683146,1.0160132890365503
0.12658227848101264,1.0160132890365503
0.12757898933519385,4.01601328903655
0.12857570018937506,0.016013289036550304
0.12957241104355624,-5.98398671096345
0.13056912189773745,-6.98398671096345
0.13156583275191866,-6.98398671096345
0.13256254360609987,-5.98398671096345
0.13355925446028105,-5.98398671096345
0.13455596531446226,-4.98398671096345
0.13555267616864347,-2.9839867109634497
0.13654938702282465,-1.9839867109634497
0.13754609787700586,1.0160132890365503
0.13854280873118707,2.0160132890365503
0.13953951958536828,5.01601328903655
0.14053623043954946,5.01601328903655
0.14153294129373067,7.01601328903655
0.14252965214791188,8.01601328903655
0.1435263630020931,5.01601328903655
0.14452307385627428,4.01601328903655
0.14551978471045549,3.0160132890365503
0.1465164955646367,1.0160132890365503
0.14751320641881788,-2.9839867109634497
0.1485099172729991,-7.98398671096345
0.1495066281271803,-5.98398671096345
0.1505033389813615,-4.98398671096345
0.1515000498355427,-4.98398671096345
0.1524967606897239,-4.98398671096345
0.1534934715439051,-4.98398671096345
0.1544901823980863,-4.98398671096345
0.1554868932522675,-2.9839867109634497
0.1564836041064487,-0.9839867109634497
0.15748031496062992,0.016013289036550304
0.1584770258148111,4.01601328903655
0.1594737366689923,4.01601328903655
0.16047044752317352,4.01601328903655
0.1614671583773547,5.01601328903655
0.1624638692315359,8.01601328903655
0.16346058008571712,6.01601328903655
0.16445729093989833,2.0160132890365503
0.1654540017940795,3.0160132890365503
0.16645071264826072,0.016013289036550304
0.16744742350244193,-0.9839867109634497
0.16844413435662312,-5.98398671096345
0.16944084521080433,-4.98398671096345
0.17043755606498553,-6.98398671096345
0.17143426691916674,-4.98398671096345
0.17243097777334793,-3.9839867109634497
0.17342768862752914,-2.9839867109634497
0.17442439948171035,-0.9839867109634497
0.17542111033589153,2.0160132890365503
0.17641782119007274,1.0160132890365503
0.17741453204425395,2.0160132890365503
0.17841124289843516,0.016013289036550304
0.17940795375261634,2.0160132890365503
0.18040466460679755,3.0160132890365503
0.18140137546097876,3.0160132890365503
0.18239808631515997,8.01601328903655
0.18339479716934115,4.01601328903655
0.18439150802352236,3.0160132890365503
0.18538821887770357,5.01601328903655
0.18638492973188475,2.0160132890365503
0.18738164058606596,-0.9839867109634497
0.18837835144024717,-1.9839867109634497
0.18937506229442838,-3.9839867109634497
0.19037177314860956,-6.98398671096345
0.19136848400279077,-7.98398671096345
0.19236519485697198,-4.98398671096345
0.19336190571115316,-7.98398671096345
0.19435861656533437,-3.9839867109634497
0.19535532741951558,-4.98398671096345
0.1963520382736968,-0.9839867109634497
0.19734874912787798,2.0160132890365503
0.19834545998205919,1.0160132890365503
0.1993421708362404,2.0160132890365503
0.20033888169042158,2.0160132890365503
0.2013355925446028,7.01601328903655
0.202332303398784,7.01601328903655
0.2033290142529652,9.01601328903655
0.2043257251071464,5.01601328903655
0.2053224359613276,6.01601328903655
0.2063191468155088,4.01601328903655
0.20731585766969002,-0.9839867109634497
0.2083125685238712,-6.98398671096345
0.2093092793780524,-4.98398671096345
0.21030599023223362,-6.98398671096345
0.2113027010864148,-8.98398671096345
0.212299411940596,-5.98398671096345
0.21329612279477722,-3.9839867109634497
0.21429283364895843,-1.9839867109634497
0.2152895445031396,-0.9839867109634497
0.21628625535732082,1.0160132890365503
0.21728296621150203,0.016013289036550304
0.21827967706568321,1.0160132890365503
0.21927638791986442,5.01601328903655
0.22027309877404563,3.0160132890365503
0.22126980962822684,6.01601328903655
0.22226652048240803,6.01601328903655
0.22326323133658924,1.0160132890365503
0.22425994219077044,-1.9839867109634497
0.22525665304495163,-1.9839867109634497
0.22625336389913284,-1.9839867109634497
0.22725007475331405,5.01601328903655
0.22824678560749526,3.0160132890365503
0.22924349646167644,4.01601328903655
0.23024020731585765,0.016013289036550304
0.23123691817003886,-5.98398671096345
0.23223362902422004,-7.98398671096345
0.23323033987840125,-7.98398671096345
0.23422705073258246,-7.98398671096345
0.23522376158676367,-4.98398671096345
0.23622047244094485,-0.9839867109634497
0.23721718329512606,1.0160132890365503
0.23821389414930727,1.0160132890365503
0.23921060500348845,3.0160132890365503
0.24020731585766966,4.01601328903655
0.24120402671185087,4.01601328903655
0.24220073756603208,5.01601328903655
0.24319744842021326,5.01601328903655
0.24419415927439447,4.01601328903655
0.24519087012857568,3.0160132890365503
0.2461875809827569,0.016013289036550304
0.24718429183693807,-0.9839867109634497
0.24818100269111928,-2.9839867109634497
0.2491777135453005,-3.9839867109634497
0.2501744243994817,-4.98398671096345
0.2511711352536629,-3.9839867109634497
0.2521678461078441,-4.98398671096345
0.2531645569620253,-4.98398671096345
0.2541612678162065,-4.98398671096345
0.2551579786703877,-1.9839867109634497
0.2561546895245689,0.016013289036550304
0.2571514003787501,4.01601328903655
0.2581481112329313,3.0160132890365503
0.2591448220871125,1.0160132890365503
0.2601415329412937,5.01601328903655
0.2611382437954749,8.01601328903655
0.26213495464965614,5.01601328903655
0.2631316655038373,4.01601328903655
0.2641283763580185,5.01601328903655
0.26512508721219974,4.01601328903655
0.2661217980663809,4.01601328903655
0.2671185089205621,0.016013289036550304
0.26811521977474334,-0.9839867109634497
0.2691119306289245,-2.9839867109634497
0.2701086414831057,-4.98398671096345
0.27110535233728694,-6.98398671096345
0.2721020631914681,-5.98398671096345
0.2730987740456493,-6.98398671096345
0.27409548489983054,-4.98398671096345
0.2750921957540117,-3.9839867109634497
0.27608890660819296,-2.9839867109634497
0.27708561746237415,0.016013289036550304
0.2780823283165553,4.01601328903655
0.27907903917073656,3.0160132890365503
0.28007575002491775,4.01601328903655
0.28107246087909893,8.01601328903655
0.28206917173328017,8.01601328903655
0.28306588258746135,5.01601328903655
0.28406259344164253,4.01601328903655
0.28505930429582377,3.0160132890365503
0.28605601515000495,1.0160132890365503
0.2870527260041862,-2.9839867109634497
0.28804943685836737,-3.9839867109634497
0.28904614771254855,-2.9839867109634497
0.2900428585667298,-5.98398671096345
0.29103956942091097,-5.98398671096345
0.29203628027509215,-7.98398671096345
0.2930329911292734,-6.98398671096345
0.29402970198345457,-5.98398671096345
0.29502641283763575,-2.9839867109634497
0.296023123691817,1.0160132890365503
0.2970198345459982,2.0160132890365503
0.29801654540017936,3.0160132890365503
0.2990132562543606,5.01601328903655
0.3000099671085418,6.01601328903655
0.301006677962723,5.01601328903655
0.3020033888169042,6.01601328903655
0.3030000996710854,6.01601328903655
0.3039968105252666,5.01601328903655
0.3049935213794478,1.0160132890365503
0.305990232233629,0.016013289036550304
0.3069869430878102,-0.9839867109634497
0.3079836539419914,-2.9839867109634497
0.3089803647961726,-2.9839867109634497
0.3099770756503538,-1.9839867109634497
0.310973786504535,-7.98398671096345
0.3119704973587162,-7.98398671096345
0.3129672082128974,-8.98398671096345
0.3139639190670786,-3.9839867109634497
0.31496062992125984,-1.9839867109634497
0.315957340775441,-2.9839867109634497
0.3169540516296222,1.0160132890365503
0.31795076248380344,4.01601328903655
0.3189474733379846,5.01601328903655
0.3199441841921658,3.0160132890365503
0.32094089504634704,4.01601328903655
0.3219376059005282,2.0160132890365503
0.3229343167547094,6.01601328903655
0.32393102760889064,5.01601328903655
0.3249277384630718,6.01601328903655
0.32592444931725306,3.0160132890365503
0.32692116017143424,2.0160132890365503
0.3279178710256154,-3.9839867109634497
0.32891458187979666,-4.98398671096345
0.32991129273397785,-7.98398671096345
0.330908003588159,-7.98398671096345
0.33190471444234027,-6.98398671096345
0.33290142529652145,-6.98398671096345
0.33389813615070263,-6.98398671096345
0.33489484700488387,-5.98398671096345
0.33589155785906505,1.0160132890365503
0.33688826871324623,5.01601328903655
0.33788497956742747,5.01601328903655
0.33888169042160865,5.01601328903655
0.3398784012757899,3.0160132890365503
0.34087511212997107,6.01601328903655
0.34187182298415225,7.01601328903655
0.3428685338383335,5.01601328903655
0.34386524469251467,9.01601328903655
0.34486195554669585,3.0160132890365503
0.3458586664008771,1.0160132890365503
0.3468553772550583,0.016013289036550304
0.34785208810923945,-2.9839867109634497
0.3488487989634207,-3.9839867109634497
0.3498455098176019,-4.98398671096345
0.35084222067178306,-8.98398671096345
0.3518389315259643,-6.98398671096345
0.3528356423801455,-7.98398671096345
0.3538323532343267,-4.98398671096345
0.3548290640885079,-1.9839867109634497
0.3558257749426891,0.016013289036550304
0.3568224857968703,3.0160132890365503
0.3578191966510515,4.01601328903655
0.3588159075052327,5.01601328903655
0.3598126183594139,2.0160132890365503
0.3608093292135951,6.01601328903655
0.3618060400677763,7.01601328903655
0.3628027509219575,4.01601328903655
0.3637994617761387,4.01601328903655
0.36479617263031994,1.0160132890365503
0.3657928834845011,0.016013289036550304
0.3667895943386823,-0.9839867109634497
0.36778630519286354,-5.98398671096345
0.3687830160470447,-3.9839867109634497
0.3697797269012259,-4.98398671096345
0.37077643775540714,-3.9839867109634497
0.3717731486095883,-7.98398671096345
0.3727698594637695,-6.98398671096345
0.37376657031795074,-3.9839867109634497
0.3747632811721319,0.016013289036550304
0.3757599920263131,-1.9839867109634497
0.37675670288049434,0.016013289036550304
0.3777534137346755,3.0160132890365503
0.37875012458885676,4.01601328903655
0.37974683544303794,4.01601328903655
0.3807435462972191,4.01601328903655
0.38174025715140036,9.01601328903655
0.38273696800558155,6.01601328903655
0.38373367885976273,3.0160132890365503
0.38473038971394397,2.0160132890365503
0.38572710056812515,1.0160132890365503
0.38672381142230633,-0.9839867109634497
0.38772052227648757,-3.9839867109634497
0.38871723313066875,-2.9839867109634497
0.38971394398485,-3.9839867109634497
0.39071065483903117,-6.98398671096345
0.39170736569321235,-3.9839867109634497
0.3927040765473936,-4.98398671096345
0.39370078740157477,-2.9839867109634497
0.39469749825575595,-2.9839867109634497
0.3956942091099372,-1.9839867109634497
0.39669091996411837,2.0160132890365503
0.39768763081829955,3.0160132890365503
0.3986843416724808,-0.9839867109634497
0.399681052526662,-2.9839867109634497
0.40067776338084315,1.0160132890365503
0.4016744742350244,5.01601328903655
0.4026711850892056,11.01601328903655
0.4036678959433868,16.01601328903655
0.404664606797568,9.01601328903655
0.4056613176517492,6.01601328903655
0.4066580285059304,2.0160132890365503
0.4076547393601116,-6.98398671096345
0.4086514502142928,-5.98398671096345
0.409648161068474,-7.98398671096345
0.4106448719226552,-6.98398671096345
0.4116415827768364,-7.98398671096345
0.4126382936310176,-7.98398671096345
0.4136350044851988,-3.9839867109634497
0.41463171533938004,-2.9839867109634497
0.4156284261935612,0.016013289036550304
0.4166251370477424,1.0160132890365503
0.41762184790192364,4.01601328903655
0.4186185587561048,3.0160132890365503
0.419615269610286,4.01601328903655
0.42061198046446724,6.01601328903655
0.4216086913186484,8.01601328903655
0.4226054021728296,3.0160132890365503
0.42360211302701084,4.01601328903655
0.424598823881192,2.0160132890365503
0.4255955347353732,1.0160132890365503
0.42659224558955444,0.016013289036550304
0.4275889564437356,-2.9839867109634497
0.42858566729791686,-2.9839867109634497
0.42958237815209804,-7.98398671096345
0.4305790890062792,-3.9839867109634497
0.43157579986046046,-2.9839867109634497
0.43257251071464164,-6.98398671096345
0.4335692215688228,-3.9839867109634497
0.43456593242300406,-2.9839867109634497
0.43556264327718525,-0.9839867109634497
0.43655935413136643,1.0160132890365503
0.43755606498554767,4.01601328903655
0.43855277583972885,6.01601328903655
0.43954948669391003,6.01601328903655
0.44054619754809127,6.01601328903655
0.44154290840227245,7.01601328903655
0.4425396192564537,5.01601328903655
0.44353633011063487,3.0160132890365503
0.44453304096481605,1.0160132890365503
0.4455297518189973,1.0160132890365503
0.44652646267317847,1.0160132890365503
0.44752317352735965,-2.9839867109634497
0.4485198843815409,-5.98398671096345
0.44951659523572207,-6.98398671096345
0.45051330608990325,-7.98398671096345
0.4515100169440845,-6.98398671096345
0.4525067277982657,-7.98398671096345
0.4535034386524469,-1.9839867109634497
0.4545001495066281,-1.9839867109634497
0.4554968603608093,1.0160132890365503
0.4564935712149905,1.0160132890365503
0.4574902820691717,3.0160132890365503
0.4584869929233529,5.01601328903655
0.4594837037775341,4.01601328903655
0.4604804146317153,5.01601328903655
0.4614771254858965,5.01601328903655
0.4624738363400777,8.01601328903655
0.4634705471942589,5.01601328903655
0.4644672580484401,1.0160132890365503
0.4654639689026213,1.0160132890365503
0.4664606797568025,0.016013289036550304
0.46745739061098374,-1.9839867109634497
0.4684541014651649,-6.98398671096345
0.4694508123193461,-7.98398671096345
0.47044752317352734,-4.98398671096345
0.4714442340277085,-2.9839867109634497
0.4724409448818897,-3.9839867109634497
0.47343765573607094,-1.9839867109634497
0.4744343665902521,-0.9839867109634497
0.4754310774444333,-1.9839867109634497
0.47642778829861454,2.0160132890365503
0.4774244991527957,-1.9839867109634497
0.4784212100069769,3.0160132890365503
0.47941792086115814,4.01601328903655
0.4804146317153393,5.01601328903655
0.48141134256952056,7.01601328903655
0.48240805342370174,5.01601328903655
0.4834047642778829,4.01601328903655
0.48440147513206416,2.0160132890365503
0.48539818598624535,1.0160132890365503
0.4863948968404265,1.0160132890365503
0.48739160769460776,-2.9839867109634497
0.48838831854878895,-4.98398671096345
0.48938502940297013,-7.98398671096345
0.49038174025715137,-6.98398671096345
0.49137845111133255,-7.98398671096345
0.4923751619655138,-4.98398671096345
0.49337187281969497,-2.9839867109634497
0.49436858367387615,1.0160132890365503
0.4953652945280574,1.0160132890365503
0.49636200538223857,-0.9839867109634497
0.49735871623641975,0.016013289036550304
0.498355427090601,3.0160132890365503
0.49935213794478217,5.01601328903655
0.5003488487989634,5.01601328903655
0.5013455596531445,6.01601328903655
0.5023422705073258,4.01601328903655
0.503338981361507,6.01601328903655
0.5043356922156882,3.0160132890365503
0.5053324030698694,2.0160132890365503
0.5063291139240506,0.016013289036550304
0.5073258247782317,-6.98398671096345
0.508322535632413,-3.9839867109634497
0.5093192464865942,-4.98398671096345
0.5103159573407754,-6.98398671096345
0.5113126681949566,-6.98398671096345
0.5123093790491378,-3.9839867109634497
0.513306089903319,-2.9839867109634497
0.5143028007575002,-2.9839867109634497
0.5152995116116814,-1.9839867109634497
0.5162962224658626,0.016013289036550304
0.5172929333200438,3.0160132890365503
0.518289644174225,3.0160132890365503
0.5192863550284063,5.01601328903655
0.5202830658825874,7.01601328903655
0.5212797767367686,5.01601328903655
0.5222764875909498,5.01601328903655
0.523273198445131,4.01601328903655
0.5242699092993123,4.01601328903655
0.5252666201534935,1.0160132890365503
0.5262633310076746,1.0160132890365503
0.5272600418618558,-2.9839867109634497
0.528256752716037,-2.9839867109634497
0.5292534635702182,-6.98398671096345
0.5302501744243995,-7.98398671096345
0.5312468852785807,-6.98398671096345
0.5322435961327618,-6.98398671096345
0.533240306986943,-3.9839867109634497
0.5342370178411242,0.016013289036550304
0.5352337286953054,-0.9839867109634497
0.5362304395494867,0.016013289036550304
0.5372271504036679,1.0160132890365503
0.538223861257849,4.01601328903655
0.5392205721120302,4.01601328903655
0.5402172829662114,5.01601328903655
0.5412139938203927,6.01601328903655
0.5422107046745739,4.01601328903655
0.5432074155287551,4.01601328903655
0.5442041263829362,-1.9839867109634497
0.5452008372371174,-3.9839867109634497
0.5461975480912986,-2.9839867109634497
0.5471942589454799,-1.9839867109634497
0.5481909697996611,2.0160132890365503
0.5491876806538423,3.0160132890365503
0.5501843915080235,2.0160132890365503
0.5511811023622046,-1.9839867109634497
0.5521778132163859,-5.98398671096345
0.5531745240705671,-5.98398671096345
0.5541712349247483,-2.9839867109634497
0.5551679457789295,-0.9839867109634497
0.5561646566331107,1.0160132890365503
0.5571613674872918,2.0160132890365503
0.5581580783414731,2.0160132890365503
0.5591547891956543,3.0160132890365503
0.5601515000498355,5.01601328903655
0.5611482109040167,6.01601328903655
0.5621449217581979,3.0160132890365503
0.5631416326123792,5.01601328903655
0.5641383434665603,1.0160132890365503
0.5651350543207415,-1.9839867109634497
0.5661317651749227,-0.9839867109634497
0.5671284760291039,-2.9839867109634497
0.5681251868832851,-2.9839867109634497
0.5691218977374664,-5.98398671096345
0.5701186085916475,-4.98398671096345
0.5711153194458287,-4.98398671096345
0.5721120303000099,-3.9839867109634497
0.5731087411541911,-2.9839867109634497
0.5741054520083724,-3.9839867109634497
0.5751021628625536,-1.9839867109634497
0.5760988737167347,2.0160132890365503
0.5770955845709159,5.01601328903655
0.5780922954250971,4.01601328903655
0.5790890062792783,4.01601328903655
0.5800857171334596,6.01601328903655
0.5810824279876408,7.01601328903655
0.5820791388418219,4.01601328903655
0.5830758496960031,4.01601328903655
0.5840725605501843,4.01601328903655
0.5850692714043655,1.0160132890365503
0.5860659822585468,0.016013289036550304
0.587062693112728,-3.9839867109634497
0.5880594039669091,-4.98398671096345
0.5890561148210903,-3.9839867109634497
0.5900528256752715,-7.98398671096345
0.5910495365294528,-6.98398671096345
0.592046247383634,-6.98398671096345
0.5930429582378152,-7.98398671096345
0.5940396690919963,-4.98398671096345
0.5950363799461775,1.0160132890365503
0.5960330908003587,6.01601328903655
0.59702980165454,8.01601328903655
0.5980265125087212,6.01601328903655
0.5990232233629024,5.01601328903655
0.6000199342170836,4.01601328903655
0.6010166450712647,5.01601328903655
0.602013355925446,5.01601328903655
0.6030100667796272,2.0160132890365503
0.6040067776338084,4.01601328903655
0.6050034884879896,1.0160132890365503
0.6060001993421708,-0.9839867109634497
0.6069969101963519,-2.9839867109634497
0.6079936210505332,-4.98398671096345
0.6089903319047144,-5.98398671096345
0.6099870427588956,-4.98398671096345
0.6109837536130768,-7.98398671096345
0.611980464467258,-1.9839867109634497
0.6129771753214392,-3.9839867109634497
0.6139738861756204,-2.9839867109634497
0.6149705970298016,-1.9839867109634497
0.6159673078839828,1.0160132890365503
0.616964018738164,2.0160132890365503
0.6179607295923452,5.01601328903655
0.6189574404465265,5.01601328903655
0.6199541513007076,3.0160132890365503
0.6209508621548888,6.01601328903655
0.62194757300907,4.01601328903655
0.6229442838632512,4.01601328903655
0.6239409947174324,5.01601328903655
0.6249377055716137,4.01601328903655
0.6259344164257948,2.0160132890365503
0.626931127279976,-1.9839867109634497
0.6279278381341572,-3.9839867109634497
0.6289245489883384,-6.98398671096345
0.6299212598425197,-7.98398671096345
0.6309179706967009,-7.98398671096345
0.631914681550882,-5.98398671096345
0.6329113924050632,-6.98398671096345
0.6339081032592444,-4.98398671096345
0.6349048141134256,0.016013289036550304
0.6359015249676069,4.01601328903655
0.6368982358217881,2.0160132890365503
0.6378949466759692,4.01601328903655
0.6388916575301504,6.01601328903655
0.6398883683843316,4.01601328903655
0.6408850792385129,8.01601328903655
0.6418817900926941,6.01601328903655
0.6428785009468753,4.01601328903655
0.6438752118010564,1.0160132890365503
0.6448719226552376,0.016013289036550304
0.6458686335094188,-2.9839867109634497
0.6468653443636001,-2.9839867109634497
0.6478620552177813,0.016013289036550304
0.6488587660719625,-2.9839867109634497
0.6498554769261436,-5.98398671096345
0.6508521877803248,-6.98398671096345
0.6518488986345061,-5.98398671096345
0.6528456094886873,-4.98398671096345
0.6538423203428685,-3.9839867109634497
0.6548390311970497,1.0160132890365503
0.6558357420512309,3.0160132890365503
0.656832452905412,3.0160132890365503
0.6578291637595933,5.01601328903655
0.6588258746137745,4.01601328903655
0.6598225854679557,4.01601328903655
0.6608192963221369,7.01601328903655
0.661816007176318,6.01601328903655
0.6628127180304992,4.01601328903655
0.6638094288846805,4.01601328903655
0.6648061397388617,0.016013289036550304
0.6658028505930429,-1.9839867109634497
0.6667995614472241,-2.9839867109634497
0.6677962723014053,-2.9839867109634497
0.6687929831555866,-3.9839867109634497
0.6697896940097677,-7.98398671096345
0.6707864048639489,-7.98398671096345
0.6717831157181301,-6.98398671096345
0.6727798265723113,-2.9839867109634497
0.6737765374264925,0.016013289036550304
0.6747732482806738,0.016013289036550304
0.6757699591348549,1.0160132890365503
0.6767666699890361,2.0160132890365503
0.6777633808432173,4.01601328903655
0.6787600916973985,6.01601328903655
0.6797568025515798,5.01601328903655
0.680753513405761,8.01601328903655
0.6817502242599421,6.01601328903655
0.6827469351141233,4.01601328903655
0.6837436459683045,4.01601328903655
0.6847403568224857,2.0160132890365503
0.685737067676667,-1.9839867109634497
0.6867337785308482,-3.9839867109634497
0.6877304893850293,-3.9839867109634497
0.6887272002392105,-4.98398671096345
0.6897239110933917,-7.98398671096345
0.690720621947573,-2.9839867109634497
0.6917173328017542,-4.98398671096345
0.6927140436559354,-2.9839867109634497
0.6937107545101165,-2.9839867109634497
0.6947074653642977,-4.98398671096345
0.6957041762184789,-6.98398671096345
0.6967008870726602,-2.9839867109634497
0.6976975979268414,5.01601328903655
0.6986943087810226,10.01601328903655
0.6996910196352037,14.01601328903655
0.7006877304893849,16.01601328903655
0.7016844413435661,14.01601328903655
0.7026811521977474,5.01601328903655
0.7036778630519286,2.0160132890365503
0.7046745739061098,-0.9839867109634497
0.705671284760291,-2.9839867109634497
0.7066679956144721,-2.9839867109634497
0.7076647064686534,-4.98398671096345
0.7086614173228346,-9.98398671096345
0.7096581281770158,-7.98398671096345
0.710654839031197,-6.98398671096345
0.7116515498853782,-7.98398671096345
0.7126482607395593,-8.98398671096345
0.7136449715937406,-3.9839867109634497
0.7146416824479218,0.016013289036550304
0.715638393302103,1.0160132890365503
0.7166351041562842,3.0160132890365503
0.7176318150104654,7.01601328903655
0.7186285258646467,5.01601328903655
0.7196252367188278,4.01601328903655
0.720621947573009,7.01601328903655
0.7216186584271902,1.0160132890365503
0.7226153692813714,4.01601328903655
0.7236120801355526,2.0160132890365503
0.7246087909897339,3.0160132890365503
0.725605501843915,1.0160132890365503
0.7266022126980962,1.0160132890365503
0.7275989235522774,-0.9839867109634497
0.7285956344064586,-4.98398671096345
0.7295923452606399,-7.98398671096345
0.7305890561148211,-7.98398671096345
0.7315857669690022,-8.98398671096345
0.7325824778231834,-6.98398671096345
0.7335791886773646,-2.9839867109634497
0.7345758995315458,1.0160132890365503
0.7355726103857271,1.0160132890365503
0.7365693212399083,4.01601328903655
0.7375660320940894,3.0160132890365503
0.7385627429482706,3.0160132890365503
0.7395594538024518,6.01601328903655
0.7405561646566331,8.01601328903655
0.7415528755108143,6.01601328903655
0.7425495863649955,8.01601328903655
0.7435462972191766,4.01601328903655
0.7445430080733578,3.0160132890365503
0.745539718927539,-2.9839867109634497
0.7465364297817203,-7.98398671096345
0.7475331406359015,-2.9839867109634497
0.7485298514900827,-4.98398671096345
0.7495265623442638,-6.98398671096345
0.750523273198445,-7.98398671096345
0.7515199840526262,-5.98398671096345
0.7525166949068075,-6.98398671096345
0.7535134057609887,-1.9839867109634497
0.7545101166151699,1.0160132890365503
0.755506827469351,0.016013289036550304
0.7565035383235322,4.01601328903655
0.7575002491777135,3.0160132890365503
0.7584969600318947,4.01601328903655
0.7594936708860759,4.01601328903655
0.7604903817402571,5.01601328903655
0.7614870925944383,6.01601328903655
0.7624838034486194,9.01601328903655
0.7634805143028007,4.01601328903655
0.7644772251569819,5.01601328903655
0.7654739360111631,-0.9839867109634497
0.7664706468653443,-3.9839867109634497
0.7674673577195255,-3.9839867109634497
0.7684640685737067,-4.98398671096345
0.7694607794278879,-9.98398671096345
0.7704574902820691,-7.98398671096345
0.7714542011362503,-5.98398671096345
0.7724509119904315,-5.98398671096345
0.7734476228446127,-3.9839867109634497
0.774444333698794,-2.9839867109634497
0.7754410445529751,2.0160132890365503
0.7764377554071563,1.0160132890365503
0.7774344662613375,5.01601328903655
0.7784311771155187,3.0160132890365503
0.7794278879697,8.01601328903655
0.7804245988238812,8.01601328903655
0.7814213096780623,4.01601328903655
0.7824180205322435,3.0160132890365503
0.7834147313864247,5.01601328903655
0.7844114422406059,-0.9839867109634497
0.7854081530947872,-2.9839867109634497
0.7864048639489684,-4.98398671096345
0.7874015748031495,-2.9839867109634497
0.7883982856573307,-3.9839867109634497
0.7893949965115119,-5.98398671096345
0.7903917073656931,-2.9839867109634497
0.7913884182198744,-3.9839867109634497
0.7923851290740556,-2.9839867109634497
0.7933818399282367,-4.98398671096345
0.7943785507824179,0.016013289036550304
0.7953752616365991,5.01601328903655
0.7963719724907804,3.0160132890365503
0.7973686833449616,4.01601328903655
0.7983653941991428,4.01601328903655
0.799362105053324,6.01601328903655
0.8003588159075051,4.01601328903655
0.8013555267616863,4.01601328903655
0.8023522376158676,6.01601328903655
0.8033489484700488,1.0160132890365503
0.80434565932423,0.016013289036550304
0.8053423701784111,-1.9839867109634497
0.8063390810325923,-3.9839867109634497
0.8073357918867736,-2.9839867109634497
0.8083325027409548,-3.9839867109634497
0.809329213595136,-5.98398671096345
0.8103259244493172,-3.9839867109634497
0.8113226353034984,-5.98398671096345
0.8123193461576795,-6.98398671096345
0.8133160570118608,-2.9839867109634497
0.814312767866042,-2.9839867109634497
0.8153094787202232,2.0160132890365503
0.8163061895744044,2.0160132890365503
0.8173029004285856,5.01601328903655
0.8182996112827668,5.01601328903655
0.819296322136948,5.01601328903655
0.8202930329911292,8.01601328903655
0.8212897438453104,8.01601328903655
0.8222864546994916,3.0160132890365503
0.8232831655536728,4.01601328903655
0.824279876407854,-0.9839867109634497
0.8252765872620352,-0.9839867109634497
0.8262732981162164,-3.9839867109634497
0.8272700089703976,-3.9839867109634497
0.8282667198245788,-4.98398671096345
0.8292634306787601,-6.98398671096345
0.8302601415329413,-6.98398671096345
0.8312568523871224,-4.98398671096345
0.8322535632413036,-2.9839867109634497
0.8332502740954848,-2.9839867109634497
0.834246984949666,-4.98398671096345
0.8352436958038473,1.0160132890365503
0.8362404066580285,4.01601328903655
0.8372371175122096,0.016013289036550304
0.8382338283663908,6.01601328903655
0.839230539220572,5.01601328903655
0.8402272500747532,0.016013289036550304
0.8412239609289345,-1.9839867109634497
0.8422206717831157,1.0160132890365503
0.8432173826372968,2.0160132890365503
0.844214093491478,4.01601328903655
0.8452108043456592,10.01601328903655
0.8462075151998405,9.01601328903655
0.8472042260540217,1.0160132890365503
0.8482009369082029,-6.98398671096345
0.849197647762384,-7.98398671096345
0.8501943586165652,-7.98398671096345
0.8511910694707464,-4.98398671096345
0.8521877803249277,-3.9839867109634497
0.8531844911791089,-3.9839867109634497
0.8541812020332901,-2.9839867109634497
0.8551779128874712,-0.9839867109634497
0.8561746237416524,1.0160132890365503
0.8571713345958337,4.01601328903655
0.8581680454500149,4.01601328903655
0.8591647563041961,5.01601328903655
0.8601614671583773,8.01601328903655
0.8611581780125585,6.01601328903655
0.8621548888667396,5.01601328903655
0.8631515997209209,4.01601328903655
0.8641483105751021,1.0160132890365503
0.8651450214292833,0.016013289036550304
0.8661417322834645,-3.9839867109634497
0.8671384431376457,-8.98398671096345
0.868135153991827,-7.98398671096345
0.8691318648460081,-7.98398671096345
0.8701285757001893,-3.9839867109634497
0.8711252865543705,-2.9839867109634497
0.8721219974085517,3.0160132890365503
0.8731187082627329,-1.9839867109634497
0.8741154191169141,-1.9839867109634497
0.8751121299710953,3.0160132890365503
0.8761088408252765,-0.9839867109634497
0.8771055516794577,3.0160132890365503
0.8781022625336389,5.01601328903655
0.8790989733878201,4.01601328903655
0.8800956842420014,6.01601328903655
0.8810923950961825,5.01601328903655
0.8820891059503637,5.01601328903655
0.8830858168045449,3.0160132890365503
0.8840825276587261,-0.9839867109634497
0.8850792385129074,0.016013289036550304
0.8860759493670886,-2.9839867109634497
0.8870726602212697,-3.9839867109634497
0.8880693710754509,-6.98398671096345
0.8890660819296321,-9.98398671096345
0.8900627927838133,-7.98398671096345
0.8910595036379946,-7.98398671096345
0.8920562144921758,-5.98398671096345
0.8930529253463569,-1.9839867109634497
0.8940496362005381,4.01601328903655
0.8950463470547193,2.0160132890365503
0.8960430579089006,4.01601328903655
0.8970397687630818,6.01601328903655
0.898036479617263,5.01601328903655
0.8990331904714441,6.01601328903655
0.9000299013256253,6.01601328903655
0.9010266121798065,5.01601328903655
0.9020233230339878,4.01601328903655
0.903020033888169,3.0160132890365503
0.9040167447423502,3.0160132890365503
0.9050134555965313,0.016013289036550304
0.9060101664507125,-2.9839867109634497
0.9070068773048938,-3.9839867109634497
0.908003588159075,-7.98398671096345
0.9090002990132562,-6.98398671096345
0.9099970098674374,-5.98398671096345
0.9109937207216185,-2.9839867109634497
0.9119904315757997,-3.9839867109634497
0.912987142429981,0.016013289036550304
0.9139838532841622,-0.9839867109634497
0.9149805641383434,2.0160132890365503
0.9159772749925246,3.0160132890365503
0.9169739858467058,7.01601328903655
0.9179706967008869,4.01601328903655
0.9189674075550682,4.01601328903655
0.9199641184092494,6.01601328903655
0.9209608292634306,5.01601328903655
0.9219575401176118,5.01601328903655
0.922954250971793,2.0160132890365503
0.9239509618259742,-0.9839867109634497
0.9249476726801554,1.0160132890365503
0.9259443835343366,-2.9839867109634497
0.9269410943885178,-5.98398671096345
0.927937805242699,-6.98398671096345
0.9289345160968802,-4.98398671096345
0.9299312269510615,-4.98398671096345
0.9309279378052426,-7.98398671096345
0.9319246486594238,-3.9839867109634497
0.932921359513605,-2.9839867109634497
0.9339180703677862,-1.9839867109634497
0.9349147812219675,1.0160132890365503
0.9359114920761487,5.01601328903655
0.9369082029303298,5.01601328903655
0.937904913784511,3.0160132890365503
0.9389016246386922,3.0160132890365503
0.9398983354928734,7.01601328903655
0.9408950463470547,5.01601328903655
0.9418917572012359,4.01601328903655
0.942888468055417,2.0160132890365503
0.9438851789095982,3.0160132890365503
0.9448818897637794,0.016013289036550304
0.9458786006179607,-3.9839867109634497
0.9468753114721419,-2.9839867109634497
0.9478720223263231,-6.98398671096345
0.9488687331805042,-4.98398671096345
0.9498654440346854,-5.98398671096345
0.9508621548888666,-4.98398671096345
0.9518588657430479,-3.9839867109634497
0.9528555765972291,-3.9839867109634497
0.9538522874514103,0.016013289036550304
0.9548489983055914,3.0160132890365503
0.9558457091597726,1.0160132890365503
0.9568424200139538,1.0160132890365503
0.9578391308681351,3.0160132890365503
0.9588358417223163,3.0160132890365503
0.9598325525764975,8.01601328903655
0.9608292634306786,9.01601328903655
0.9618259742848598,5.01601328903655
0.9628226851390411,4.01601328903655
0.9638193959932223,1.0160132890365503
0.9648161068474035,-0.9839867109634497
0.9658128177015847,-2.9839867109634497
0.9668095285557659,-2.9839867109634497
0.967806239409947,-4.98398671096345
0.9688029502641283,-2.9839867109634497
0.9697996611183095,-7.98398671096345
0.9707963719724907,-5.98398671096345
0.9717930828266719,-4.98398671096345
0.972789793680853,-5.98398671096345
0.9737865045350343,-7.98398671096345
0.9747832153892155,-1.9839867109634497
0.9757799262433967,2.0160132890365503
0.9767766370975779,8.01601328903655
0.9777733479517591,12.01601328903655
0.9787700588059403,13.01601328903655
0.9797667696601216,15.01601328903655
0.9807634805143027,10.01601328903655
0.9817601913684839,4.01601328903655
0.9827569022226651,0.016013289036550304
0.9837536130768463,0.016013289036550304
0.9847503239310276,-1.9839867109634497
0.9857470347852088,-6.98398671096345
0.9867437456393899,-5.98398671096345
0.9877404564935711,-7.98398671096345
0.9887371673477523,-11.98398671096345
0.9897338782019335,-7.98398671096345
0.9907305890561148,-5.98398671096345
0.991727299910296,1.0160132890365503
0.9927240107644771,0.016013289036550304
0.9937207216186583,0.016013289036550304
0.9947174324728395,2.0160132890365503
0.9957141433270208,2.0160132890365503
0.996710854181202,4.01601328903655
0.9977075650353832,4.01601328903655
0.9987042758895643,5.01601328903655
0.9997009867437455,6.01601328903655
1.0006976975979267,5.01601328903655
1.001694408452108,4.01601328903655
1.002691119306289,4.01601328903655
1.0036878301604704,1.0160132890365503
1.0046845410146517,1.0160132890365503
1.0056812518688327,0.016013289036550304
1.006677962723014,-3.9839867109634497
1.007674673577195,-7.98398671096345
1.0086713844313764,-5.98398671096345
1.0096680952855577,-6.98398671096345
1.0106648061397387,-5.98398671096345
1.01166151699392,-3.9839867109634497
1.0126582278481011,-1.9839867109634497
1.0136549387022824,-0.9839867109634497
1.0146516495564635,1.0160132890365503
1.0156483604106448,1.0160132890365503
1.016645071264826,5.01601328903655
1.0176417821190071,5.01601328903655
1.0186384929731884,7.01601328903655
1.0196352038273695,13.01601328903655
1.0206319146815508,6.01601328903655
1.021628625535732,4.01601328903655
1.0226253363899132,1.0160132890365503
1.0236220472440944,0.016013289036550304
1.0246187580982755,-1.9839867109634497
1.0256154689524568,-6.98398671096345
1.026612179806638,-5.98398671096345
1.0276088906608192,-6.98398671096345
1.0286056015150005,-6.98398671096345
1.0296023123691815,-4.98398671096345
1.0305990232233628,-5.98398671096345
1.031595734077544,-3.9839867109634497
1.0325924449317252,0.016013289036550304
1.0335891557859065,1.0160132890365503
1.0345858666400876,1.0160132890365503
1.0355825774942689,2.0160132890365503
1.03657928834845,2.0160132890365503
1.0375759992026312,5.01601328903655
1.0385727100568125,4.01601328903655
1.0395694209109936,6.01601328903655
1.0405661317651749,6.01601328903655
1.041562842619356,5.01601328903655
1.0425595534735372,6.01601328903655
1.0435562643277185,1.0160132890365503
1.0445529751818996,1.0160132890365503
1.045549686036081,-3.9839867109634497
1.046546396890262,-1.9839867109634497
1.0475431077444433,-5.98398671096345
1.0485398185986246,-7.98398671096345
1.0495365294528056,-7.98398671096345
1.050533240306987,-8.98398671096345
1.051529951161168,-3.9839867109634497
1.0525266620153493,-3.9839867109634497
1.0535233728695304,-0.9839867109634497
1.0545200837237116,0.016013289036550304
1.055516794577893,3.0160132890365503
1.056513505432074,7.01601328903655
1.0575102162862553,6.01601328903655
1.0585069271404364,6.01601328903655
1.0595036379946177,6.01601328903655
1.060500348848799,3.0160132890365503
1.06149705970298,5.01601328903655
1.0624937705571613,4.01601328903655
1.0634904814113424,4.01601328903655
1.0644871922655237,1.0160132890365503
1.065483903119705,-3.9839867109634497
1.066480613973886,-3.9839867109634497
1.0674773248280673,-7.98398671096345
1.0684740356822484,-8.98398671096345
1.0694707465364297,-3.9839867109634497
1.0704674573906108,-6.98398671096345
1.071464168244792,-2.9839867109634497
1.0724608790989734,-3.9839867109634497
1.0734575899531544,2.0160132890365503
1.0744543008073357,1.0160132890365503
1.0754510116615168,1.0160132890365503
1.076447722515698,2.0160132890365503
1.0774444333698794,5.01601328903655
1.0784411442240605,4.01601328903655
1.0794378550782417,7.01601328903655
1.0804345659324228,5.01601328903655
1.0814312767866041,5.01601328903655
1.0824279876407854,3.0160132890365503
1.0834246984949665,3.0160132890365503
1.0844214093491478,0.016013289036550304
1.0854181202033288,-4.98398671096345
1.0864148310575101,-2.9839867109634497
1.0874115419116914,-6.98398671096345
1.0884082527658725,-7.98398671096345
1.0894049636200538,-7.98398671096345
1.0904016744742349,-4.98398671096345
1.0913983853284162,-2.9839867109634497
1.0923950961825972,-0.9839867109634497
1.0933918070367785,1.0160132890365503
1.0943885178909598,1.0160132890365503
1.0953852287451409,2.0160132890365503
1.0963819395993222,6.01601328903655
1.0973786504535032,4.01601328903655
1.0983753613076845,6.01601328903655
1.0993720721618658,6.01601328903655
1.100368783016047,8.01601328903655
1.1013654938702282,4.01601328903655
1.1023622047244093,2.0160132890365503
1.1033589155785906,-0.9839867109634497
1.1043556264327719,-3.9839867109634497
1.105352337286953,-2.9839867109634497
1.1063490481411342,-2.9839867109634497
1.1073457589953153,-4.98398671096345
1.1083424698494966,-6.98398671096345
1.1093391807036777,-7.98398671096345
1.110335891557859,-7.98398671096345
1.1113326024120402,-3.9839867109634497
1.1123293132662213,-1.9839867109634497
1.1133260241204026,0.016013289036550304
1.1143227349745837,4.01601328903655
1.115319445828765,2.0160132890365503
1.1163161566829463,3.0160132890365503
1.1173128675371273,4.01601328903655
1.1183095783913086,6.01601328903655
1.1193062892454897,6.01601328903655
1.120303000099671,4.01601328903655
1.1212997109538523,4.01601328903655
1.1222964218080334,4.01601328903655
1.1232931326622146,2.0160132890365503
1.1242898435163957,-0.9839867109634497
1.125286554370577,-2.9839867109634497
1.1262832652247583,-2.9839867109634497
1.1272799760789394,-4.98398671096345
1.1282766869331207,-7.98398671096345
1.1292733977873017,-10.98398671096345
1.130270108641483,-14.98398671096345
1.131266819495664,-9.98398671096345
1.1322635303498454,-4.98398671096345
1.1332602412040267,6.01601328903655
1.1342569520582078,12.01601328903655
1.135253662912389,12.01601328903655
1.1362503737665701,10.01601328903655
1.1372470846207514,4.01601328903655
1.1382437954749327,3.0160132890365503
1.1392405063291138,4.01601328903655
1.140237217183295,1.0160132890365503
1.1412339280374761,4.01601328903655
1.1422306388916574,2.0160132890365503
1.1432273497458387,1.0160132890365503
1.1442240606000198,-2.9839867109634497
1.145220771454201,-7.98398671096345
1.1462174823083822,-2.9839867109634497
1.1472141931625635,-3.9839867109634497
1.1482109040167447,-7.98398671096345
1.1492076148709258,-3.9839867109634497
1.1502043257251071,-4.98398671096345
1.1512010365792882,-2.9839867109634497
1.1521977474334695,-2.9839867109634497
1.1531944582876505,0.016013289036550304
1.1541911691418318,1.0160132890365503
1.1551878799960131,3.0160132890365503
1.1561845908501942,5.01601328903655
1.1571813017043755,7.01601328903655
1.1581780125585566,6.01601328903655
1.1591747234127379,5.01601328903655
1.1601714342669192,5.01601328903655
1.1611681451211002,5.01601328903655
1.1621648559752815,3.0160132890365503
1.1631615668294626,0.016013289036550304
1.1641582776836439,-0.9839867109634497
1.1651549885378252,-4.98398671096345
1.1661516993920062,-1.9839867109634497
1.1671484102461875,-4.98398671096345
1.1681451211003686,-4.98398671096345
1.16914183195455,-8.98398671096345
1.170138542808731,-7.98398671096345
1.1711352536629123,-7.98398671096345
1.1721319645170936,-2.9839867109634497
1.1731286753712746,2.0160132890365503
1.174125386225456,4.01601328903655
1.175122097079637,8.01601328903655
1.1761188079338183,6.01601328903655
1.1771155187879996,5.01601328903655
1.1781122296421807,3.0160132890365503
1.179108940496362,6.01601328903655
1.180105651350543,3.0160132890365503
1.1811023622047243,7.01601328903655
1.1820990730589056,3.0160132890365503
1.1830957839130867,3.0160132890365503
1.184092494767268,0.016013289036550304
1.185089205621449,-4.98398671096345
1.1860859164756303,-4.98398671096345
1.1870826273298116,-7.98398671096345
1.1880793381839927,-7.98398671096345
1.189076049038174,-7.98398671096345
1.190072759892355,-6.98398671096345
1.1910694707465364,-2.9839867109634497
1.1920661816007174,-1.9839867109634497
1.1930628924548987,-3.9839867109634497
1.19405960330908,3.0160132890365503
1.195056314163261,3.0160132890365503
1.1960530250174424,4.01601328903655
1.1970497358716234,3.0160132890365503
1.1980464467258047,4.01601328903655
1.199043157579986,7.01601328903655
1.200039868434167,6.01601328903655
1.2010365792883484,7.01601328903655
1.2020332901425295,1.0160132890365503
1.2030300009967108,2.0160132890365503
1.204026711850892,1.0160132890365503
1.2050234227050731,-2.9839867109634497
1.2060201335592544,-1.9839867109634497
1.2070168444134355,-4.98398671096345
1.2080135552676168,-4.98398671096345
1.2090102661217978,-4.98398671096345
1.2100069769759791,-4.98398671096345
1.2110036878301604,-4.98398671096345
1.2120003986843415,-3.9839867109634497
1.2129971095385228,-0.9839867109634497
1.2139938203927039,3.0160132890365503
1.2149905312468852,5.01601328903655
1.2159872421010665,3.0160132890365503
1.2169839529552475,2.0160132890365503
1.2179806638094288,6.01601328903655
1.21897737466361,4.01601328903655
1.2199740855177912,5.01601328903655
1.2209707963719725,10.01601328903655
1.2219675072261535,4.01601328903655
1.2229642180803348,2.0160132890365503
1.223960928934516,0.016013289036550304
1.2249576397886972,-7.98398671096345
1.2259543506428785,-4.98398671096345
1.2269510614970596,-6.98398671096345
1.2279477723512409,-6.98398671096345
1.228944483205422,-7.98398671096345
1.2299411940596032,-5.98398671096345
1.2309379049137843,-4.98398671096345
1.2319346157679656,-1.9839867109634497
1.2329313266221469,-0.9839867109634497
1.233928037476328,1.0160132890365503
1.2349247483305092,3.0160132890365503
1.2359214591846903,3.0160132890365503
1.2369181700388716,4.01601328903655
1.237914880893053,4.01601328903655
1.238911591747234,7.01601328903655
1.2399083026014153,5.01601328903655
1.2409050134555963,8.01601328903655
1.2419017243097776,3.0160132890365503
1.242898435163959,2.0160132890365503
1.24389514601814,0.016013289036550304
1.2448918568723213,-1.9839867109634497
1.2458885677265024,-2.9839867109634497
1.2468852785806837,-2.9839867109634497
1.2478819894348647,-4.98398671096345
1.248878700289046,-5.98398671096345
1.2498754111432273,-7.98398671096345
1.2508721219974084,-7.98398671096345
1.2518688328515897,-5.98398671096345
1.2528655437057707,-2.9839867109634497
1.253862254559952,0.016013289036550304
1.2548589654141333,3.0160132890365503
1.2558556762683144,3.0160132890365503
1.2568523871224957,4.01601328903655
1.2578490979766768,5.01601328903655
1.258845808830858,9.01601328903655
1.2598425196850394,6.01601328903655
1.2608392305392204,5.01601328903655
1.2618359413934017,1.0160132890365503
1.2628326522475828,2.0160132890365503
1.263829363101764,0.016013289036550304
1.2648260739559454,-1.9839867109634497
1.2658227848101264,-2.9839867109634497
1.2668194956643077,-4.98398671096345
1.2678162065184888,-7.98398671096345
1.26881291737267,-5.98398671096345
1.2698096282268512,-4.98398671096345
1.2708063390810325,-4.98398671096345
1.2718030499352138,-4.98398671096345
1.2727997607893948,1.0160132890365503
1.2737964716435761,5.01601328903655
1.2747931824977572,4.01601328903655
1.2757898933519385,6.01601328903655
1.2767866042061198,5.01601328903655
1.2777833150603009,6.01601328903655
1.2787800259144821,5.01601328903655
1.2797767367686632,3.0160132890365503
1.2807734476228445,2.0160132890365503
1.2817701584770258,3.0160132890365503
1.2827668693312069,3.0160132890365503
1.2837635801853882,-1.9839867109634497
1.2847602910395692,-6.98398671096345
1.2857570018937505,-6.98398671096345
1.2867537127479316,-4.98398671096345
1.287750423602113,-6.98398671096345
1.2887471344562942,-4.98398671096345
1.2897438453104753,-2.9839867109634497
1.2907405561646565,-3.9839867109634497
1.2917372670188376,-1.9839867109634497
1.292733977873019,2.0160132890365503
1.2937306887272002,1.0160132890365503
1.2947273995813813,4.01601328903655
1.2957241104355626,5.01601328903655
1.2967208212897436,4.01601328903655
1.297717532143925,5.01601328903655
1.2987142429981062,5.01601328903655
1.2997109538522873,6.01601328903655
1.3007076647064686,6.01601328903655
1.3017043755606497,3.0160132890365503
1.302701086414831,1.0160132890365503
1.3036977972690122,-5.98398671096345
1.3046945081231933,-9.98398671096345
1.3056912189773746,-8.98398671096345
1.3066879298315557,-8.98398671096345
1.307684640685737,-2.9839867109634497
1.308681351539918,2.0160132890365503
1.3096780623940993,4.01601328903655
1.3106747732482806,3.0160132890365503
1.3116714841024617,1.0160132890365503
1.312668194956643,-2.9839867109634497
1.313664905810824,0.016013289036550304
1.3146616166650054,2.0160132890365503
1.3156583275191867,2.0160132890365503
1.3166550383733677,3.0160132890365503
1.317651749227549,5.01601328903655
1.31864846008173,6.01601328903655
1.3196451709359114,5.01601328903655
1.3206418817900927,3.0160132890365503
1.3216385926442737,4.01601328903655
1.322635303498455,-1.9839867109634497
1.323632014352636,-2.9839867109634497
1.3246287252068174,-2.9839867109634497
1.3256254360609985,-3.9839867109634497
1.3266221469151798,-3.9839867109634497
1.327618857769361,-4.98398671096345
1.3286155686235421,-3.9839867109634497
1.3296122794777234,-4.98398671096345
1.3306089903319045,-5.98398671096345
1.3316057011860858,-2.9839867109634497
1.332602412040267,0.016013289036550304
1.3335991228944482,2.0160132890365503
1.3345958337486294,4.01601328903655
1.3355925446028105,3.0160132890365503
1.3365892554569918,1.0160132890365503
1.337585966311173,5.01601328903655
1.3385826771653542,8.01601328903655
1.3395793880195355,6.01601328903655
1.3405760988737165,8.01601328903655
1.3415728097278978,2.0160132890365503
1.3425695205820791,1.0160132890365503
1.3435662314362602,-2.9839867109634497
1.3445629422904415,-5.98398671096345
1.3455596531446226,-4.98398671096345
1.3465563639988039,-5.98398671096345
1.347553074852985,-3.9839867109634497
1.3485497857071662,-6.98398671096345
1.3495464965613475,-3.9839867109634497
1.3505432074155286,-4.98398671096345
1.3515399182697099,-5.98398671096345
1.352536629123891,0.016013289036550304
1.3535333399780722,2.0160132890365503
1.3545300508322535,3.0160132890365503
1.3555267616864346,4.01601328903655
1.356523472540616,4.01601328903655
1.357520183394797,9.01601328903655
1.3585168942489783,2.0160132890365503
1.3595136051031596,3.0160132890365503
1.3605103159573406,2.0160132890365503
1.361507026811522,3.0160132890365503
1.362503737665703,5.01601328903655
1.3635004485198843,2.0160132890365503
1.3644971593740653,-0.9839867109634497
1.3654938702282466,-0.9839867109634497
1.366490581082428,-1.9839867109634497
1.367487291936609,-7.98398671096345
1.3684840027907903,-7.98398671096345
1.3694807136449714,-4.98398671096345
1.3704774244991527,-4.98398671096345
1.371474135353334,-3.9839867109634497
1.372470846207515,-1.9839867109634497
1.3734675570616963,1.0160132890365503
1.3744642679158774,2.0160132890365503
1.3754609787700587,5.01601328903655
1.37645768962424,3.0160132890365503
1.377454400478421,6.01601328903655
1.3784511113326023,5.01601328903655
1.3794478221867834,4.01601328903655
1.3804445330409647,7.01601328903655
1.381441243895146,3.0160132890365503
1.382437954749327,2.0160132890365503
1.3834346656035084,1.0160132890365503
1.3844313764576894,-1.9839867109634497
1.3854280873118707,-2.9839867109634497
1.3864247981660518,-1.9839867109634497
1.387421509020233,-6.98398671096345
1.3884182198744144,-7.98398671096345
1.3894149307285955,-5.98398671096345
1.3904116415827767,-7.98398671096345
1.3914083524369578,-4.98398671096345
1.3924050632911391,-3.9839867109634497
1.3934017741453204,-1.9839867109634497
1.3943984849995015,2.0160132890365503
1.3953951958536828,3.0160132890365503
1.3963919067078638,4.01601328903655
1.3973886175620451,5.01601328903655
1.3983853284162264,5.01601328903655
1.3993820392704075,8.01601328903655
1.4003787501245888,5.01601328903655
1.4013754609787699,5.01601328903655
1.4023721718329512,1.0160132890365503
1.4033688826871322,-1.9839867109634497
1.4043655935413135,-1.9839867109634497
1.4053623043954948,-2.9839867109634497
1.4063590152496759,-4.98398671096345
1.4073557261038572,-6.98398671096345
1.4083524369580382,-6.98398671096345
1.4093491478122195,-6.98398671096345
1.4103458586664008,-6.98398671096345
1.411342569520582,0.016013289036550304
1.4123392803747632,-0.9839867109634497
1.4133359912289443,2.0160132890365503
1.4143327020831256,3.0160132890365503
1.4153294129373069,4.01601328903655
1.416326123791488,5.01601328903655
1.4173228346456692,5.01601328903655
1.4183195454998503,4.01601328903655
1.4193162563540316,3.0160132890365503
1.4203129672082129,4.01601328903655
1.421309678062394,3.0160132890365503
1.4223063889165752,1.0160132890365503
1.4233030997707563,2.0160132890365503
1.4242998106249376,-3.9839867109634497
1.4252965214791187,-4.98398671096345
1.4262932323333,-6.98398671096345
1.4272899431874813,-4.98398671096345
1.4282866540416623,-7.98398671096345
1.4292833648958436,-4.98398671096345
1.4302800757500247,-2.9839867109634497
1.431276786604206,0.016013289036550304
1.4322734974583873,0.016013289036550304
1.4332702083125684,4.01601328903655
1.4342669191667496,3.0160132890365503
1.4352636300209307,1.0160132890365503
1.436260340875112,4.01601328903655
1.4372570517292933,6.01601328903655
1.4382537625834744,7.01601328903655
1.4392504734376557,4.01601328903655
1.4402471842918367,4.01601328903655
1.441243895146018,3.0160132890365503
1.4422406060001993,3.0160132890365503
1.4432373168543804,1.0160132890365503
1.4442340277085617,-3.9839867109634497
1.4452307385627428,-3.9839867109634497
1.446227449416924,-6.98398671096345
1.4472241602711051,-5.98398671096345
1.4482208711252864,-6.98398671096345
1.4492175819794677,-7.98398671096345
1.4502142928336488,-3.9839867109634497
1.45121100368783,-1.9839867109634497
1.4522077145420111,1.0160132890365503
1.4532044253961924,-1.9839867109634497
1.4542011362503737,2.0160132890365503
1.4551978471045548,4.01601328903655
1.456194557958736,6.01601328903655
1.4571912688129172,4.01601328903655
1.4581879796670985,6.01601328903655
1.4591846905212797,5.01601328903655
1.4601814013754608,5.01601328903655
1.4611781122296421,4.01601328903655
1.4621748230838232,2.0160132890365503
1.4631715339380045,1.0160132890365503
1.4641682447921855,-1.9839867109634497
1.4651649556463668,-3.9839867109634497
1.4661616665005481,-7.98398671096345
1.4671583773547292,-6.98398671096345
1.4681550882089105,-7.98398671096345
1.4691517990630916,-6.98398671096345
1.4701485099172729,-3.9839867109634497
1.4711452207714542,-3.9839867109634497
1.4721419316256352,-1.9839867109634497
1.4731386424798165,0.016013289036550304
1.4741353533339976,1.0160132890365503
1.4751320641881789,7.01601328903655
1.4761287750423602,8.01601328903655
1.4771254858965412,5.01601328903655
1.4781221967507225,6.01601328903655
1.4791189076049036,5.01601328903655
1.480115618459085,4.01601328903655
1.4811123293132662,4.01601328903655
1.4821090401674473,3.0160132890365503
1.4831057510216286,1.0160132890365503
1.4841024618758096,-3.9839867109634497
1.485099172729991,-3.9839867109634497
1.486095883584172,-2.9839867109634497
1.4870925944383533,-7.98398671096345
1.4880893052925346,-4.98398671096345
1.4890860161467157,-5.98398671096345
1.490082727000897,-4.98398671096345
1.491079437855078,-3.9839867109634497
1.4920761487092593,-3.9839867109634497
1.4930728595634406,-3.9839867109634497
1.4940695704176217,0.016013289036550304
1.495066281271803,4.01601328903655
1.496062992125984,8.01601328903655
1.4970597029801653,15.01601328903655
1.4980564138343466,14.01601328903655
1.4990531246885277,15.01601328903655
1.500049835542709,6.01601328903655
1.50104654639689,-0.9839867109634497
1.5020432572510714,-7.98398671096345
1.5030399681052524,-4.98398671096345
1.5040366789594337,-3.9839867109634497
1.505033389813615,-0.9839867109634497
1.506030100667796,-4.98398671096345
1.5070268115219774,-6.98398671096345
1.5080235223761584,-8.98398671096345
1.5090202332303397,-6.98398671096345
1.510016944084521,-6.98398671096345
1.511013654938702,-1.9839867109634497
1.5120103657928834,2.0160132890365503
1.5130070766470645,1.0160132890365503
1.5140037875012458,4.01601328903655
1.515000498355427,5.01601328903655
1.5159972092096081,4.01601328903655
1.5169939200637894,7.01601328903655
1.5179906309179705,3.0160132890365503
1.5189873417721518,5.01601328903655
1.519984052626333,8.01601328903655
1.5209807634805141,4.01601328903655
1.5219774743346954,-1.9839867109634497
1.5229741851888765,-0.9839867109634497
1.5239708960430578,0.016013289036550304
1.5249676068972389,-5.98398671096345
1.5259643177514202,-6.98398671096345
1.5269610286056015,-6.98398671096345
1.5279577394597825,-6.98398671096345
1.5289544503139638,-6.98398671096345
1.529951161168145,-3.9839867109634497
1.5309478720223262,1.0160132890365503
1.5319445828765075,-1.9839867109634497
1.5329412937306885,2.0160132890365503
1.5339380045848698,1.0160132890365503
1.534934715439051,4.01601328903655
1.5359314262932322,4.01601328903655
1.5369281371474135,7.01601328903655
1.5379248480015946,5.01601328903655
1.5389215588557759,9.01601328903655
1.539918269709957,5.01601328903655
1.5409149805641382,3.0160132890365503
1.5419116914183193,-2.9839867109634497
1.5429084022725006,-1.9839867109634497
1.5439051131266819,-2.9839867109634497
1.544901823980863,-2.9839867109634497
1.5458985348350442,-4.98398671096345
1.5468952456892253,-4.98398671096345
1.5478919565434066,-2.9839867109634497
1.548888667397588,-5.98398671096345
1.549885378251769,-4.98398671096345
1.5508820891059503,-3.9839867109634497
1.5518787999601313,-0.9839867109634497
1.5528755108143126,2.0160132890365503
1.553872221668494,2.0160132890365503
1.554868932522675,5.01601328903655
1.5558656433768563,5.01601328903655
1.5568623542310374,4.01601328903655
1.5578590650852187,5.01601328903655
1.5588557759394,4.01601328903655
1.559852486793581,6.01601328903655
1.5608491976477623,3.0160132890365503
1.5618459085019434,0.016013289036550304
1.5628426193561247,-1.9839867109634497
1.5638393302103057,-0.9839867109634497
1.564836041064487,-2.9839867109634497
1.5658327519186683,-1.9839867109634497
1.5668294627728494,-3.9839867109634497
1.5678261736270307,-4.98398671096345
1.5688228844812118,-8.98398671096345
1.569819595335393,-3.9839867109634497
1.5708163061895744,-1.9839867109634497
1.5718130170437554,2.0160132890365503
1.5728097278979367,1.0160132890365503
1.5738064387521178,3.0160132890365503
1.574803149606299,4.01601328903655
1.5757998604604804,4.01601328903655
1.5767965713146614,8.01601328903655
1.5777932821688427,8.01601328903655
1.5787899930230238,7.01601328903655
1.579786703877205,4.01601328903655
1.5807834147313862,4.01601328903655
1.5817801255855675,-0.9839867109634497
1.5827768364397488,-2.9839867109634497
1.5837735472939298,-1.9839867109634497
1.5847702581481111,-3.9839867109634497
1.5857669690022922,-6.98398671096345
1.5867636798564735,-5.98398671096345
1.5877603907106548,-5.98398671096345
1.5887571015648358,-5.98398671096345
1.5897538124190171,-4.98398671096345
1.5907505232731982,-3.9839867109634497
1.5917472341273795,0.016013289036550304
1.5927439449815608,0.016013289036550304
1.5937406558357419,1.0160132890365503
1.5947373666899232,3.0160132890365503
1.5957340775441042,2.0160132890365503
1.5967307883982855,5.01601328903655
1.5977274992524668,9.01601328903655
1.598724210106648,6.01601328903655
1.5997209209608292,7.01601328903655
1.6007176318150103,4.01601328903655
1.6017143426691915,1.0160132890365503
1.6027110535233726,-1.9839867109634497
1.603707764377554,-4.98398671096345
1.6047044752317352,-4.98398671096345
1.6057011860859163,-5.98398671096345
1.6066978969400976,-7.98398671096345
1.6076946077942786,-6.98398671096345
1.60869131864846,-2.9839867109634497
1.6096880295026412,-2.9839867109634497
1.6106847403568223,-1.9839867109634497
1.6116814512110036,1.0160132890365503
1.6126781620651847,1.0160132890365503
1.613674872919366,3.0160132890365503
1.6146715837735472,4.01601328903655
1.6156682946277283,4.01601328903655
1.6166650054819096,8.01601328903655
1.6176617163360907,6.01601328903655
1.618658427190272,5.01601328903655
1.619655138044453,6.01601328903655
1.6206518488986343,5.01601328903655
1.6216485597528156,2.0160132890365503
1.6226452706069967,-2.9839867109634497
1.623641981461178,-5.98398671096345
1.624638692315359,-4.98398671096345
1.6256354031695404,-4.98398671096345
1.6266321140237217,-4.98398671096345
1.6276288248779027,-1.9839867109634497
1.628625535732084,-5.98398671096345
1.629622246586265,-3.9839867109634497
1.6306189574404464,-1.9839867109634497
1.6316156682946277,2.0160132890365503
1.6326123791488087,1.0160132890365503
1.63360909000299,4.01601328903655
1.634605800857171,3.0160132890365503
1.6356025117113524,1.0160132890365503
1.6365992225655337,4.01601328903655
1.6375959334197148,6.01601328903655
1.638592644273896,6.01601328903655
1.6395893551280771,3.0160132890365503
1.6405860659822584,2.0160132890365503
1.6415827768364395,3.0160132890365503
1.6425794876906208,0.016013289036550304
1.643576198544802,-3.9839867109634497
1.6445729093989832,-4.98398671096345
1.6455696202531644,-6.98398671096345
1.6465663311073455,-6.98398671096345
1.6475630419615268,-7.98398671096345
1.648559752815708,-4.98398671096345
1.6495564636698892,-2.9839867109634497
1.6505531745240705,-0.9839867109634497
1.6515498853782515,0.016013289036550304
1.6525465962324328,3.0160132890365503
1.6535433070866141,1.0160132890365503
1.6545400179407952,4.01601328903655
1.6555367287949765,3.0160132890365503
1.6565334396491576,8.01601328903655
1.6575301505033389,4.01601328903655
1.6585268613575201,4.01601328903655
1.6595235722117012,5.01601328903655
1.6605202830658825,1.0160132890365503
1.6615169939200636,-0.9839867109634497
1.6625137047742449,-0.9839867109634497
1.663510415628426,-3.9839867109634497
1.6645071264826072,-1.9839867109634497
1.6655038373367885,-5.98398671096345
1.6665005481909696,-7.98398671096345
1.667497259045151,-6.98398671096345
1.668493969899332,-3.9839867109634497
1.6694906807535133,-3.9839867109634497
1.6704873916076945,-1.9839867109634497
1.6714841024618756,0.016013289036550304
1.672480813316057,1.0160132890365503
1.673477524170238,2.0160132890365503
1.6744742350244193,4.01601328903655
1.6754709458786006,7.01601328903655
1.6764676567327816,6.01601328903655
1.677464367586963,9.01601328903655
1.678461078441144,2.0160132890365503
1.6794577892953253,5.01601328903655
1.6804545001495064,3.0160132890365503
1.6814512110036877,-1.9839867109634497
1.682447921857869,-7.98398671096345
1.68344463271205,-8.98398671096345
1.6844413435662313,-9.98398671096345
1.6854380544204124,-2.9839867109634497
1.6864347652745937,1.0160132890365503
1.687431476128775,3.0160132890365503
1.688428186982956,1.0160132890365503
1.6894248978371373,2.0160132890365503
1.6904216086913184,0.016013289036550304
1.6914183195454997,-2.9839867109634497
1.692415030399681,0.016013289036550304
1.693411741253862,0.016013289036550304
1.6944084521080434,1.0160132890365503
1.6954051629622244,2.0160132890365503
1.6964018738164057,3.0160132890365503
1.697398584670587,4.01601328903655
1.698395295524768,2.0160132890365503
1.6993920063789494,3.0160132890365503
1.7003887172331305,4.01601328903655
1.7013854280873117,3.0160132890365503
1.7023821389414928,0.016013289036550304
1.703378849795674,-4.98398671096345
1.7043755606498554,-5.98398671096345
1.7053722715040365,-5.98398671096345
1.7063689823582178,-7.98398671096345
1.7073656932123988,-6.98398671096345
1.7083624040665801,-7.98398671096345
1.7093591149207614,-5.98398671096345
1.7103558257749425,1.0160132890365503
1.7113525366291238,-3.9839867109634497
1.7123492474833049,3.0160132890365503
1.7133459583374862,4.01601328903655
1.7143426691916674,4.01601328903655
1.7153393800458485,7.01601328903655
1.7163360909000298,7.01601328903655
1.7173328017542109,5.01601328903655
1.7183295126083922,6.01601328903655
1.7193262234625732,6.01601328903655
1.7203229343167545,4.01601328903655
1.7213196451709358,0.016013289036550304
1.722316356025117,2.0160132890365503
1.7233130668792982,-1.9839867109634497
1.7243097777334793,-6.98398671096345
1.7253064885876606,-6.98398671096345
1.7263031994418419,-6.98398671096345
1.727299910296023,-3.9839867109634497
1.7282966211502042,-6.98398671096345
1.7292933320043853,-1.9839867109634497
1.7302900428585666,-1.9839867109634497
1.7312867537127479,-0.9839867109634497
1.732283464566929,1.0160132890365503
1.7332801754211102,2.0160132890365503
1.7342768862752913,2.0160132890365503
1.7352735971294726,4.01601328903655
1.736270307983654,4.01601328903655
1.737267018837835,5.01601328903655
1.7382637296920163,3.0160132890365503
1.7392604405461973,5.01601328903655
1.7402571514003786,4.01601328903655
1.7412538622545597,2.0160132890365503
1.742250573108741,1.0160132890365503
1.7432472839629223,-0.9839867109634497
1.7442439948171033,-2.9839867109634497
1.7452407056712846,-6.98398671096345
1.7462374165254657,-7.98398671096345
1.747234127379647,-4.98398671096345
1.7482308382338283,-4.98398671096345
1.7492275490880094,-2.9839867109634497
1.7502242599421907,-1.9839867109634497
1.7512209707963717,-1.9839867109634497
1.752217681650553,-1.9839867109634497
1.7532143925047343,4.01601328903655
1.7542111033589154,0.016013289036550304
1.7552078142130967,3.0160132890365503
1.7562045250672778,2.0160132890365503
1.757201235921459,7.01601328903655
1.7581979467756401,4.01601328903655
1.7591946576298214,5.01601328903655
1.7601913684840027,2.0160132890365503
1.7611880793381838,3.0160132890365503
1.762184790192365,0.016013289036550304
1.7631815010465461,-2.9839867109634497
1.7641782119007274,-2.9839867109634497
1.7651749227549087,-3.9839867109634497
1.7661716336090898,-4.98398671096345
1.767168344463271,-3.9839867109634497
1.7681650553174522,-3.9839867109634497
1.7691617661716335,-1.9839867109634497
1.7701584770258147,-3.9839867109634497
1.7711551878799958,-0.9839867109634497
1.7721518987341771,3.0160132890365503
1.7731486095883582,1.0160132890365503
1.7741453204425395,5.01601328903655
1.7751420312967208,5.01601328903655
1.7761387421509018,6.01601328903655
1.7771354530050831,6.01601328903655
1.7781321638592642,4.01601328903655
1.7791288747134455,4.01601328903655
1.7801255855676266,4.01601328903655
1.7811222964218079,1.0160132890365503
1.7821190072759892,-0.9839867109634497
1.7831157181301702,-0.9839867109634497
1.7841124289843515,-3.9839867109634497
1.7851091398385326,-6.98398671096345
1.7861058506927139,-4.98398671096345
1.7871025615468952,-6.98398671096345
1.7880992724010762,-7.98398671096345
1.7890959832552575,-6.98398671096345
1.7900926941094386,-3.9839867109634497
1.79108940496362,0.016013289036550304
1.7920861158178012,4.01601328903655
1.7930828266719823,6.01601328903655
1.7940795375261636,4.01601328903655
1.7950762483803446,4.01601328903655
1.796072959234526,7.01601328903655
1.797069670088707,7.01601328903655
1.7980663809428883,3.0160132890365503
1.7990630917970696,1.0160132890365503
1.8000598026512507,4.01601328903655
1.801056513505432,1.0160132890365503
1.802053224359613,1.0160132890365503
1.8030499352137943,-2.9839867109634497
1.8040466460679756,-1.9839867109634497
1.8050433569221567,-7.98398671096345
1.806040067776338,-7.98398671096345
1.807036778630519,-6.98398671096345
1.8080334894847003,-3.9839867109634497
1.8090302003388816,1.0160132890365503
1.8100269111930627,-1.9839867109634497
1.811023622047244,-0.9839867109634497
1.812020332901425,-0.9839867109634497
1.8130170437556064,2.0160132890365503
1.8140137546097876,6.01601328903655
1.8150104654639687,5.01601328903655
1.81600717631815,6.01601328903655
1.817003887172331,5.01601328903655
1.8180005980265124,3.0160132890365503
1.8189973088806934,5.01601328903655
1.8199940197348747,1.0160132890365503
1.820990730589056,3.0160132890365503
1.821987441443237,1.0160132890365503
1.8229841522974184,-1.9839867109634497
1.8239808631515995,-2.9839867109634497
1.8249775740057808,-3.9839867109634497
1.825974284859962,-7.98398671096345
1.8269709957141431,-7.98398671096345
1.8279677065683244,-6.98398671096345
1.8289644174225055,-4.98398671096345
1.8299611282766868,-2.9839867109634497
1.830957839130868,-2.9839867109634497
1.8319545499850491,2.0160132890365503
1.8329512608392304,4.01601328903655
1.8339479716934115,4.01601328903655
1.8349446825475928,3.0160132890365503
1.8359413934017739,6.01601328903655
1.8369381042559552,8.01601328903655
1.8379348151101365,3.0160132890365503
1.8389315259643175,5.01601328903655
1.8399282368184988,1.0160132890365503
1.84092494767268,2.0160132890365503
1.8419216585268612,1.0160132890365503
1.8429183693810425,-2.9839867109634497
1.8439150802352235,-2.9839867109634497
1.8449117910894048,-4.98398671096345
1.845908501943586,-7.98398671096345
1.8469052127977672,-9.98398671096345
1.8479019236519485,-12.98398671096345
1.8488986345061296,-10.98398671096345
1.8498953453603109,-6.98398671096345
1.850892056214492,3.0160132890365503
1.8518887670686732,12.01601328903655
1.8528854779228545,13.01601328903655
1.8538821887770356,14.01601328903655
1.8548788996312169,9.01601328903655
1.855875610485398,5.01601328903655
1.8568723213395792,5.01601328903655
1.8578690321937603,3.0160132890365503
1.8588657430479416,2.0160132890365503
1.859862453902123,1.0160132890365503
1.860859164756304,-1.9839867109634497
1.8618558756104853,-2.9839867109634497
1.8628525864646663,-2.9839867109634497
1.8638492973188476,-5.98398671096345
1.864846008173029,-9.98398671096345
1.86584271902721,-7.98398671096345
1.8668394298813913,-7.98398671096345
1.8678361407355724,-5.98398671096345
1.8688328515897537,-3.9839867109634497
1.869829562443935,-2.9839867109634497
1.870826273298116,1.0160132890365503
1.8718229841522973,3.0160132890365503
1.8728196950064784,1.0160132890365503
1.8738164058606597,5.01601328903655
1.8748131167148407,5.01601328903655
1.875809827569022,5.01601328903655
1.8768065384232033,6.01601328903655
1.8778032492773844,4.01601328903655
1.8787999601315657,5.01601328903655
1.8797966709857468,4.01601328903655
1.880793381839928,3.0160132890365503
1.8817900926941094,2.0160132890365503
1.8827868035482904,-0.9839867109634497
1.8837835144024717,-2.9839867109634497
1.8847802252566528,-5.98398671096345
1.885776936110834,-5.98398671096345
1.8867736469650154,-7.98398671096345
1.8877703578191964,-4.98398671096345
1.8887670686733777,-5.98398671096345
1.8897637795275588,-3.9839867109634497
1.89076049038174,2.0160132890365503
1.8917572012359214,0.016013289036550304
1.8927539120901025,4.01601328903655
1.8937506229442838,4.01601328903655
1.8947473337984648,3.0160132890365503
1.8957440446526461,5.01601328903655
1.8967407555068272,6.01601328903655
1.8977374663610085,4.01601328903655
1.8987341772151898,4.01601328903655
1.8997308880693708,4.01601328903655
1.9007275989235521,3.0160132890365503
1.9017243097777332,0.016013289036550304
1.9027210206319145,-4.98398671096345
1.9037177314860958,-5.98398671096345
1.9047144423402769,-4.98398671096345
1.9057111531944582,-5.98398671096345
1.9067078640486392,-5.98398671096345
1.9077045749028205,-5.98398671096345
1.9087012857570018,-3.9839867109634497
1.909697996611183,-3.9839867109634497
1.9106947074653642,-0.9839867109634497
1.9116914183195453,3.0160132890365503
1.9126881291737265,3.0160132890365503
1.9136848400279076,5.01601328903655
1.914681550882089,4.01601328903655
1.9156782617362702,6.01601328903655
1.9166749725904513,5.01601328903655
1.9176716834446326,8.01601328903655
1.9186683942988136,6.01601328903655
1.919665105152995,3.0160132890365503
1.9206618160071762,6.01601328903655
1.9216585268613573,0.016013289036550304
1.9226552377155386,-2.9839867109634497
1.9236519485697197,-6.98398671096345
1.924648659423901,-5.98398671096345
1.9256453702780822,-10.98398671096345
1.9266420811322633,-5.98398671096345
1.9276387919864446,-4.98398671096345
1.9286355028406257,-2.9839867109634497
1.929632213694807,0.016013289036550304
1.9306289245489883,0.016013289036550304
1.9316256354031693,0.016013289036550304
1.9326223462573506,2.0160132890365503
1.9336190571115317,4.01601328903655
1.934615767965713,3.0160132890365503
1.935612478819894,4.01601328903655
1.9366091896740754,5.01601328903655
1.9376059005282567,4.01601328903655
1.9386026113824377,7.01601328903655
1.939599322236619,5.01601328903655
1.9405960330908,3.0160132890365503
1.9415927439449814,0.016013289036550304
1.9425894547991627,-3.9839867109634497
1.9435861656533437,-3.9839867109634497
1.944582876507525,-4.98398671096345
1.945579587361706,-6.98398671096345
1.9465762982158874,-4.98398671096345
1.9475730090700687,-5.98398671096345
1.9485697199242498,-2.9839867109634497
1.949566430778431,-2.9839867109634497
1.9505631416326121,-1.9839867109634497
1.9515598524867934,0.016013289036550304
1.9525565633409747,3.0160132890365503
1.9535532741951558,3.0160132890365503
1.954549985049337,4.01601328903655
1.9555466959035182,5.01601328903655
1.9565434067576994,6.01601328903655
1.9575401176118805,6.01601328903655
1.9585368284660618,4.01601328903655
1.959533539320243,3.0160132890365503
1.9605302501744242,2.0160132890365503
1.9615269610286055,1.0160132890365503
1.9625236718827865,-1.9839867109634497
1.9635203827369678,-3.9839867109634497
1.9645170935911491,-4.98398671096345
1.9655138044453302,-6.98398671096345
1.9665105152995115,-7.98398671096345
1.9675072261536926,-4.98398671096345
1.9685039370078738,-2.9839867109634497
1.9695006478620551,1.0160132890365503
1.9704973587162362,-0.9839867109634497
1.9714940695704175,1.0160132890365503
1.9724907804245986,1.0160132890365503
1.9734874912787799,4.01601328903655
1.974484202132961,3.0160132890365503
1.9754809129871422,5.01601328903655
1.9764776238413235,5.01601328903655
1.9774743346955046,5.01601328903655
1.978471045549686,7.01601328903655
1.979467756403867,4.01601328903655
1.9804644672580483,1.0160132890365503
1.9814611781122295,0.016013289036550304
1.9824578889664106,-3.9839867109634497
1.983454599820592,-2.9839867109634497
1.984451310674773,-6.98398671096345
1.9854480215289543,-5.98398671096345
1.9864447323831356,-6.98398671096345
1.9874414432373166,-7.98398671096345
1.988438154091498,-3.9839867109634497
1.989434864945679,-4.98398671096345
1.9904315757998603,3.0160132890365503
1.9914282866540416,6.01601328903655
1.9924249975082227,6.01601328903655
1.993421708362404,9.01601328903655
1.994418419216585,9.01601328903655
1.9954151300707663,7.01601328903655
1.9964118409249474,6.01601328903655
1.9974085517791287,4.01601328903655
1.99840526263331,4.01601328903655
1.999401973487491,1.0160132890365503
2.0003986843416723,0.016013289036550304
2.0013953951958534,-0.9839867109634497
2.0023921060500345,-2.9839867109634497
2.003388816904216,-2.9839867109634497
2.004385527758397,-6.98398671096345
2.005382238612578,-9.98398671096345
2.0063789494667597,-5.98398671096345
2.0073756603209407,-8.98398671096345
2.008372371175122,-6.98398671096345
2.0093690820293033,-2.9839867109634497
2.0103657928834844,-1.9839867109634497
2.0113625037376655,1.0160132890365503
2.0123592145918465,1.0160132890365503
2.013355925446028,2.0160132890365503
2.014352636300209,6.01601328903655
2.01534934715439,8.01601328903655
2.0163460580085717,6.01601328903655
2.0173427688627528,5.01601328903655
2.018339479716934,5.01601328903655
2.0193361905711154,4.01601328903655
2.0203329014252964,-2.9839867109634497
2.0213296122794775,-6.98398671096345
2.0223263231336586,-9.98398671096345
2.02332303398784,-5.98398671096345
2.024319744842021,-0.9839867109634497
2.0253164556962022,4.01601328903655
2.0263131665503837,3.0160132890365503
2.027309877404565,3.0160132890365503
2.028306588258746,-2.9839867109634497
2.029303299112927,-6.98398671096345
2.0303000099671085,-2.9839867109634497
2.0312967208212895,0.016013289036550304
2.0322934316754706,2.0160132890365503
2.033290142529652,5.01601328903655
2.034286853383833,3.0160132890365503
2.0352835642380143,4.01601328903655
2.036280275092196,6.01601328903655
2.037276985946377,6.01601328903655
2.038273696800558,4.01601328903655
2.039270407654739,4.01601328903655
2.0402671185089205,0.016013289036550304
2.0412638293631016,-2.9839867109634497
2.0422605402172826,-3.9839867109634497
2.043257251071464,-3.9839867109634497
2.0442539619256452,-7.98398671096345
2.0452506727798263,-4.98398671096345
2.0462473836340074,-3.9839867109634497
2.047244094488189,-5.98398671096345
2.04824080534237,-2.9839867109634497
2.049237516196551,-2.9839867109634497
2.0502342270507325,0.016013289036550304
2.0512309379049136,0.016013289036550304
2.0522276487590947,4.01601328903655
2.053224359613276,2.0160132890365503
2.0542210704674573,4.01601328903655
2.0552177813216383,5.01601328903655
2.0562144921758194,5.01601328903655
2.057211203030001,8.01601328903655
2.058207913884182,5.01601328903655
2.059204624738363,4.01601328903655
2.0602013355925446,1.0160132890365503
2.0611980464467257,1.0160132890365503
2.0621947573009067,-3.9839867109634497
2.063191468155088,-2.9839867109634497
2.0641881790092693,-6.98398671096345
2.0651848898634504,-7.98398671096345
2.0661816007176315,-6.98398671096345
2.067178311571813,-4.98398671096345
2.068175022425994,-6.98398671096345
2.069171733280175,-2.9839867109634497
2.0701684441343566,0.016013289036550304
2.0711651549885377,0.016013289036550304
2.0721618658427188,1.0160132890365503
2.0731585766969,4.01601328903655
2.0741552875510814,6.01601328903655
2.0751519984052624,9.01601328903655
2.0761487092594435,10.01601328903655
2.077145420113625,4.01601328903655
2.078142130967806,1.0160132890365503
2.079138841821987,2.0160132890365503
2.0801355526761687,1.0160132890365503
2.0811322635303497,-0.9839867109634497
2.082128974384531,0.016013289036550304
2.083125685238712,-4.98398671096345
2.0841223960928934,-5.98398671096345
2.0851191069470745,-5.98398671096345
2.0861158178012555,-5.98398671096345
2.087112528655437,-5.98398671096345
2.088109239509618,-3.9839867109634497
2.089105950363799,-5.98398671096345
2.0901026612179803,-1.9839867109634497
2.091099372072162,1.0160132890365503
2.092096082926343,2.0160132890365503
2.093092793780524,3.0160132890365503
2.0940895046347054,4.01601328903655
2.0950862154888865,5.01601328903655
2.0960829263430676,9.01601328903655
2.097079637197249,4.01601328903655
2.09807634805143,3.0160132890365503
2.0990730589056112,4.01601328903655
2.1000697697597923,3.0160132890365503
2.101066480613974,2.0160132890365503
2.102063191468155,-2.9839867109634497
2.103059902322336,-3.9839867109634497
2.1040566131765175,-6.98398671096345
2.1050533240306986,-7.98398671096345
2.1060500348848796,-9.98398671096345
2.1070467457390607,-6.98398671096345
2.108043456593242,-2.9839867109634497
2.1090401674474233,0.016013289036550304
2.1100368783016044,0.016013289036550304
2.111033589155786,4.01601328903655
2.112030300009967,8.01601328903655
2.113027010864148,8.01601328903655
2.1140237217183295,3.0160132890365503
2.1150204325725106,4.01601328903655
2.1160171434266917,6.01601328903655
2.1170138542808727,4.01601328903655
2.1180105651350543,7.01601328903655
2.1190072759892353,2.0160132890365503
2.1200039868434164,-0.9839867109634497
2.121000697697598,0.016013289036550304
2.121997408551779,-2.9839867109634497
2.12299411940596,-6.98398671096345
2.123990830260141,-4.98398671096345
2.1249875411143226,-3.9839867109634497
2.1259842519685037,-6.98398671096345
2.126980962822685,-6.98398671096345
2.1279776736768663,-2.9839867109634497
2.1289743845310474,-3.9839867109634497
2.1299710953852284,-2.9839867109634497
2.13096780623941,2.0160132890365503
2.131964517093591,2.0160132890365503
2.132961227947772,5.01601328903655
2.133957938801953,6.01601328903655
2.1349546496561347,4.01601328903655
2.1359513605103158,5.01601328903655
2.136948071364497,4.01601328903655
2.1379447822186783,4.01601328903655
2.1389414930728594,2.0160132890365503
2.1399382039270405,2.0160132890365503
2.1409349147812216,-0.9839867109634497
2.141931625635403,-6.98398671096345
2.142928336489584,-4.98398671096345
2.143925047343765,-6.98398671096345
2.1449217581979467,-4.98398671096345
2.145918469052128,-6.98398671096345
2.146915179906309,-6.98398671096345
2.1479118907604904,-6.98398671096345
2.1489086016146715,-2.9839867109634497
2.1499053124688525,0.016013289036550304
2.1509020233230336,1.0160132890365503
2.151898734177215,3.0160132890365503
2.152895445031396,5.01601328903655
2.1538921558855773,4.01601328903655
2.1548888667397588,7.01601328903655
2.15588557759394,5.01601328903655
2.156882288448121,4.01601328903655
2.1578789993023024,5.01601328903655
2.1588757101564835,3.0160132890365503
2.1598724210106646,0.016013289036550304
2.1608691318648456,0.016013289036550304
2.161865842719027,-2.9839867109634497
2.1628625535732082,-2.9839867109634497
2.1638592644273893,-3.9839867109634497
2.164855975281571,-5.98398671096345
2.165852686135752,-4.98398671096345
2.166849396989933,-7.98398671096345
2.167846107844114,-2.9839867109634497
2.1688428186982955,-2.9839867109634497
2.1698395295524766,1.0160132890365503
2.1708362404066577,1.0160132890365503
2.171832951260839,3.0160132890365503
2.1728296621150203,3.0160132890365503
2.1738263729692013,4.01601328903655
2.174823083823383,5.01601328903655
2.175819794677564,5.01601328903655
2.176816505531745,5.01601328903655
2.177813216385926,5.01601328903655
2.1788099272401076,3.0160132890365503
2.1798066380942887,2.0160132890365503
2.1808033489484697,-2.9839867109634497
2.1818000598026512,-3.9839867109634497
2.1827967706568323,-3.9839867109634497
2.1837934815110134,-7.98398671096345
2.1847901923651945,-9.98398671096345
2.185786903219376,-7.98398671096345
2.186783614073557,-6.98398671096345
2.187780324927738,-2.9839867109634497
2.1887770357819196,1.0160132890365503
2.1897737466361007,3.0160132890365503
2.1907704574902818,4.01601328903655
2.1917671683444633,3.0160132890365503
2.1927638791986444,3.0160132890365503
2.1937605900528254,3.0160132890365503
2.1947573009070065,6.01601328903655
2.195754011761188,8.01601328903655
2.196750722615369,4.01601328903655
2.19774743346955,1.0160132890365503
2.1987441443237317,0.016013289036550304
2.1997408551779127,1.0160132890365503
2.200737566032094,-1.9839867109634497
2.201734276886275,-3.9839867109634497
2.2027309877404564,-4.98398671096345
2.2037276985946375,-6.98398671096345
2.2047244094488185,-3.9839867109634497
2.205721120303,-7.98398671096345
2.206717831157181,-4.98398671096345
2.207714542011362,-3.9839867109634497
2.2087112528655437,-1.9839867109634497
2.2097079637197248,-1.9839867109634497
2.210704674573906,1.0160132890365503
2.211701385428087,1.0160132890365503
2.2126980962822684,4.01601328903655
2.2136948071364495,5.01601328903655
2.2146915179906306,6.01601328903655
2.215688228844812,7.01601328903655
2.216684939698993,5.01601328903655
2.2176816505531742,7.01601328903655
2.2186783614073553,4.01601328903655
2.219675072261537,2.0160132890365503
2.220671783115718,1.0160132890365503
2.221668493969899,-3.9839867109634497
2.2226652048240805,-3.9839867109634497
2.2236619156782615,-5.98398671096345
2.2246586265324426,-4.98398671096345
2.225655337386624,-7.98398671096345
2.226652048240805,-5.98398671096345
2.2276487590949863,-4.98398671096345
2.2286454699491673,-3.9839867109634497
2.229642180803349,0.016013289036550304
2.23063889165753,0.016013289036550304
2.231635602511711,4.01601328903655
2.2326323133658925,4.01601328903655
2.2336290242200736,6.01601328903655
2.2346257350742547,4.01601328903655
2.235622445928436,4.01601328903655
2.2366191567826172,7.01601328903655
2.2376158676367983,5.01601328903655
2.2386125784909794,3.0160132890365503
2.239609289345161,1.0160132890365503
2.240606000199342,-0.9839867109634497
2.241602711053523,-1.9839867109634497
2.2425994219077046,-2.9839867109634497
2.2435961327618856,-4.98398671096345
2.2445928436160667,-6.98398671096345
2.2455895544702478,-7.98398671096345
2.2465862653244293,-6.98398671096345
2.2475829761786104,-6.98398671096345
2.2485796870327914,-0.9839867109634497
2.249576397886973,1.0160132890365503
2.250573108741154,4.01601328903655
2.251569819595335,4.01601328903655
2.2525665304495166,4.01601328903655
2.2535632413036977,5.01601328903655
2.2545599521578787,6.01601328903655
2.25555666301206,5.01601328903655
2.2565533738662413,3.0160132890365503
2.2575500847204224,3.0160132890365503
2.2585467955746035,3.0160132890365503
2.259543506428785,1.0160132890365503
2.260540217282966,1.0160132890365503
2.261536928137147,-3.9839867109634497
2.262533638991328,-2.9839867109634497
2.2635303498455097,-3.9839867109634497
2.264527060699691,-6.98398671096345
2.265523771553872,-7.98398671096345
2.2665204824080534,-10.98398671096345
2.2675171932622344,-3.9839867109634497
2.2685139041164155,-2.9839867109634497
2.269510614970597,-1.9839867109634497
2.270507325824778,1.0160132890365503
2.271504036678959,5.01601328903655
2.2725007475331402,4.01601328903655
2.2734974583873218,5.01601328903655
2.274494169241503,7.01601328903655
2.275490880095684,8.01601328903655
2.2764875909498654,8.01601328903655
2.2774843018040465,6.01601328903655
2.2784810126582276,4.01601328903655
2.2794777235124086,1.0160132890365503
2.28047443436659,1.0160132890365503
2.281471145220771,-1.9839867109634497
2.2824678560749523,-2.9839867109634497
2.283464566929134,-3.9839867109634497
2.284461277783315,-7.98398671096345
2.285457988637496,-7.98398671096345
2.2864546994916775,-5.98398671096345
2.2874514103458585,-1.9839867109634497
2.2884481212000396,-5.98398671096345
2.2894448320542207,-3.9839867109634497
2.290441542908402,3.0160132890365503
2.2914382537625833,3.0160132890365503
2.2924349646167643,4.01601328903655
2.293431675470946,5.01601328903655
2.294428386325127,7.01601328903655
2.295425097179308,8.01601328903655
2.2964218080334895,7.01601328903655
2.2974185188876706,5.01601328903655
2.2984152297418516,0.016013289036550304
2.2994119405960327,1.0160132890365503
2.3004086514502142,3.0160132890365503
2.3014053623043953,-2.9839867109634497
2.3024020731585764,-2.9839867109634497
2.303398784012758,-3.9839867109634497
2.304395494866939,-4.98398671096345
2.30539220572112,-3.9839867109634497
2.306388916575301,-5.98398671096345
2.3073856274294826,-8.98398671096345
2.3083823382836637,-9.98398671096345
2.3093790491378448,-7.98398671096345
2.3103757599920263,-2.9839867109634497
2.3113724708462073,3.0160132890365503
2.3123691817003884,12.01601328903655
2.31336589255457,14.01601328903655
2.314362603408751,16.01601328903655
2.315359314262932,9.01601328903655
2.316356025117113,4.01601328903655
2.3173527359712947,1.0160132890365503
2.3183494468254757,-1.9839867109634497
2.319346157679657,-0.9839867109634497
2.3203428685338383,-2.9839867109634497
2.3213395793880194,-4.98398671096345
2.3223362902422005,-3.9839867109634497
2.3233330010963815,-3.9839867109634497
2.324329711950563,-4.98398671096345
2.325326422804744,-6.98398671096345
2.326323133658925,-8.98398671096345
2.3273198445131067,-5.98398671096345
2.3283165553672878,-1.9839867109634497
2.329313266221469,0.016013289036550304
2.3303099770756504,2.0160132890365503
2.3313066879298314,5.01601328903655
2.3323033987840125,3.0160132890365503
2.3333001096381936,5.01601328903655
2.334296820492375,7.01601328903655
2.335293531346556,8.01601328903655
2.336290242200737,8.01601328903655
2.3372869530549187,5.01601328903655
2.3382836639091,2.0160132890365503
2.339280374763281,2.0160132890365503
2.340277085617462,-1.9839867109634497
2.3412737964716435,-1.9839867109634497
2.3422705073258245,-2.9839867109634497
2.3432672181800056,-3.9839867109634497
2.344263929034187,-9.98398671096345
2.345260639888368,-7.98398671096345
2.3462573507425493,-4.98398671096345
2.347254061596731,-5.98398671096345
2.348250772450912,-2.9839867109634497
2.349247483305093,-0.9839867109634497
2.350244194159274,1.0160132890365503
2.3512409050134555,3.0160132890365503
2.3522376158676366,3.0160132890365503
2.3532343267218176,8.01601328903655
2.354231037575999,5.01601328903655
2.3552277484301802,2.0160132890365503
2.3562244592843613,4.01601328903655
2.3572211701385424,4.01601328903655
2.358217880992724,1.0160132890365503
2.359214591846905,2.0160132890365503
2.360211302701086,2.0160132890365503
2.3612080135552675,-2.9839867109634497
2.3622047244094486,0.016013289036550304
2.3632014352636297,-6.98398671096345
2.364198146117811,-6.98398671096345
2.3651948569719923,-4.98398671096345
2.3661915678261733,-7.98398671096345
2.3671882786803544,-4.98398671096345
2.368184989534536,-1.9839867109634497
2.369181700388717,-1.9839867109634497
2.370178411242898,0.016013289036550304
2.3711751220970796,2.0160132890365503
2.3721718329512607,7.01601328903655
2.3731685438054417,7.01601328903655
2.3741652546596232,6.01601328903655
2.3751619655138043,10.01601328903655
2.3761586763679854,5.01601328903655
2.3771553872221665,5.01601328903655
2.378152098076348,2.0160132890365503
2.379148808930529,0.016013289036550304
2.38014551978471,-2.9839867109634497
2.3811422306388916,-3.9839867109634497
2.3821389414930727,-6.98398671096345
2.3831356523472538,-6.98398671096345
2.384132363201435,-4.98398671096345
2.3851290740556164,-4.98398671096345
2.3861257849097974,-5.98398671096345
2.3871224957639785,-3.9839867109634497
2.38811920661816,-0.9839867109634497
2.389115917472341,-0.9839867109634497
2.390112628326522,1.0160132890365503
2.3911093391807037,4.01601328903655
2.3921060500348847,5.01601328903655
2.393102760889066,5.01601328903655
2.394099471743247,5.01601328903655
2.3950961825974284,4.01601328903655
2.3960928934516095,4.01601328903655
2.3970896043057905,6.01601328903655
2.398086315159972,6.01601328903655
2.399083026014153,1.0160132890365503
2.400079736868334,0.016013289036550304
2.4010764477225153,-1.9839867109634497
2.402073158576697,-2.9839867109634497
2.403069869430878,-6.98398671096345
2.404066580285059,-9.98398671096345
2.4050632911392404,-3.9839867109634497
2.4060600019934215,-5.98398671096345
2.4070567128476026,-5.98398671096345
2.408053423701784,-1.9839867109634497
2.409050134555965,-0.9839867109634497
2.4100468454101462,3.0160132890365503
2.4110435562643273,3.0160132890365503
2.412040267118509,3.0160132890365503
2.41303697797269,5.01601328903655
2.414033688826871,6.01601328903655
2.4150303996810525,6.01601328903655
2.4160271105352336,5.01601328903655
2.4170238213894146,6.01601328903655
2.4180205322435957,2.0160132890365503
2.419017243097777,2.0160132890365503
2.4200139539519583,-2.9839867109634497
2.4210106648061394,-2.9839867109634497
2.422007375660321,-4.98398671096345
2.423004086514502,-4.98398671096345
2.424000797368683,-7.98398671096345
2.4249975082228645,-6.98398671096345
2.4259942190770456,-5.98398671096345
2.4269909299312267,-2.9839867109634497
2.4279876407854077,1.0160132890365503
2.4289843516395893,0.016013289036550304
2.4299810624937703,2.0160132890365503
2.4309777733479514,2.0160132890365503
2.431974484202133,2.0160132890365503
2.432971195056314,2.0160132890365503
2.433967905910495,5.01601328903655
2.434964616764676,9.01601328903655
2.4359613276188576,8.01601328903655
2.4369580384730387,6.01601328903655
2.43795474932722,4.01601328903655
2.4389514601814013,0.016013289036550304
2.4399481710355824,-0.9839867109634497
2.4409448818897634,-2.9839867109634497
2.441941592743945,-4.98398671096345
2.442938303598126,-5.98398671096345
2.443935014452307,-5.98398671096345
2.444931725306488,-5.98398671096345
2.4459284361606697,-3.9839867109634497
2.4469251470148508,-3.9839867109634497
2.447921857869032,-3.9839867109634497
2.4489185687232133,-2.9839867109634497
2.4499152795773944,1.0160132890365503
2.4509119904315755,1.0160132890365503
2.451908701285757,4.01601328903655
2.452905412139938,5.01601328903655
2.453902122994119,6.01601328903655
2.4548988338483,6.01601328903655
2.4558955447024817,6.01601328903655
2.456892255556663,5.01601328903655
2.457888966410844,4.01601328903655
2.4588856772650254,2.0160132890365503
2.4598823881192065,1.0160132890365503
2.4608790989733875,1.0160132890365503
2.4618758098275686,-1.9839867109634497
2.46287252068175,-1.9839867109634497
2.463869231535931,-8.98398671096345
2.4648659423901123,-7.98398671096345
2.4658626532442938,-5.98398671096345
2.466859364098475,-2.9839867109634497
2.467856074952656,-2.9839867109634497
2.4688527858068374,-2.9839867109634497
2.4698494966610185,1.0160132890365503
2.4708462075151996,3.0160132890365503
2.4718429183693806,1.0160132890365503
2.472839629223562,6.01601328903655
2.4738363400777432,8.01601328903655
2.4748330509319243,7.01601328903655
2.475829761786106,4.01601328903655
2.476826472640287,6.01601328903655
2.477823183494468,0.016013289036550304
2.478819894348649,-0.9839867109634497
2.4798166052028305,3.0160132890365503
2.4808133160570116,-0.9839867109634497
2.4818100269111927,-3.9839867109634497
2.482806737765374,-8.98398671096345
2.4838034486195553,-6.98398671096345
2.4848001594737363,-7.98398671096345
2.485796870327918,-6.98398671096345
2.486793581182099,-2.9839867109634497
2.48779029203628,1.0160132890365503
2.488787002890461,0.016013289036550304
2.4897837137446426,1.0160132890365503
2.4907804245988237,3.0160132890365503
2.4917771354530047,2.0160132890365503
2.4927738463071862,4.01601328903655
2.4937705571613673,5.01601328903655
2.4947672680155484,5.01601328903655
2.4957639788697294,5.01601328903655
2.496760689723911,3.0160132890365503
2.497757400578092,3.0160132890365503
2.498754111432273,1.0160132890365503
2.4997508222864546,3.0160132890365503
2.5007475331406357,-3.9839867109634497
2.5017442439948168,-4.98398671096345
2.5027409548489983,-5.98398671096345
2.5037376657031793,-7.98398671096345
2.5047343765573604,-6.98398671096345
2.5057310874115415,-6.98398671096345
2.506727798265723,-3.9839867109634497
2.507724509119904,1.0160132890365503
2.508721219974085,1.0160132890365503
2.5097179308282667,4.01601328903655
2.5107146416824477,5.01601328903655
2.511711352536629,4.01601328903655
2.51270806339081,3.0160132890365503
2.5137047742449914,4.01601328903655
2.5147014850991725,5.01601328903655
2.5156981959533535,6.01601328903655
2.516694906807535,6.01601328903655
2.517691617661716,2.0160132890365503
2.518688328515897,0.016013289036550304
2.5196850393700787,1.0160132890365503
2.5206817502242598,-2.9839867109634497
2.521678461078441,-3.9839867109634497
2.522675171932622,-6.98398671096345
2.5236718827868034,-7.98398671096345
2.5246685936409845,-5.98398671096345
2.5256653044951656,-4.98398671096345
2.526662015349347,-2.9839867109634497
2.527658726203528,0.016013289036550304
2.5286554370577092,-1.9839867109634497
2.5296521479118907,1.0160132890365503
2.530648858766072,4.01601328903655
2.531645569620253,6.01601328903655
2.532642280474434,2.0160132890365503
2.5336389913286155,6.01601328903655
2.5346357021827965,6.01601328903655
2.5356324130369776,6.01601328903655
2.536629123891159,4.01601328903655
2.53762583474534,0.016013289036550304
2.5386225455995213,1.0160132890365503
2.5396192564537023,-0.9839867109634497
2.540615967307884,-2.9839867109634497
2.541612678162065,-3.9839867109634497
2.542609389016246,-5.98398671096345
2.5436060998704275,-6.98398671096345
2.5446028107246086,-3.9839867109634497
2.5455995215787897,-3.9839867109634497
2.546596232432971,-4.98398671096345
2.5475929432871522,-2.9839867109634497
2.5485896541413333,-0.9839867109634497
2.5495863649955144,1.0160132890365503
2.550583075849696,1.0160132890365503
2.551579786703877,3.0160132890365503
2.552576497558058,5.01601328903655
2.5535732084122396,7.01601328903655
2.5545699192664206,10.01601328903655
2.5555666301206017,6.01601328903655
2.5565633409747828,5.01601328903655
2.5575600518289643,3.0160132890365503
2.5585567626831454,1.0160132890365503
2.5595534735373264,0.016013289036550304
2.560550184391508,-6.98398671096345
2.561546895245689,-3.9839867109634497
2.56254360609987,-5.98398671096345
2.5635403169540516,-8.98398671096345
2.5645370278082327,-6.98398671096345
2.5655337386624137,-4.98398671096345
2.566530449516595,-3.9839867109634497
2.5675271603707763,-1.9839867109634497
2.5685238712249574,1.0160132890365503
2.5695205820791385,1.0160132890365503
2.57051729293332,4.01601328903655
2.571514003787501,2.0160132890365503
2.572510714641682,5.01601328903655
2.573507425495863,6.01601328903655
2.5745041363500447,6.01601328903655
2.575500847204226,2.0160132890365503
2.576497558058407,3.0160132890365503
2.5774942689125884,3.0160132890365503
2.5784909797667694,2.0160132890365503
2.5794876906209505,1.0160132890365503
2.580484401475132,-1.9839867109634497
2.581481112329313,-3.9839867109634497
2.582477823183494,-5.98398671096345
2.5834745340376752,-9.98398671096345
2.5844712448918568,-7.98398671096345
2.585467955746038,-4.98398671096345
2.586464666600219,-3.9839867109634497
2.5874613774544004,-3.9839867109634497
2.5884580883085815,-2.9839867109634497
2.5894547991627626,4.01601328903655
2.590451510016944,4.01601328903655
2.591448220871125,5.01601328903655
2.592444931725306,6.01601328903655
2.5934416425794873,5.01601328903655
2.594438353433669,5.01601328903655
2.59543506428785,6.01601328903655
2.596431775142031,4.01601328903655
2.5974284859962125,5.01601328903655
2.5984251968503935,4.01601328903655
2.5994219077045746,3.0160132890365503
2.6004186185587557,-4.98398671096345
2.601415329412937,-4.98398671096345
2.6024120402671183,-6.98398671096345
2.6034087511212993,-6.98398671096345
2.604405461975481,-6.98398671096345
2.605402172829662,-5.98398671096345
2.606398883683843,-5.98398671096345
2.6073955945380245,-4.98398671096345
2.6083923053922056,0.016013289036550304
2.6093890162463866,2.0160132890365503
2.6103857271005677,3.0160132890365503
2.6113824379547492,4.01601328903655
2.6123791488089303,5.01601328903655
2.6133758596631114,5.01601328903655
2.614372570517293,2.0160132890365503
2.615369281371474,2.0160132890365503
2.616365992225655,8.01601328903655
2.617362703079836,7.01601328903655
2.6183594139340176,5.01601328903655
2.6193561247881987,6.01601328903655
2.6203528356423798,-1.9839867109634497
2.6213495464965613,-4.98398671096345
2.6223462573507423,-7.98398671096345
2.6233429682049234,-7.98398671096345
2.624339679059105,-4.98398671096345
2.625336389913286,-5.98398671096345
2.626333100767467,-5.98398671096345
2.627329811621648,-3.9839867109634497
2.6283265224758297,0.016013289036550304
2.6293232333300107,4.01601328903655
2.630319944184192,4.01601328903655
2.6313166550383733,4.01601328903655
2.6323133658925544,5.01601328903655
2.6333100767467355,4.01601328903655
2.6343067876009165,6.01601328903655
2.635303498455098,5.01601328903655
2.636300209309279,8.01601328903655
2.63729692016346,3.0160132890365503
2.6382936310176417,-3.9839867109634497
2.6392903418718228,-5.98398671096345
2.640287052726004,-9.98398671096345
2.6412837635801854,-4.98398671096345
2.6422804744343664,0.016013289036550304
2.6432771852885475,1.0160132890365503
2.6442738961427286,3.0160132890365503
2.64527060699691,3.0160132890365503
2.646267317851091,-2.9839867109634497
2.647264028705272,-4.98398671096345
2.6482607395594537,-4.98398671096345
2.649257450413635,-0.9839867109634497
2.650254161267816,4.01601328903655
2.651250872121997,4.01601328903655
2.6522475829761785,4.01601328903655
2.6532442938303595,4.01601328903655
2.6542410046845406,6.01601328903655
2.655237715538722,4.01601328903655
2.656234426392903,5.01601328903655
2.6572311372470843,-1.9839867109634497
2.6582278481012658,-0.9839867109634497
2.659224558955447,-2.9839867109634497
2.660221269809628,0.016013289036550304
2.661217980663809,-2.9839867109634497
2.6622146915179905,-3.9839867109634497
2.6632114023721716,-5.98398671096345
2.6642081132263526,-7.98398671096345
2.665204824080534,-6.98398671096345
2.6662015349347152,-2.9839867109634497
2.6671982457888963,-2.9839867109634497
2.668194956643078,0.016013289036550304
2.669191667497259,4.01601328903655
2.67018837835144,4.01601328903655
2.671185089205621,3.0160132890365503
2.6721818000598025,3.0160132890365503
2.6731785109139836,4.01601328903655
2.6741752217681647,6.01601328903655
2.675171932622346,7.01601328903655
2.6761686434765273,5.01601328903655
2.6771653543307083,2.0160132890365503
2.6781620651848894,0.016013289036550304
2.679158776039071,0.016013289036550304
2.680155486893252,-2.9839867109634497
2.681152197747433,-1.9839867109634497
2.6821489086016146,-6.98398671096345
2.6831456194557957,-6.98398671096345
2.6841423303099767,-3.9839867109634497
2.6851390411641582,-5.98398671096345
2.6861357520183393,-3.9839867109634497
2.6871324628725204,0.016013289036550304
2.6881291737267015,-1.9839867109634497
2.689125884580883,1.0160132890365503
2.690122595435064,4.01601328903655
2.691119306289245,4.01601328903655
2.6921160171434266,5.01601328903655
2.6931127279976077,4.01601328903655
2.6941094388517888,6.01601328903655
2.69510614970597,3.0160132890365503
2.6961028605601514,3.0160132890365503
2.6970995714143324,4.01601328903655
2.6980962822685135,1.0160132890365503
2.699092993122695,-0.9839867109634497
2.700089703976876,-3.9839867109634497
2.701086414831057,-2.9839867109634497
2.7020831256852387,-3.9839867109634497
2.7030798365394197,-6.98398671096345
2.704076547393601,-5.98398671096345
2.705073258247782,-4.98398671096345
2.7060699691019634,-2.9839867109634497
2.7070666799561445,-1.9839867109634497
2.7080633908103255,-0.9839867109634497
2.709060101664507,1.0160132890365503
2.710056812518688,5.01601328903655
2.711053523372869,4.01601328903655
2.7120502342270503,1.0160132890365503
2.713046945081232,6.01601328903655
2.714043655935413,7.01601328903655
2.715040366789594,4.01601328903655
2.7160370776437754,7.01601328903655
2.7170337884979565,3.0160132890365503
2.7180304993521376,-0.9839867109634497
2.719027210206319,-1.9839867109634497
2.7200239210605,-3.9839867109634497
2.7210206319146812,-2.9839867109634497
2.7220173427688623,-6.98398671096345
2.723014053623044,-9.98398671096345
2.724010764477225,-4.98398671096345
2.725007475331406,-5.98398671096345
2.7260041861855875,-5.98398671096345
2.7270008970397686,-2.9839867109634497
2.7279976078939496,-1.9839867109634497
2.7289943187481307,1.0160132890365503
2.729991029602312,4.01601328903655
2.7309877404564933,5.01601328903655
2.7319844513106744,5.01601328903655
2.732981162164856,6.01601328903655
2.733977873019037,7.01601328903655
2.734974583873218,6.01601328903655
2.7359712947273995,7.01601328903655
2.7369680055815806,5.01601328903655
2.7379647164357617,0.016013289036550304
2.7389614272899427,-1.9839867109634497
2.7399581381441243,-5.98398671096345
2.7409548489983053,-5.98398671096345
2.7419515598524864,-9.98398671096345
2.742948270706668,-4.98398671096345
2.743944981560849,-5.98398671096345
2.74494169241503,-4.98398671096345
2.7459384032692116,-3.9839867109634497
2.7469351141233926,-4.98398671096345
2.7479318249775737,-1.9839867109634497
2.748928535831755,3.0160132890365503
2.7499252466859363,1.0160132890365503
2.7509219575401174,2.0160132890365503
2.7519186683942984,6.01601328903655
2.75291537924848,8.01601328903655
2.753912090102661,10.01601328903655
2.754908800956842,3.0160132890365503
2.755905511811023,4.01601328903655
2.7569022226652047,6.01601328903655
2.7578989335193858,1.0160132890365503
2.758895644373567,1.0160132890365503
2.7598923552277483,-2.9839867109634497
2.7608890660819294,-4.98398671096345
2.7618857769361105,-6.98398671096345
2.762882487790292,-7.98398671096345
2.763879198644473,-8.98398671096345
2.764875909498654,-9.98398671096345
2.765872620352835,-3.9839867109634497
2.7668693312070167,-0.9839867109634497
2.767866042061198,1.0160132890365503
2.768862752915379,4.01601328903655
2.7698594637695604,7.01601328903655
2.7708561746237415,4.01601328903655
2.7718528854779225,4.01601328903655
2.7728495963321036,4.01601328903655
2.773846307186285,7.01601328903655
2.774843018040466,4.01601328903655
2.7758397288946473,6.01601328903655
2.7768364397488288,3.0160132890365503
2.77783315060301,3.0160132890365503
2.778829861457191,1.0160132890365503
2.7798265723113724,-2.9839867109634497
2.7808232831655535,-3.9839867109634497
2.7818199940197346,-9.98398671096345
2.7828167048739156,-10.98398671096345
2.783813415728097,-9.98398671096345
2.7848101265822782,-4.98398671096345
2.7858068374364593,-4.98398671096345
2.786803548290641,-4.98398671096345
2.787800259144822,-1.9839867109634497
2.788796969999003,0.016013289036550304
2.789793680853184,3.0160132890365503
2.7907903917073655,4.01601328903655
2.7917871025615466,5.01601328903655
2.7927838134157277,6.01601328903655
2.793780524269909,8.01601328903655
2.7947772351240903,4.01601328903655
2.7957739459782713,7.01601328903655
2.796770656832453,5.01601328903655
2.797767367686634,0.016013289036550304
2.798764078540815,0.016013289036550304
2.799760789394996,-4.98398671096345
2.8007575002491776,-4.98398671096345
2.8017542111033586,-5.98398671096345
2.8027509219575397,-3.9839867109634497
2.8037476328117212,-5.98398671096345
2.8047443436659023,-3.9839867109634497
2.8057410545200834,-2.9839867109634497
2.8067377653742644,-4.98398671096345
2.807734476228446,0.016013289036550304
2.808731187082627,1.0160132890365503
2.809727897936808,4.01601328903655
2.8107246087909896,5.01601328903655
2.8117213196451707,5.01601328903655
2.8127180304993518,6.01601328903655
2.8137147413535333,6.01601328903655
2.8147114522077143,3.0160132890365503
2.8157081630618954,3.0160132890365503
2.8167048739160765,1.0160132890365503
2.817701584770258,0.016013289036550304
2.818698295624439,0.016013289036550304
2.81969500647862,-1.9839867109634497
2.8206917173328017,-4.98398671096345
2.8216884281869827,-2.9839867109634497
2.822685139041164,-5.98398671096345
2.8236818498953453,-6.98398671096345
2.8246785607495264,-2.9839867109634497
2.8256752716037075,-2.9839867109634497
2.8266719824578885,-1.9839867109634497
2.82766869331207,0.016013289036550304
2.828665404166251,-0.9839867109634497
2.829662115020432,1.0160132890365503
2.8306588258746137,5.01601328903655
2.8316555367287948,2.0160132890365503
2.832652247582976,4.01601328903655
2.833648958437157,6.01601328903655
2.8346456692913384,6.01601328903655
2.8356423801455195,5.01601328903655
2.8366390909997006,4.01601328903655
2.837635801853882,2.0160132890365503
2.838632512708063,0.016013289036550304
2.8396292235622442,-4.98398671096345
2.8406259344164257,-4.98398671096345
2.841622645270607,-5.98398671096345
2.842619356124788,-4.98398671096345
2.843616066978969,-4.98398671096345
2.8446127778331505,-6.98398671096345
2.8456094886873315,-6.98398671096345
2.8466061995415126,1.0160132890365503
2.847602910395694,-1.9839867109634497
2.848599621249875,2.0160132890365503
2.8495963321040563,4.01601328903655
2.8505930429582373,4.01601328903655
2.851589753812419,3.0160132890365503
2.8525864646666,8.01601328903655
2.853583175520781,7.01601328903655
2.8545798863749625,3.0160132890365503
2.8555765972291436,4.01601328903655
2.8565733080833247,4.01601328903655
2.857570018937506,1.0160132890365503
2.8585667297916872,1.0160132890365503
2.8595634406458683,-3.9839867109634497
2.8605601515000494,-4.98398671096345
2.861556862354231,-6.98398671096345
2.862553573208412,-6.98398671096345
2.863550284062593,-5.98398671096345
2.8645469949167746,-8.98398671096345
2.8655437057709556,-4.98398671096345
2.8665404166251367,-2.9839867109634497
2.8675371274793178,1.0160132890365503
2.8685338383334993,3.0160132890365503
2.8695305491876804,1.0160132890365503
2.8705272600418614,5.01601328903655
2.871523970896043,5.01601328903655
2.872520681750224,5.01601328903655
2.873517392604405,5.01601328903655
2.8745141034585866,3.0160132890365503
2.8755108143127677,5.01601328903655
2.8765075251669487,2.0160132890365503
2.87750423602113,0.016013289036550304
2.8785009468753113,-2.9839867109634497
2.8794976577294924,-5.98398671096345
2.8804943685836735,-4.98398671096345
2.881491079437855,-7.98398671096345
2.882487790292036,-13.98398671096345
2.883484501146217,-8.98398671096345
2.8844812120003986,-7.98398671096345
2.8854779228545797,-8.98398671096345
2.886474633708761,-7.98398671096345
2.887471344562942,0.016013289036550304
2.8884680554171234,6.01601328903655
2.8894647662713044,15.01601328903655
2.8904614771254855,23.01601328903655
2.891458187979667,21.01601328903655
2.892454898833848,13.01601328903655
2.893451609688029,8.01601328903655
2.8944483205422102,1.0160132890365503
2.8954450313963918,-2.9839867109634497
2.896441742250573,-2.9839867109634497
2.897438453104754,-3.9839867109634497
2.8984351639589354,-3.9839867109634497
2.8994318748131165,-7.98398671096345
2.9004285856672976,-10.98398671096345
2.901425296521479,-10.98398671096345
2.90242200737566,-15.98398671096345
2.903418718229841,-12.98398671096345
2.9044154290840223,3.0160132890365503
2.905412139938204,12.01601328903655
2.906408850792385,19.01601328903655
2.907405561646566,14.01601328903655
2.9084022725007475,12.01601328903655
2.9093989833549285,4.01601328903655
2.9103956942091096,1.0160132890365503
2.9113924050632907,0.016013289036550304
2.912389115917472,5.01601328903655
2.9133858267716533,3.0160132890365503
2.9143825376258343,5.01601328903655
2.915379248480016,3.0160132890365503
2.916375959334197,-1.9839867109634497
2.917372670188378,-2.9839867109634497
2.9183693810425595,-6.98398671096345
2.9193660918967406,-10.98398671096345
2.9203628027509216,-8.98398671096345
2.9213595136051027,-7.98398671096345
2.9223562244592842,-9.98398671096345
2.9233529353134653,-10.98398671096345
2.9243496461676464,-11.98398671096345
2.925346357021828,-7.98398671096345
2.926343067876009,-4.98398671096345
2.92733977873019,-2.9839867109634497
2.928336489584371,1.0160132890365503
2.9293332004385526,4.01601328903655
2.9303299112927337,4.01601328903655
2.9313266221469148,7.01601328903655
2.9323233330010963,8.01601328903655
2.9333200438552773,7.01601328903655
2.9343167547094584,8.01601328903655
2.93531346556364,7.01601328903655
2.936310176417821,4.01601328903655
2.937306887272002,4.01601328903655
2.938303598126183,-2.9839867109634497
2.9393003089803647,-4.98398671096345
2.9402970198345457,-7.98398671096345
2.941293730688727,-2.9839867109634497
2.9422904415429083,-2.9839867109634497
2.9432871523970894,-5.98398671096345
2.9442838632512704,-5.98398671096345
2.9452805741054515,-0.9839867109634497
2.946277284959633,-3.9839867109634497
2.947273995813814,-3.9839867109634497
2.948270706667995,-0.9839867109634497
2.9492674175221767,2.0160132890365503
2.9502641283763578,4.01601328903655
2.951260839230539,4.01601328903655
2.9522575500847204,4.01601328903655
2.9532542609389014,5.01601328903655
2.9542509717930825,2.0160132890365503
2.9552476826472636,3.0160132890365503
2.956244393501445,4.01601328903655
2.957241104355626,0.016013289036550304
2.958237815209807,0.016013289036550304
2.9592345260639887,-3.9839867109634497
2.96023123691817,-3.9839867109634497
2.961227947772351,-6.98398671096345
2.9622246586265324,-3.9839867109634497
2.9632213694807135,-2.9839867109634497
2.9642180803348945,-3.9839867109634497
2.9652147911890756,-0.9839867109634497
2.966211502043257,0.016013289036550304
2.967208212897438,2.0160132890365503
2.9682049237516193,1.0160132890365503
2.9692016346058008,3.0160132890365503
2.970198345459982,2.0160132890365503
2.971195056314163,6.01601328903655
2.972191767168344,5.01601328903655
2.9731884780225255,5.01601328903655
2.9741851888767066,4.01601328903655
2.9751818997308876,5.01601328903655
2.976178610585069,5.01601328903655
2.9771753214392502,0.016013289036550304
2.9781720322934313,-2.9839867109634497
2.979168743147613,-3.9839867109634497
2.980165454001794,-4.98398671096345
2.981162164855975,-5.98398671096345
2.982158875710156,-7.98398671096345
2.9831555865643375,-7.98398671096345
2.9841522974185186,-6.98398671096345
2.9851490082726997,-1.9839867109634497
2.986145719126881,0.016013289036550304
2.9871424299810623,3.0160132890365503
2.9881391408352433,2.0160132890365503
2.9891358516894244,3.0160132890365503
2.990132562543606,2.0160132890365503
2.991129273397787,6.01601328903655
2.992125984251968,7.01601328903655
2.9931226951061496,3.0160132890365503
2.9941194059603307,4.01601328903655
2.9951161168145117,7.01601328903655
2.9961128276686932,4.01601328903655
2.9971095385228743,-1.9839867109634497
2.9981062493770554,-0.9839867109634497
2.9991029602312365,-0.9839867109634497
3.000099671085418,-3.9839867109634497
3.001096381939599,-4.98398671096345
3.00209309279378,-8.98398671096345
3.0030898036479616,-8.98398671096345
3.0040865145021427,-4.98398671096345
3.0050832253563238,-4.98398671096345
3.006079936210505,0.016013289036550304
3.0070766470646864,-1.9839867109634497
3.0080733579188674,-0.9839867109634497
3.0090700687730485,-1.9839867109634497
3.01006677962723,0.016013289036550304
3.011063490481411,0.016013289036550304
3.012060201335592,6.01601328903655
3.0130569121897737,7.01601328903655
3.0140536230439547,2.0160132890365503
3.015050333898136,5.01601328903655
3.016047044752317,4.01601328903655
3.0170437556064984,4.01601328903655
3.0180404664606795,1.0160132890365503
3.0190371773148605,-4.98398671096345
3.020033888169042,-9.98398671096345
3.021030599023223,-10.98398671096345
3.022027309877404,-9.98398671096345
3.0230240207315853,-3.9839867109634497
3.024020731585767,4.01601328903655
3.025017442439948,10.01601328903655
3.026014153294129,16.01601328903655
3.0270108641483104,10.01601328903655
3.0280075750024915,0.016013289036550304
3.0290042858566726,1.0160132890365503
3.030000996710854,3.0160132890365503
3.030997707565035,9.01601328903655
3.0319944184192162,7.01601328903655
3.0329911292733973,5.01601328903655
3.033987840127579,11.01601328903655
3.03498455098176,8.01601328903655
3.035981261835941,0.016013289036550304
3.0369779726901225,-9.98398671096345
3.0379746835443036,-13.98398671096345
3.0389713943984846,-12.98398671096345
3.039968105252666,-11.98398671096345
3.040964816106847,-18.98398671096345
3.0419615269610283,-4.98398671096345
3.0429582378152094,6.01601328903655
3.043954948669391,7.01601328903655
3.044951659523572,8.01601328903655
3.045948370377753,6.01601328903655
3.0469450812319345,2.0160132890365503
3.0479417920861156,-2.9839867109634497
3.0489385029402967,-0.9839867109634497
3.0499352137944777,-2.9839867109634497
3.0509319246486593,1.0160132890365503
3.0519286355028403,6.01601328903655
3.0529253463570214,7.01601328903655
3.053922057211203,5.01601328903655
3.054918768065384,2.0160132890365503
3.055915478919565,5.01601328903655
3.0569121897737466,1.0160132890365503
3.0579089006279276,-5.98398671096345
3.0589056114821087,-7.98398671096345
3.05990232233629,-7.98398671096345
3.0608990331904713,-9.98398671096345
3.0618957440446524,-12.98398671096345
3.0628924548988334,-9.98398671096345
3.063889165753015,-7.98398671096345
3.064885876607196,-0.9839867109634497
3.065882587461377,3.0160132890365503
3.066879298315558,-3.9839867109634497
3.0678760091697397,-4.98398671096345
3.0688727200239208,8.01601328903655
3.069869430878102,13.01601328903655
3.0708661417322833,6.01601328903655
3.0718628525864644,2.0160132890365503
3.0728595634406455,1.0160132890365503
3.073856274294827,-0.9839867109634497
3.074852985149008,7.01601328903655
3.075849696003189,17.01601328903655
3.07684640685737,13.01601328903655
3.0778431177115517,8.01601328903655
3.078839828565733,-2.9839867109634497
3.079836539419914,-15.98398671096345
3.0808332502740954,-18.98398671096345
3.0818299611282765,-18.98398671096345
3.0828266719824575,-15.98398671096345
3.0838233828366386,-11.98398671096345
3.08482009369082,-1.9839867109634497
3.085816804545001,7.01601328903655
3.0868135153991823,11.01601328903655
3.0878102262533638,16.01601328903655
3.088806937107545,12.01601328903655
3.089803647961726,23.01601328903655
3.0908003588159074,11.01601328903655
3.0917970696700885,-2.9839867109634497
3.0927937805242696,3.0160132890365503
3.0937904913784506,6.01601328903655
3.094787202232632,-1.9839867109634497
3.095783913086813,-2.9839867109634497
3.0967806239409943,-6.98398671096345
3.097777334795176,-3.9839867109634497
3.098774045649357,-7.98398671096345
3.099770756503538,-13.98398671096345
3.1007674673577195,-20.98398671096345
3.1017641782119005,-18.98398671096345
3.1027608890660816,-26.98398671096345
3.1037575999202627,-18.98398671096345
3.104754310774444,-5.98398671096345
3.1057510216286253,-7.98398671096345
3.1067477324828063,-4.98398671096345
3.107744443336988,-5.98398671096345
3.108741154191169,-7.98398671096345
3.10973786504535,-1.9839867109634497
3.110734575899531,31.01601328903655
3.1117312867537126,73.01601328903655
3.1127279976078936,68.01601328903655
3.1137247084620747,32.01601328903655
3.1147214193162562,-3.9839867109634497
3.1157181301704373,-31.98398671096345
3.1167148410246184,-43.98398671096345
3.1177115518788,-37.98398671096345
3.118708262732981,-34.98398671096345
3.119704973587162,-38.98398671096345
3.120701684441343,-10.98398671096345
3.1216983952955246,14.01601328903655
3.1226951061497057,22.01601328903655
3.1236918170038868,43.01601328903655
3.1246885278580683,64.01601328903655
3.1256852387122493,51.01601328903655
3.1266819495664304,43.01601328903655
3.1276786604206115,13.01601328903655
3.128675371274793,-13.98398671096345
3.129672082128974,-18.98398671096345
3.130668792983155,-18.98398671096345
3.1316655038373367,-22.98398671096345
3.1326622146915177,-39.98398671096345
3.133658925545699,-32.98398671096345
3.1346556363998803,-9.98398671096345
3.1356523472540614,36.01601328903655
3.1366490581082425,76.01601328903655
3.1376457689624235,56.01601328903655
3.138642479816605,27.01601328903655
3.139639190670786,25.01601328903655
3.140635901524967,5.01601328903655
3.1416326123791487,-30.98398671096345
3.1426293232333298,-25.98398671096345
3.143626034087511,-44.98398671096345
3.144622744941692,-76.98398671096345
3.1456194557958734,-69.98398671096345
3.1466161666500545,-44.98398671096345
3.1476128775042356,-9.98398671096345
3.148609588358417,20.01601328903655
3.149606299212598,17.01601328903655
3.1506030100667792,17.01601328903655
3.1515997209209607,16.01601328903655
3.152596431775142,0.016013289036550304
3.153593142629323,-11.98398671096345
3.154589853483504,-23.98398671096345
3.1555865643376855,-26.98398671096345
3.1565832751918665,-22.98398671096345
3.1575799860460476,-13.98398671096345
3.158576696900229,6.01601328903655
3.15957340775441,32.01601328903655
3.1605701186085913,45.01601328903655
3.1615668294627723,52.01601328903655
3.162563540316954,60.01601328903655
3.163560251171135,41.01601328903655
3.164556962025316,1.0160132890365503
3.1655536728794975,-6.98398671096345
3.1665503837336786,-33.98398671096345
3.1675470945878597,-64.98398671096345
3.168543805442041,-64.98398671096345
3.1695405162962222,-28.98398671096345
3.1705372271504033,20.01601328903655
3.1715339380045844,49.01601328903655
3.172530648858766,48.01601328903655
3.173527359712947,26.01601328903655
3.174524070567128,1.0160132890365503
3.1755207814213096,-36.98398671096345
3.1765174922754906,-41.98398671096345
3.1775142031296717,-17.98398671096345
3.178510913983853,47.01601328903655
3.1795076248380343,56.01601328903655
3.1805043356922154,16.01601328903655
3.1815010465463964,-0.9839867109634497
3.182497757400578,-5.98398671096345
3.183494468254759,17.01601328903655
3.18449117910894,6.01601328903655
3.1854878899631216,-32.98398671096345
3.1864846008173027,-67.98398671096345
3.1874813116714837,-25.98398671096345
3.188478022525665,12.01601328903655
3.1894747333798463,29.01601328903655
3.1904714442340274,49.01601328903655
3.1914681550882085,52.01601328903655
3.19246486594239,20.01601328903655
3.193461576796571,-1.9839867109634497
3.194458287650752,-7.98398671096345
3.1954549985049336,-11.98398671096345
3.1964517093591147,-29.98398671096345
3.197448420213296,-41.98398671096345
3.198445131067477,-57.98398671096345
3.1994418419216584,-48.98398671096345
3.2004385527758394,-11.98398671096345
3.2014352636300205,11.01601328903655
3.202431974484202,6.01601328903655
3.203428685338383,-13.98398671096345
