0,1,2,3,4,5,6,7,8,9
56.13990005552472,50.13990005552472,18.13990005552472,-40.86009994447528,-51.86009994447528,-53.86009994447528,-26.860099944475284,18.13990005552472,19.13990005552472,21.13990005552472
10.139900055524722,5.13990005552472,-4.86009994447528,-18.86009994447528,-30.860099944475284,-7.86009994447528,43.13990005552472,60.13990005552472,61.13990005552472,39.13990005552472
13.139900055524723,-23.860099944475284,-42.86009994447528,-51.86009994447528,-47.86009994447528,-24.860099944475284,-11.860099944475277,-5.86009994447528,6.13990005552472,17.13990005552472
12.139900055524723,-4.86009994447528,2.13990005552472,33.13990005552472,25.139900055524716,57.13990005552472,37.13990005552472,-2.86009994447528,-6.86009994447528,-16.86009994447528
-59.86009994447528,-55.86009994447528,-31.860099944475284,-0.8600999444752802,1.1399000555247198,5.13990005552472,12.139900055524723,12.139900055524723,2.13990005552472,12.139900055524723
-3.86009994447528,-9.860099944475278,16.13990005552472,-3.86009994447528,-25.860099944475284,-26.860099944475284,-4.86009994447528,6.13990005552472,8.13990005552472,1.1399000555247198
-4.86009994447528,17.13990005552472,36.13990005552472,47.13990005552472,25.139900055524716,15.139900055524723,-12.860099944475277,-39.86009994447528,-19.86009994447528,-4.86009994447528
-20.86009994447528,-20.86009994447528,-0.8600999444752802,26.139900055524716,40.13990005552472,36.13990005552472,36.13990005552472,36.13990005552472,10.139900055524722,-30.860099944475284
-45.86009994447528,-38.86009994447528,-27.860099944475284,-34.86009994447528,-34.86009994447528,-29.860099944475284,-28.860099944475284,-4.86009994447528,25.139900055524716,53.13990005552472
61.13990005552472,40.13990005552472,15.139900055524723,23.139900055524716,0.13990005552471985,-28.860099944475284,-37.86009994447528,-13.860099944475277,-3.86009994447528,-18.86009994447528
-22.860099944475284,-25.860099944475284,-12.860099944475277,-7.86009994447528,2.13990005552472,9.139900055524722,36.13990005552472,65.13990005552472,45.13990005552472,-1.8600999444752802
-31.860099944475284,-30.860099944475284,3.13990005552472,17.13990005552472,8.13990005552472,24.139900055524716,22.139900055524716,-12.860099944475277,-49.86009994447528,-54.86009994447528
-51.86009994447528,-28.860099944475284,12.139900055524723,45.13990005552472,75.13990005552472,118.1399000555247,53.13990005552472,-35.86009994447528,-75.86009994447528,-51.86009994447528
-12.860099944475277,24.139900055524716,4.13990005552472,-29.860099944475284,-30.860099944475284,-12.860099944475277,-23.860099944475284,-10.860099944475277,9.139900055524722,10.139900055524722
18.13990005552472,34.13990005552472,16.13990005552472,-11.860099944475277,-4.86009994447528,11.139900055524723,40.13990005552472,36.13990005552472,14.139900055524723,-2.86009994447528
-2.86009994447528,-2.86009994447528,-42.86009994447528,-69.86009994447528,-42.86009994447528,-6.86009994447528,0.13990005552471985,-4.86009994447528,4.13990005552472,-7.86009994447528
16.13990005552472,7.13990005552472,-12.860099944475277,-12.860099944475277,3.13990005552472,17.13990005552472,19.13990005552472,22.139900055524716,21.13990005552472,26.139900055524716
11.139900055524723,8.13990005552472,8.13990005552472,10.139900055524722,11.139900055524723,8.13990005552472,-6.86009994447528,-17.86009994447528,-19.86009994447528,-20.86009994447528
-41.86009994447528,-53.86009994447528,-55.86009994447528,-14.860099944475277,1.1399000555247198,33.13990005552472,81.13990005552472,92.1399000555247,118.1399000555247,72.13990005552472
-1.8600999444752802,-43.86009994447528,-85.86009994447528,-103.8600999444753,-91.8600999444753,-64.86009994447528,-26.860099944475284,-17.86009994447528,-0.8600999444752802,16.13990005552472
41.13990005552472,61.13990005552472,85.13990005552472,68.13990005552472,50.13990005552472,36.13990005552472,22.139900055524716,-28.860099944475284,-63.86009994447528,-60.86009994447528
-46.86009994447528,-28.860099944475284,-10.860099944475277,1.1399000555247198,0.13990005552471985,-9.860099944475278,-7.86009994447528,0.13990005552471985,0.13990005552471985,13.139900055524723
33.13990005552472,8.13990005552472,2.13990005552472,6.13990005552472,1.1399000555247198,0.13990005552471985,1.1399000555247198,-5.86009994447528,-6.86009994447528,-14.860099944475277
-1.8600999444752802,11.139900055524723,-0.8600999444752802,9.139900055524722,32.13990005552472,67.13990005552472,36.13990005552472,-17.86009994447528,-21.860099944475284,-36.86009994447528
-79.86009994447528,-79.86009994447528,-14.860099944475277,41.13990005552472,54.13990005552472,54.13990005552472,24.139900055524716,-34.86009994447528,-16.86009994447528,18.13990005552472
12.139900055524723,16.13990005552472,33.13990005552472,16.13990005552472,-17.86009994447528,-38.86009994447528,-39.86009994447528,-18.86009994447528,4.13990005552472,15.139900055524723
39.13990005552472,24.139900055524716,-2.86009994447528,-20.86009994447528,-40.86009994447528,-26.860099944475284,-6.86009994447528,0.13990005552471985,20.13990005552472,15.139900055524723
7.13990005552472,8.13990005552472,5.13990005552472,4.13990005552472,22.139900055524716,15.139900055524723,-26.860099944475284,-32.86009994447528,-0.8600999444752802,5.13990005552472
-34.86009994447528,-43.86009994447528,17.13990005552472,17.13990005552472,0.13990005552471985,14.139900055524723,15.139900055524723,7.13990005552472,9.139900055524722,19.13990005552472
6.13990005552472,-14.860099944475277,-7.86009994447528,2.13990005552472,4.13990005552472,-6.86009994447528,-29.860099944475284,-30.860099944475284,-26.860099944475284,-14.860099944475277
1.1399000555247198,14.139900055524723,15.139900055524723,36.13990005552472,43.13990005552472,55.13990005552472,61.13990005552472,32.13990005552472,-8.860099944475278,4.13990005552472
15.139900055524723,17.13990005552472,-26.860099944475284,-81.86009994447528,-110.8600999444753,-75.86009994447528,-15.860099944475277,16.13990005552472,17.13990005552472,8.13990005552472
3.13990005552472,8.13990005552472,23.139900055524716,13.139900055524723,18.13990005552472,35.13990005552472,29.139900055524716,-54.86009994447528,-40.86009994447528,15.139900055524723
51.13990005552472,64.13990005552472,27.139900055524716,-35.86009994447528,-34.86009994447528,-24.860099944475284,-19.86009994447528,-23.860099944475284,-24.860099944475284,-2.86009994447528
5.13990005552472,-18.86009994447528,-3.86009994447528,36.13990005552472,52.13990005552472,27.139900055524716,19.13990005552472,3.13990005552472,-8.860099944475278,-3.86009994447528
1.1399000555247198,-6.86009994447528,-12.860099944475277,-8.860099944475278,-5.86009994447528,5.13990005552472,7.13990005552472,1.1399000555247198,11.139900055524723,-3.86009994447528
5.13990005552472,18.13990005552472,-6.86009994447528,-27.860099944475284,-21.860099944475284,-26.860099944475284,-23.860099944475284,-7.86009994447528,-3.86009994447528,-1.8600999444752802
-17.86009994447528,-31.860099944475284,-7.86009994447528,29.139900055524716,84.13990005552472,87.1399000555247,42.13990005552472,4.13990005552472,-39.86009994447528,-58.86009994447528
-55.86009994447528,-27.860099944475284,-7.86009994447528,17.13990005552472,22.139900055524716,33.13990005552472,24.139900055524716,8.13990005552472,-7.86009994447528,-31.860099944475284
-30.860099944475284,-26.860099944475284,1.1399000555247198,48.13990005552472,58.13990005552472,36.13990005552472,20.13990005552472,0.13990005552471985,-22.860099944475284,-22.860099944475284
-21.860099944475284,-1.8600999444752802,-8.860099944475278,-27.860099944475284,-37.86009994447528,-26.860099944475284,4.13990005552472,24.139900055524716,38.13990005552472,29.139900055524716
28.139900055524716,19.13990005552472,-3.86009994447528,-12.860099944475277,-14.860099944475277,-21.860099944475284,-10.860099944475277,8.13990005552472,-5.86009994447528,-20.86009994447528
-16.86009994447528,1.1399000555247198,-5.86009994447528,4.13990005552472,3.13990005552472,-25.860099944475284,-31.860099944475284,-10.860099944475277,19.13990005552472,52.13990005552472
57.13990005552472,47.13990005552472,-0.8600999444752802,-30.860099944475284,0.13990005552471985,49.13990005552472,51.13990005552472,20.13990005552472,16.13990005552472,-11.860099944475277
-67.86009994447528,-91.8600999444753,-73.86009994447528,-39.86009994447528,-10.860099944475277,-7.86009994447528,20.13990005552472,38.13990005552472,27.139900055524716,24.139900055524716
14.139900055524723,-4.86009994447528,-14.860099944475277,-11.860099944475277,-3.86009994447528,3.13990005552472,-0.8600999444752802,-10.860099944475277,-3.86009994447528,-5.86009994447528
-5.86009994447528,-1.8600999444752802,28.139900055524716,63.13990005552472,73.13990005552472,61.13990005552472,13.139900055524723,-14.860099944475277,-11.860099944475277,1.1399000555247198
-6.86009994447528,-37.86009994447528,-63.86009994447528,-63.86009994447528,-43.86009994447528,-28.860099944475284,-13.860099944475277,7.13990005552472,4.13990005552472,-26.860099944475284
-38.86009994447528,-23.860099944475284,9.139900055524722,56.13990005552472,70.13990005552472,99.1399000555247,102.1399000555247,58.13990005552472,-21.860099944475284,-68.86009994447528
-55.86009994447528,-9.860099944475278,3.13990005552472,25.139900055524716,4.13990005552472,-16.86009994447528,-37.86009994447528,-50.86009994447528,-19.86009994447528,-9.860099944475278
-20.86009994447528,-24.860099944475284,-14.860099944475277,-3.86009994447528,21.13990005552472,48.13990005552472,63.13990005552472,29.139900055524716,5.13990005552472,-3.86009994447528
-9.860099944475278,-11.860099944475277,-10.860099944475277,-10.860099944475277,-7.86009994447528,2.13990005552472,-4.86009994447528,-20.86009994447528,-28.860099944475284,-28.860099944475284
-25.860099944475284,-17.86009994447528,-4.86009994447528,17.13990005552472,62.13990005552472,77.13990005552472,76.13990005552472,61.13990005552472,12.139900055524723,1.1399000555247198
15.139900055524723,14.139900055524723,-18.86009994447528,-51.86009994447528,-95.8600999444753,-74.86009994447528,-35.86009994447528,-39.86009994447528,-34.86009994447528,0.13990005552471985
41.13990005552472,61.13990005552472,40.13990005552472,25.139900055524716,32.13990005552472,21.13990005552472,-12.860099944475277,-26.860099944475284,-30.860099944475284,-20.86009994447528
-5.86009994447528,5.13990005552472,-0.8600999444752802,4.13990005552472,-15.860099944475277,-24.860099944475284,-7.86009994447528,8.13990005552472,33.13990005552472,50.13990005552472
45.13990005552472,20.13990005552472,-7.86009994447528,-19.86009994447528,-20.86009994447528,-19.86009994447528,-22.860099944475284,-18.86009994447528,-7.86009994447528,-5.86009994447528
-1.8600999444752802,-2.86009994447528,-1.8600999444752802,-19.86009994447528,-43.86009994447528,-39.86009994447528,-24.860099944475284,13.139900055524723,67.13990005552472,88.1399000555247
65.13990005552472,68.13990005552472,30.139900055524716,-8.860099944475278,-23.860099944475284,-3.86009994447528,27.139900055524716,22.139900055524716,-10.860099944475277,-23.860099944475284
-59.86009994447528,-88.8600999444753,-74.86009994447528,-46.86009994447528,-10.860099944475277,0.13990005552471985,5.13990005552472,7.13990005552472,31.139900055524716,22.139900055524716
21.13990005552472,17.13990005552472,-1.8600999444752802,-3.86009994447528,17.13990005552472,28.139900055524716,18.13990005552472,5.13990005552472,-4.86009994447528,-12.860099944475277
-17.86009994447528,-23.860099944475284,-20.86009994447528,-4.86009994447528,14.139900055524723,28.139900055524716,16.13990005552472,7.13990005552472,-3.86009994447528,-28.860099944475284
-9.860099944475278,26.139900055524716,50.13990005552472,43.13990005552472,12.139900055524723,2.13990005552472,-29.860099944475284,-67.86009994447528,-38.86009994447528,4.13990005552472
25.139900055524716,42.13990005552472,31.139900055524716,-10.860099944475277,-43.86009994447528,-51.86009994447528,-40.86009994447528,-16.86009994447528,17.13990005552472,9.139900055524722
-5.86009994447528,40.13990005552472,84.13990005552472,88.1399000555247,41.13990005552472,12.139900055524723,-39.86009994447528,-69.86009994447528,-62.86009994447528,-26.860099944475284
12.139900055524723,7.13990005552472,-5.86009994447528,-8.860099944475278,-11.860099944475277,-17.86009994447528,-14.860099944475277,-7.86009994447528,-6.86009994447528,-10.860099944475277
-8.860099944475278,-3.86009994447528,11.139900055524723,16.13990005552472,14.139900055524723,6.13990005552472,-4.86009994447528,8.13990005552472,15.139900055524723,-1.8600999444752802
-10.860099944475277,-2.86009994447528,43.13990005552472,65.13990005552472,42.13990005552472,29.139900055524716,-7.86009994447528,-60.86009994447528,-63.86009994447528,-23.860099944475284
-7.86009994447528,-2.86009994447528,-7.86009994447528,-2.86009994447528,-2.86009994447528,-4.86009994447528,-5.86009994447528,-2.86009994447528,-5.86009994447528,6.13990005552472
12.139900055524723,24.139900055524716,35.13990005552472,19.13990005552472,10.139900055524722,13.139900055524723,10.139900055524722,36.13990005552472,48.13990005552472,11.139900055524723
-26.860099944475284,-61.86009994447528,-66.86009994447528,-41.86009994447528,-24.860099944475284,7.13990005552472,28.139900055524716,5.13990005552472,0.13990005552471985,-3.86009994447528
-2.86009994447528,-8.860099944475278,-19.86009994447528,6.13990005552472,32.13990005552472,42.13990005552472,39.13990005552472,11.139900055524723,7.13990005552472,-39.86009994447528
-70.86009994447528,-39.86009994447528,-7.86009994447528,-7.86009994447528,-3.86009994447528,21.13990005552472,20.13990005552472,19.13990005552472,56.13990005552472,37.13990005552472
6.13990005552472,-3.86009994447528,-27.860099944475284,-17.86009994447528,1.1399000555247198,-2.86009994447528,-4.86009994447528,-24.860099944475284,-36.86009994447528,-53.86009994447528
-28.860099944475284,23.139900055524716,51.13990005552472,44.13990005552472,22.139900055524716,-2.86009994447528,0.13990005552471985,-3.86009994447528,-1.8600999444752802,14.139900055524723
13.139900055524723,1.1399000555247198,2.13990005552472,-7.86009994447528,-7.86009994447528,11.139900055524723,40.13990005552472,53.13990005552472,40.13990005552472,20.13990005552472
-21.860099944475284,-30.860099944475284,-56.86009994447528,-68.86009994447528,-39.86009994447528,-7.86009994447528,11.139900055524723,11.139900055524723,-8.860099944475278,-7.86009994447528
-21.860099944475284,-31.860099944475284,-19.86009994447528,19.13990005552472,57.13990005552472,73.13990005552472,38.13990005552472,-7.86009994447528,-10.860099944475277,-4.86009994447528
-10.860099944475277,3.13990005552472,-16.86009994447528,-51.86009994447528,-49.86009994447528,-27.860099944475284,-0.8600999444752802,11.139900055524723,65.13990005552472,111.1399000555247
85.13990005552472,43.13990005552472,-14.860099944475277,-65.86009994447528,-54.86009994447528,-59.86009994447528,-53.86009994447528,-26.860099944475284,-26.860099944475284,-9.860099944475278
7.13990005552472,4.13990005552472,1.1399000555247198,16.13990005552472,36.13990005552472,49.13990005552472,62.13990005552472,40.13990005552472,-2.86009994447528,-37.86009994447528
-36.86009994447528,-34.86009994447528,-26.860099944475284,-14.860099944475277,-14.860099944475277,0.13990005552471985,22.139900055524716,28.139900055524716,31.139900055524716,45.13990005552472
27.139900055524716,-3.86009994447528,-11.860099944475277,-33.86009994447528,-58.86009994447528,-46.86009994447528,-0.8600999444752802,48.13990005552472,34.13990005552472,20.13990005552472
13.139900055524723,2.13990005552472,-18.86009994447528,-45.86009994447528,-62.86009994447528,-12.860099944475277,44.13990005552472,79.13990005552472,79.13990005552472,36.13990005552472
-23.860099944475284,-79.86009994447528,-57.86009994447528,-29.860099944475284,-16.86009994447528,21.13990005552472,36.13990005552472,13.139900055524723,-20.86009994447528,-67.86009994447528
-64.86009994447528,-10.860099944475277,27.139900055524716,55.13990005552472,81.13990005552472,73.13990005552472,39.13990005552472,-32.86009994447528,-28.860099944475284,-15.860099944475277
5.13990005552472,14.139900055524723,4.13990005552472,-3.86009994447528,-12.860099944475277,-2.86009994447528,-32.86009994447528,-42.86009994447528,-53.86009994447528,-25.860099944475284
5.13990005552472,11.139900055524723,25.139900055524716,46.13990005552472,32.13990005552472,4.13990005552472,-35.86009994447528,-41.86009994447528,-16.86009994447528,9.139900055524722
-3.86009994447528,-19.86009994447528,-14.860099944475277,65.13990005552472,68.13990005552472,71.13990005552472,72.13990005552472,50.13990005552472,-63.86009994447528,-150.86009994447528
-111.8600999444753,-44.86009994447528,5.13990005552472,17.13990005552472,41.13990005552472,57.13990005552472,107.1399000555247,140.13990005552472,129.13990005552472,49.13990005552472
-43.86009994447528,-134.86009994447528,-133.86009994447528,-126.8600999444753,-84.86009994447528,-43.86009994447528,-11.860099944475277,-27.860099944475284,-54.86009994447528,-13.860099944475277
66.13990005552472,117.1399000555247,139.13990005552472,142.13990005552472,57.13990005552472,-29.860099944475284,-45.86009994447528,12.139900055524723,68.13990005552472,76.13990005552472
7.13990005552472,-58.86009994447528,-94.8600999444753,-107.8600999444753,-91.8600999444753,-81.86009994447528,-53.86009994447528,35.13990005552472,44.13990005552472,9.139900055524722
-23.860099944475284,-30.860099944475284,-33.86009994447528,-36.86009994447528,0.13990005552471985,56.13990005552472,78.13990005552472,116.1399000555247,74.13990005552472,-28.860099944475284
-53.86009994447528,-36.86009994447528,-23.860099944475284,-45.86009994447528,-6.86009994447528,25.139900055524716,14.139900055524723,-14.860099944475277,-2.86009994447528,7.13990005552472
-5.86009994447528,-10.860099944475277,-28.860099944475284,-17.86009994447528,29.139900055524716,39.13990005552472,44.13990005552472,53.13990005552472,17.13990005552472,-10.860099944475277
1.1399000555247198,1.1399000555247198,37.13990005552472,-2.86009994447528,-25.860099944475284,-28.860099944475284,-14.860099944475277,-26.860099944475284,-25.860099944475284,31.139900055524716
66.13990005552472,12.139900055524723,-54.86009994447528,-63.86009994447528,-2.86009994447528,17.13990005552472,12.139900055524723,47.13990005552472,32.13990005552472,9.139900055524722
35.13990005552472,32.13990005552472,-26.860099944475284,-94.8600999444753,-100.8600999444753,-57.86009994447528,-41.86009994447528,-22.860099944475284,-29.860099944475284,41.13990005552472
94.1399000555247,78.13990005552472,79.13990005552472,20.13990005552472,4.13990005552472,4.13990005552472,39.13990005552472,39.13990005552472,12.139900055524723,20.13990005552472
17.13990005552472,-30.860099944475284,-39.86009994447528,-73.86009994447528,-54.86009994447528,-43.86009994447528,-47.86009994447528,-77.86009994447528,-65.86009994447528,-39.86009994447528
5.13990005552472,100.1399000555247,135.13990005552472,52.13990005552472,4.13990005552472,0.13990005552471985,28.139900055524716,88.1399000555247,122.1399000555247,-6.86009994447528
-45.86009994447528,-4.86009994447528,-31.860099944475284,-60.86009994447528,-49.86009994447528,-54.86009994447528,-23.860099944475284,-42.86009994447528,-73.86009994447528,-52.86009994447528
-2.86009994447528,25.139900055524716,33.13990005552472,30.139900055524716,-5.86009994447528,5.13990005552472,6.13990005552472,-27.860099944475284,-27.860099944475284,14.139900055524723
35.13990005552472,56.13990005552472,33.13990005552472,-22.860099944475284,-7.86009994447528,-7.86009994447528,6.13990005552472,19.13990005552472,22.139900055524716,0.13990005552471985
-19.86009994447528,-15.860099944475277,-28.860099944475284,-9.860099944475278,20.13990005552472,33.13990005552472,12.139900055524723,-15.860099944475277,-46.86009994447528,-37.86009994447528
-2.86009994447528,83.13990005552472,87.1399000555247,99.1399000555247,108.1399000555247,81.13990005552472,11.139900055524723,-37.86009994447528,-146.86009994447528,-155.86009994447528
-107.8600999444753,-43.86009994447528,0.13990005552471985,7.13990005552472,13.139900055524723,-14.860099944475277,-61.86009994447528,1.1399000555247198,35.13990005552472,54.13990005552472
71.13990005552472,79.13990005552472,59.13990005552472,-0.8600999444752802,-46.86009994447528,-40.86009994447528,-36.86009994447528,-18.86009994447528,17.13990005552472,40.13990005552472
22.139900055524716,-14.860099944475277,-6.86009994447528,40.13990005552472,-10.860099944475277,-61.86009994447528,-42.86009994447528,-17.86009994447528,4.13990005552472,-2.86009994447528
4.13990005552472,49.13990005552472,109.1399000555247,135.13990005552472,36.13990005552472,-49.86009994447528,-51.86009994447528,-36.86009994447528,-43.86009994447528,-140.86009994447528
-158.86009994447528,-114.8600999444753,-34.86009994447528,24.139900055524716,84.13990005552472,149.13990005552472,117.1399000555247,20.13990005552472,-14.860099944475277,-39.86009994447528
-45.86009994447528,-10.860099944475277,14.139900055524723,17.13990005552472,-1.8600999444752802,31.139900055524716,73.13990005552472,78.13990005552472,20.13990005552472,12.139900055524723
-27.860099944475284,-50.86009994447528,-50.86009994447528,-49.86009994447528,29.139900055524716,137.13990005552472,97.1399000555247,-5.86009994447528,-94.8600999444753,-100.8600999444753
-119.8600999444753,-113.8600999444753,-46.86009994447528,24.139900055524716,46.13990005552472,61.13990005552472,67.13990005552472,45.13990005552472,-19.86009994447528,-41.86009994447528
-7.86009994447528,-14.860099944475277,-19.86009994447528,-43.86009994447528,-22.860099944475284,16.13990005552472,43.13990005552472,67.13990005552472,29.139900055524716,7.13990005552472
2.13990005552472,33.13990005552472,44.13990005552472,25.139900055524716,3.13990005552472,-0.8600999444752802,-8.860099944475278,-70.86009994447528,-29.860099944475284,22.139900055524716
101.1399000555247,138.13990005552472,32.13990005552472,-71.86009994447528,-84.86009994447528,-26.860099944475284,-15.860099944475277,-61.86009994447528,-115.8600999444753,-108.8600999444753
-76.86009994447528,-51.86009994447528,-19.86009994447528,42.13990005552472,36.13990005552472,25.139900055524716,65.13990005552472,147.13990005552472,145.13990005552472,140.13990005552472
82.13990005552472,-2.86009994447528,-111.8600999444753,-132.86009994447528,-87.8600999444753,-66.86009994447528,-46.86009994447528,7.13990005552472,87.1399000555247,64.13990005552472
25.139900055524716,3.13990005552472,14.139900055524723,111.1399000555247,149.13990005552472,23.139900055524716,-61.86009994447528,-165.86009994447528,-183.86009994447528,-115.8600999444753
-27.860099944475284,65.13990005552472,31.139900055524716,-22.860099944475284,-51.86009994447528,-100.8600999444753,-108.8600999444753,24.139900055524716,191.13990005552472,200.13990005552472
132.13990005552472,86.1399000555247,-13.860099944475277,-84.86009994447528,-81.86009994447528,19.13990005552472,104.1399000555247,65.13990005552472,-28.860099944475284,-66.86009994447528
-126.8600999444753,-119.8600999444753,-18.86009994447528,89.1399000555247,154.13990005552472,113.1399000555247,-31.860099944475284,-122.8600999444753,-132.86009994447528,-106.8600999444753
-96.8600999444753,-52.86009994447528,-10.860099944475277,12.139900055524723,43.13990005552472,88.1399000555247,148.13990005552472,126.1399000555247,27.139900055524716,-42.86009994447528
-57.86009994447528,-16.86009994447528,-15.860099944475277,-9.860099944475278,-8.860099944475278,1.1399000555247198,46.13990005552472,61.13990005552472,-7.86009994447528,-70.86009994447528
-117.8600999444753,-146.86009994447528,-118.8600999444753,-5.86009994447528,124.1399000555247,211.13990005552472,188.13990005552472,70.13990005552472,-4.86009994447528,-12.860099944475277
19.13990005552472,-11.860099944475277,-47.86009994447528,-17.86009994447528,5.13990005552472,31.139900055524716,14.139900055524723,-76.86009994447528,-85.86009994447528,-96.8600999444753
-125.8600999444753,-97.8600999444753,-22.860099944475284,94.1399000555247,71.13990005552472,-6.86009994447528,90.1399000555247,137.13990005552472,141.13990005552472,88.1399000555247
-27.860099944475284,-110.8600999444753,-125.8600999444753,-68.86009994447528,-15.860099944475277,27.139900055524716,30.139900055524716,26.139900055524716,69.13990005552472,24.139900055524716
-18.86009994447528,-31.860099944475284,-26.860099944475284,-42.86009994447528,-45.86009994447528,-14.860099944475277,-24.860099944475284,-37.86009994447528,-27.860099944475284,43.13990005552472
79.13990005552472,0.13990005552471985,13.139900055524723,71.13990005552472,67.13990005552472,28.139900055524716,-52.86009994447528,-80.86009994447528,-68.86009994447528,-76.86009994447528
-16.86009994447528,59.13990005552472,105.1399000555247,101.1399000555247,38.13990005552472,-35.86009994447528,-74.86009994447528,-93.8600999444753,-83.86009994447528,-63.86009994447528
-4.86009994447528,73.13990005552472,58.13990005552472,46.13990005552472,72.13990005552472,89.1399000555247,-27.860099944475284,-53.86009994447528,84.13990005552472,52.13990005552472
-2.86009994447528,-42.86009994447528,-83.86009994447528,-81.86009994447528,-67.86009994447528,-52.86009994447528,-7.86009994447528,42.13990005552472,38.13990005552472,3.13990005552472
-32.86009994447528,-40.86009994447528,-4.86009994447528,51.13990005552472,78.13990005552472,24.139900055524716,-46.86009994447528,-30.860099944475284,-31.860099944475284,-48.86009994447528
-34.86009994447528,49.13990005552472,133.13990005552472,89.1399000555247,8.13990005552472,-25.860099944475284,-42.86009994447528,-25.860099944475284,-11.860099944475277,-45.86009994447528
-3.86009994447528,65.13990005552472,17.13990005552472,-17.86009994447528,46.13990005552472,61.13990005552472,124.1399000555247,58.13990005552472,-22.860099944475284,-90.8600999444753
-75.86009994447528,-54.86009994447528,-89.8600999444753,-89.8600999444753,-16.86009994447528,49.13990005552472,41.13990005552472,-31.860099944475284,-22.860099944475284,8.13990005552472
72.13990005552472,110.1399000555247,101.1399000555247,80.13990005552472,-1.8600999444752802,-55.86009994447528,-90.8600999444753,-133.86009994447528,-159.86009994447528,-130.86009994447528
-14.860099944475277,157.13990005552472,183.13990005552472,140.13990005552472,88.1399000555247,4.13990005552472,-66.86009994447528,-98.8600999444753,-122.8600999444753,-62.86009994447528
61.13990005552472,108.1399000555247,37.13990005552472,-67.86009994447528,-159.86009994447528,-150.86009994447528,-56.86009994447528,68.13990005552472,227.13990005552472,226.13990005552472
143.13990005552472,26.139900055524716,-67.86009994447528,-120.8600999444753,-148.86009994447528,-84.86009994447528,-69.86009994447528,-51.86009994447528,-16.86009994447528,6.13990005552472
-4.86009994447528,13.139900055524723,90.1399000555247,140.13990005552472,99.1399000555247,27.139900055524716,-3.86009994447528,-25.860099944475284,72.13990005552472,105.1399000555247
26.139900055524716,-62.86009994447528,-99.8600999444753,-98.8600999444753,-107.8600999444753,-131.86009994447528,-98.8600999444753,-26.860099944475284,65.13990005552472,82.13990005552472
49.13990005552472,131.13990005552472,55.13990005552472,-12.860099944475277,-30.860099944475284,-9.860099944475278,17.13990005552472,-6.86009994447528,-6.86009994447528,-16.86009994447528
-33.86009994447528,-90.8600999444753,-95.8600999444753,-65.86009994447528,-88.8600999444753,15.139900055524723,161.13990005552472,195.13990005552472,173.13990005552472,123.1399000555247
89.1399000555247,59.13990005552472,-33.86009994447528,-126.8600999444753,-151.86009994447528,-95.8600999444753,-21.860099944475284,-42.86009994447528,-79.86009994447528,-58.86009994447528
-2.86009994447528,-60.86009994447528,-118.8600999444753,-28.860099944475284,51.13990005552472,66.13990005552472,139.13990005552472,96.1399000555247,-6.86009994447528,-33.86009994447528
-4.86009994447528,11.139900055524723,41.13990005552472,48.13990005552472,109.1399000555247,101.1399000555247,30.139900055524716,-16.86009994447528,-80.86009994447528,-98.8600999444753
-45.86009994447528,-26.860099944475284,-39.86009994447528,-40.86009994447528,-5.86009994447528,-28.860099944475284,3.13990005552472,41.13990005552472,14.139900055524723,-13.860099944475277
-19.86009994447528,5.13990005552472,-0.8600999444752802,-5.86009994447528,-19.86009994447528,-24.860099944475284,-18.86009994447528,-2.86009994447528,81.13990005552472,89.1399000555247
47.13990005552472,-31.860099944475284,-90.8600999444753,-32.86009994447528,64.13990005552472,94.1399000555247,61.13990005552472,-61.86009994447528,-89.8600999444753,-19.86009994447528
-18.86009994447528,7.13990005552472,44.13990005552472,34.13990005552472,-30.860099944475284,-41.86009994447528,73.13990005552472,71.13990005552472,-107.8600999444753,-229.86009994447528
-179.86009994447528,1.1399000555247198,160.13990005552472,298.13990005552466,230.13990005552472,120.1399000555247,-20.86009994447528,-137.86009994447528,-136.86009994447528,-71.86009994447528
2.13990005552472,69.13990005552472,39.13990005552472,-41.86009994447528,-116.8600999444753,-139.86009994447528,-139.86009994447528,-81.86009994447528,44.13990005552472,157.13990005552472
138.13990005552472,129.13990005552472,43.13990005552472,-90.8600999444753,-146.86009994447528,-116.8600999444753,-32.86009994447528,9.139900055524722,40.13990005552472,153.13990005552472
153.13990005552472,127.1399000555247,87.1399000555247,32.13990005552472,-11.860099944475277,-5.86009994447528,-104.8600999444753,-163.86009994447528,-145.86009994447528,-113.8600999444753
-47.86009994447528,17.13990005552472,41.13990005552472,29.139900055524716,-7.86009994447528,-2.86009994447528,-7.86009994447528,5.13990005552472,46.13990005552472,85.13990005552472
89.1399000555247,31.139900055524716,17.13990005552472,54.13990005552472,4.13990005552472,-77.86009994447528,-114.8600999444753,-126.8600999444753,-49.86009994447528,45.13990005552472
85.13990005552472,160.13990005552472,66.13990005552472,-40.86009994447528,-113.8600999444753,-41.86009994447528,149.13990005552472,155.13990005552472,20.13990005552472,-91.8600999444753
-196.86009994447528,-140.86009994447528,-54.86009994447528,102.1399000555247,133.13990005552472,112.1399000555247,14.139900055524723,-97.8600999444753,-135.86009994447528,-95.8600999444753
-26.860099944475284,-8.860099944475278,-10.860099944475277,-14.860099944475277,-51.86009994447528,-9.860099944475278,24.139900055524716,120.1399000555247,250.13990005552472,251.13990005552472
171.13990005552472,48.13990005552472,-117.8600999444753,-220.86009994447528,-194.86009994447528,-84.86009994447528,-73.86009994447528,-41.86009994447528,19.13990005552472,60.13990005552472
33.13990005552472,-16.86009994447528,-23.860099944475284,-59.86009994447528,-45.86009994447528,-17.86009994447528,38.13990005552472,99.1399000555247,91.1399000555247,30.139900055524716
-1.8600999444752802,-2.86009994447528,7.13990005552472,-13.860099944475277,-29.860099944475284,-34.86009994447528,93.1399000555247,139.13990005552472,38.13990005552472,-14.860099944475277
-87.8600999444753,-93.8600999444753,-43.86009994447528,10.139900055524722,7.13990005552472,-13.860099944475277,-12.860099944475277,-6.86009994447528,-57.86009994447528,-115.8600999444753
-83.86009994447528,-26.860099944475284,2.13990005552472,29.139900055524716,32.13990005552472,-8.860099944475278,23.139900055524716,132.13990005552472,266.13990005552466,219.13990005552472
98.1399000555247,15.139900055524723,-88.8600999444753,-163.86009994447528,-153.86009994447528,-169.86009994447528,-124.8600999444753,-10.860099944475277,53.13990005552472,113.1399000555247
148.13990005552472,33.13990005552472,-60.86009994447528,-9.860099944475278,5.13990005552472,-59.86009994447528,-85.86009994447528,-51.86009994447528,-13.860099944475277,30.139900055524716
57.13990005552472,47.13990005552472,1.1399000555247198,-46.86009994447528,-54.86009994447528,27.139900055524716,80.13990005552472,49.13990005552472,-21.860099944475284,-84.86009994447528
-127.8600999444753,-113.8600999444753,2.13990005552472,57.13990005552472,144.13990005552472,370.1399000555248,360.1399000555246,94.1399000555247,-151.86009994447528,-211.86009994447528
-206.86009994447528,-151.86009994447528,-110.8600999444753,-93.8600999444753,-62.86009994447528,-33.86009994447528,28.139900055524716,66.13990005552472,39.13990005552472,8.13990005552472
-6.86009994447528,21.13990005552472,85.13990005552472,118.1399000555247,44.13990005552472,-58.86009994447528,-139.86009994447528,-73.86009994447528,-25.860099944475284,34.13990005552472
148.13990005552472,232.13990005552472,162.13990005552472,34.13990005552472,-72.86009994447528,-147.86009994447528,-168.86009994447528,-164.86009994447528,-71.86009994447528,7.13990005552472
67.13990005552472,112.1399000555247,152.13990005552472,62.13990005552472,-58.86009994447528,-49.86009994447528,-13.860099944475277,-39.86009994447528,-40.86009994447528,-35.86009994447528
-11.860099944475277,-62.86009994447528,-19.86009994447528,45.13990005552472,49.13990005552472,37.13990005552472,53.13990005552472,84.13990005552472,32.13990005552472,-18.86009994447528
-51.86009994447528,-80.86009994447528,-13.860099944475277,60.13990005552472,68.13990005552472,13.139900055524723,-83.86009994447528,-124.8600999444753,-161.86009994447528,-139.86009994447528
-46.86009994447528,93.1399000555247,172.13990005552472,186.13990005552472,110.1399000555247,63.13990005552472,96.1399000555247,103.1399000555247,-54.86009994447528,-101.8600999444753
-105.8600999444753,-121.8600999444753,-98.8600999444753,-23.860099944475284,51.13990005552472,125.1399000555247,117.1399000555247,29.139900055524716,-78.86009994447528,-198.86009994447528
-254.86009994447528,-195.86009994447528,-33.86009994447528,132.13990005552472,214.13990005552472,208.13990005552472,136.13990005552472,50.13990005552472,24.139900055524716,10.139900055524722
-60.86009994447528,-83.86009994447528,-103.8600999444753,-80.86009994447528,-10.860099944475277,8.13990005552472,27.139900055524716,68.13990005552472,98.1399000555247,29.139900055524716
3.13990005552472,-28.860099944475284,-59.86009994447528,-43.86009994447528,37.13990005552472,50.13990005552472,1.1399000555247198,-42.86009994447528,-31.860099944475284,2.13990005552472
-80.86009994447528,-110.8600999444753,-105.8600999444753,-39.86009994447528,90.1399000555247,122.1399000555247,118.1399000555247,90.1399000555247,16.13990005552472,-22.860099944475284
19.13990005552472,62.13990005552472,16.13990005552472,-52.86009994447528,-62.86009994447528,-43.86009994447528,-28.860099944475284,-10.860099944475277,9.139900055524722,21.13990005552472
12.139900055524723,-14.860099944475277,-30.860099944475284,-40.86009994447528,-17.86009994447528,28.139900055524716,34.13990005552472,18.13990005552472,8.13990005552472,9.139900055524722
36.13990005552472,31.139900055524716,-26.860099944475284,-84.86009994447528,-139.86009994447528,-41.86009994447528,87.1399000555247,144.13990005552472,55.13990005552472,-68.86009994447528
-90.8600999444753,49.13990005552472,117.1399000555247,107.1399000555247,-3.86009994447528,-148.86009994447528,-158.86009994447528,-98.8600999444753,-1.8600999444752802,84.13990005552472
149.13990005552472,123.1399000555247,36.13990005552472,-9.860099944475278,-65.86009994447528,-67.86009994447528,4.13990005552472,89.1399000555247,75.13990005552472,-38.86009994447528
-113.8600999444753,-126.8600999444753,-132.86009994447528,-67.86009994447528,-74.86009994447528,-81.86009994447528,-46.86009994447528,26.139900055524716,158.13990005552472,229.13990005552472
218.13990005552472,187.13990005552472,56.13990005552472,-15.860099944475277,-7.86009994447528,-2.86009994447528,14.139900055524723,-53.86009994447528,-149.86009994447528,-211.86009994447528
-220.86009994447528,-123.8600999444753,-7.86009994447528,108.1399000555247,149.13990005552472,144.13990005552472,112.1399000555247,57.13990005552472,-60.86009994447528,-123.8600999444753
-141.86009994447528,-130.86009994447528,-36.86009994447528,105.1399000555247,144.13990005552472,111.1399000555247,68.13990005552472,62.13990005552472,27.139900055524716,-15.860099944475277
-21.860099944475284,-25.860099944475284,-18.86009994447528,-49.86009994447528,-20.86009994447528,-31.860099944475284,-32.86009994447528,-23.860099944475284,-77.86009994447528,-69.86009994447528
-38.86009994447528,2.13990005552472,52.13990005552472,120.1399000555247,55.13990005552472,-23.860099944475284,-39.86009994447528,-49.86009994447528,-0.8600999444752802,29.139900055524716
62.13990005552472,88.1399000555247,80.13990005552472,27.139900055524716,-49.86009994447528,-48.86009994447528,-28.860099944475284,-28.860099944475284,-42.86009994447528,-29.860099944475284
-68.86009994447528,-91.8600999444753,6.13990005552472,173.13990005552472,176.13990005552472,104.1399000555247,39.13990005552472,16.13990005552472,-2.86009994447528,-75.86009994447528
-118.8600999444753,-101.8600999444753,-85.86009994447528,-65.86009994447528,-2.86009994447528,29.139900055524716,67.13990005552472,95.1399000555247,62.13990005552472,17.13990005552472
-27.860099944475284,-54.86009994447528,-76.86009994447528,-30.860099944475284,25.139900055524716,17.13990005552472,-67.86009994447528,-130.86009994447528,-138.86009994447528,-32.86009994447528
120.1399000555247,271.13990005552466,325.13990005552466,134.13990005552472,-40.86009994447528,-107.8600999444753,-42.86009994447528,19.13990005552472,-62.86009994447528,-92.8600999444753
-49.86009994447528,-23.860099944475284,-20.86009994447528,-75.86009994447528,-112.8600999444753,-95.8600999444753,-55.86009994447528,-4.86009994447528,97.1399000555247,151.13990005552472
149.13990005552472,76.13990005552472,8.13990005552472,-57.86009994447528,-100.8600999444753,-83.86009994447528,-76.86009994447528,-91.8600999444753,-72.86009994447528,-58.86009994447528
40.13990005552472,149.13990005552472,233.13990005552472,214.13990005552472,90.1399000555247,3.13990005552472,-22.860099944475284,30.139900055524716,52.13990005552472,-31.860099944475284
-83.86009994447528,-117.8600999444753,-126.8600999444753,-71.86009994447528,-39.86009994447528,12.139900055524723,-19.86009994447528,-22.860099944475284,-11.860099944475277,-42.86009994447528
-36.86009994447528,-24.860099944475284,8.13990005552472,63.13990005552472,85.13990005552472,52.13990005552472,9.139900055524722,-19.86009994447528,23.139900055524716,45.13990005552472
58.13990005552472,8.13990005552472,-4.86009994447528,28.139900055524716,38.13990005552472,-14.860099944475277,-44.86009994447528,-54.86009994447528,-43.86009994447528,-29.860099944475284
4.13990005552472,9.139900055524722,8.13990005552472,0.13990005552471985,-46.86009994447528,-11.860099944475277,8.13990005552472,-34.86009994447528,-50.86009994447528,1.1399000555247198
44.13990005552472,52.13990005552472,22.139900055524716,22.139900055524716,-40.86009994447528,-113.8600999444753,-69.86009994447528,60.13990005552472,134.13990005552472,102.1399000555247
-2.86009994447528,-83.86009994447528,-42.86009994447528,60.13990005552472,128.13990005552472,81.13990005552472,-43.86009994447528,-147.86009994447528,-109.8600999444753,68.13990005552472
178.13990005552472,104.1399000555247,29.139900055524716,-48.86009994447528,-95.8600999444753,-89.8600999444753,-87.8600999444753,-61.86009994447528,-37.86009994447528,-48.86009994447528
-64.86009994447528,-75.86009994447528,2.13990005552472,90.1399000555247,128.13990005552472,115.1399000555247,37.13990005552472,-50.86009994447528,-67.86009994447528,-8.860099944475278
51.13990005552472,102.1399000555247,83.13990005552472,33.13990005552472,-17.86009994447528,-46.86009994447528,-102.8600999444753,-100.8600999444753,-6.86009994447528,31.139900055524716
15.139900055524723,19.13990005552472,-1.8600999444752802,-15.860099944475277,-34.86009994447528,-46.86009994447528,-59.86009994447528,-31.860099944475284,101.1399000555247,215.13990005552472
190.13990005552472,11.139900055524723,-77.86009994447528,-34.86009994447528,-79.86009994447528,-171.86009994447528,-153.86009994447528,-67.86009994447528,22.139900055524716,136.13990005552472
198.13990005552472,148.13990005552472,-10.860099944475277,-77.86009994447528,-68.86009994447528,-42.86009994447528,-24.860099944475284,12.139900055524723,52.13990005552472,16.13990005552472
-11.860099944475277,10.139900055524722,-62.86009994447528,-106.8600999444753,-84.86009994447528,-62.86009994447528,-10.860099944475277,42.13990005552472,72.13990005552472,39.13990005552472
24.139900055524716,13.139900055524723,44.13990005552472,6.13990005552472,-35.86009994447528,40.13990005552472,1.1399000555247198,-33.86009994447528,18.13990005552472,68.13990005552472
118.1399000555247,153.13990005552472,104.1399000555247,-32.86009994447528,-154.86009994447528,-226.86009994447528,-190.86009994447528,-83.86009994447528,-31.860099944475284,23.139900055524716
90.1399000555247,136.13990005552472,149.13990005552472,160.13990005552472,77.13990005552472,-42.86009994447528,-72.86009994447528,-61.86009994447528,-78.86009994447528,-87.8600999444753
-64.86009994447528,-22.860099944475284,-30.860099944475284,-25.860099944475284,-32.86009994447528,0.13990005552471985,6.13990005552472,41.13990005552472,49.13990005552472,71.13990005552472
56.13990005552472,26.139900055524716,1.1399000555247198,57.13990005552472,72.13990005552472,-17.86009994447528,-56.86009994447528,-88.8600999444753,-115.8600999444753,-139.86009994447528
-72.86009994447528,51.13990005552472,116.1399000555247,102.1399000555247,44.13990005552472,-1.8600999444752802,50.13990005552472,155.13990005552472,131.13990005552472,29.139900055524716
-46.86009994447528,-138.86009994447528,-152.86009994447528,-95.8600999444753,-78.86009994447528,-65.86009994447528,-52.86009994447528,-2.86009994447528,50.13990005552472,137.13990005552472
128.13990005552472,13.139900055524723,26.139900055524716,85.13990005552472,79.13990005552472,22.139900055524716,-35.86009994447528,-102.8600999444753,-93.8600999444753,-88.8600999444753
-88.8600999444753,-76.86009994447528,0.13990005552471985,27.139900055524716,-12.860099944475277,13.139900055524723,81.13990005552472,142.13990005552472,108.1399000555247,93.1399000555247
19.13990005552472,-76.86009994447528,-126.8600999444753,-124.8600999444753,-84.86009994447528,-2.86009994447528,29.139900055524716,65.13990005552472,48.13990005552472,-21.860099944475284
-64.86009994447528,-1.8600999444752802,33.13990005552472,15.139900055524723,15.139900055524723,49.13990005552472,98.1399000555247,76.13990005552472,43.13990005552472,-8.860099944475278
-111.8600999444753,-50.86009994447528,-46.86009994447528,-42.86009994447528,-20.86009994447528,-0.8600999444752802,-6.86009994447528,0.13990005552471985,-20.86009994447528,-7.86009994447528
16.13990005552472,25.139900055524716,29.139900055524716,-4.86009994447528,-57.86009994447528,-39.86009994447528,27.139900055524716,25.139900055524716,-23.860099944475284,-3.86009994447528
8.13990005552472,55.13990005552472,40.13990005552472,-9.860099944475278,8.13990005552472,51.13990005552472,93.1399000555247,76.13990005552472,-14.860099944475277,-99.8600999444753
-81.86009994447528,-16.86009994447528,16.13990005552472,4.13990005552472,-30.860099944475284,4.13990005552472,82.13990005552472,106.1399000555247,20.13990005552472,-77.86009994447528
-49.86009994447528,-79.86009994447528,-92.8600999444753,-59.86009994447528,-29.860099944475284,-2.86009994447528,33.13990005552472,56.13990005552472,41.13990005552472,13.139900055524723
17.13990005552472,-4.86009994447528,-76.86009994447528,-136.86009994447528,-148.86009994447528,-54.86009994447528,113.1399000555247,287.13990005552466,341.13990005552466,164.13990005552472
12.139900055524723,-75.86009994447528,-85.86009994447528,-81.86009994447528,-50.86009994447528,-14.860099944475277,-62.86009994447528,-74.86009994447528,-40.86009994447528,-40.86009994447528
-52.86009994447528,-67.86009994447528,-68.86009994447528,-27.860099944475284,72.13990005552472,125.1399000555247,66.13990005552472,34.13990005552472,53.13990005552472,21.13990005552472
-49.86009994447528,-11.860099944475277,21.13990005552472,33.13990005552472,89.1399000555247,20.13990005552472,-16.86009994447528,-49.86009994447528,-109.8600999444753,-126.8600999444753
-71.86009994447528,24.139900055524716,74.13990005552472,92.1399000555247,76.13990005552472,-4.86009994447528,-38.86009994447528,-33.86009994447528,-39.86009994447528,-51.86009994447528
-76.86009994447528,-95.8600999444753,-14.860099944475277,75.13990005552472,113.1399000555247,103.1399000555247,25.139900055524716,-43.86009994447528,-30.860099944475284,76.13990005552472
126.1399000555247,75.13990005552472,5.13990005552472,-15.860099944475277,-41.86009994447528,-61.86009994447528,-92.8600999444753,-113.8600999444753,-99.8600999444753,-58.86009994447528
-17.86009994447528,92.1399000555247,189.13990005552472,134.13990005552472,12.139900055524723,-74.86009994447528,-85.86009994447528,-62.86009994447528,-38.86009994447528,-13.860099944475277
10.139900055524722,14.139900055524723,-18.86009994447528,-2.86009994447528,13.139900055524723,21.13990005552472,46.13990005552472,31.139900055524716,6.13990005552472,12.139900055524723
61.13990005552472,84.13990005552472,53.13990005552472,16.13990005552472,-12.860099944475277,-18.86009994447528,-34.86009994447528,-60.86009994447528,-113.8600999444753,-141.86009994447528
-118.8600999444753,-67.86009994447528,23.139900055524716,168.13990005552472,196.13990005552472,67.13990005552472,-81.86009994447528,-122.8600999444753,-13.860099944475277,72.13990005552472
166.13990005552472,172.13990005552472,20.13990005552472,-70.86009994447528,-114.8600999444753,-145.86009994447528,-109.8600999444753,-58.86009994447528,-1.8600999444752802,88.1399000555247
119.1399000555247,73.13990005552472,14.139900055524723,-46.86009994447528,-75.86009994447528,-97.8600999444753,-113.8600999444753,-47.86009994447528,40.13990005552472,67.13990005552472
74.13990005552472,29.139900055524716,-31.860099944475284,-30.860099944475284,-9.860099944475278,115.1399000555247,181.13990005552472,142.13990005552472,63.13990005552472,-25.860099944475284
-89.8600999444753,-137.86009994447528,-119.8600999444753,-55.86009994447528,-31.860099944475284,-9.860099944475278,-12.860099944475277,-35.86009994447528,-8.860099944475278,41.13990005552472
27.139900055524716,-10.860099944475277,-10.860099944475277,-1.8600999444752802,54.13990005552472,90.1399000555247,71.13990005552472,45.13990005552472,11.139900055524723,-16.86009994447528
-30.860099944475284,-79.86009994447528,-99.8600999444753,-79.86009994447528,-65.86009994447528,-26.860099944475284,32.13990005552472,105.1399000555247,74.13990005552472,55.13990005552472
66.13990005552472,30.139900055524716,-3.86009994447528,1.1399000555247198,-5.86009994447528,26.139900055524716,63.13990005552472,16.13990005552472,-84.86009994447528,-151.86009994447528
-132.86009994447528,-78.86009994447528,-17.86009994447528,60.13990005552472,68.13990005552472,61.13990005552472,64.13990005552472,55.13990005552472,66.13990005552472,26.139900055524716
-40.86009994447528,-67.86009994447528,-35.86009994447528,-41.86009994447528,-5.86009994447528,22.139900055524716,-39.86009994447528,-61.86009994447528,-34.86009994447528,-19.86009994447528
43.13990005552472,107.1399000555247,77.13990005552472,33.13990005552472,-8.860099944475278,-13.860099944475277,-8.860099944475278,-8.860099944475278,-24.860099944475284,-10.860099944475277
40.13990005552472,38.13990005552472,-12.860099944475277,-64.86009994447528,-73.86009994447528,-27.860099944475284,-17.86009994447528,17.13990005552472,68.13990005552472,59.13990005552472
-4.86009994447528,-38.86009994447528,-41.86009994447528,33.13990005552472,67.13990005552472,68.13990005552472,60.13990005552472,25.139900055524716,-63.86009994447528,-106.8600999444753
-56.86009994447528,40.13990005552472,24.139900055524716,-10.860099944475277,-30.860099944475284,-9.860099944475278,-21.860099944475284,-72.86009994447528,-68.86009994447528,-19.86009994447528
32.13990005552472,82.13990005552472,84.13990005552472,61.13990005552472,52.13990005552472,-53.86009994447528,-104.8600999444753,-63.86009994447528,25.139900055524716,59.13990005552472
-2.86009994447528,-36.86009994447528,-19.86009994447528,-12.860099944475277,-10.860099944475277,-44.86009994447528,-21.860099944475284,62.13990005552472,101.1399000555247,116.1399000555247
136.13990005552472,125.1399000555247,38.13990005552472,-36.86009994447528,-89.8600999444753,-97.8600999444753,-101.8600999444753,-116.8600999444753,-111.8600999444753,-113.8600999444753
-58.86009994447528,4.13990005552472,113.1399000555247,243.13990005552472,245.13990005552472,124.1399000555247,-26.860099944475284,-99.8600999444753,-103.8600999444753,-111.8600999444753
-71.86009994447528,-49.86009994447528,-83.86009994447528,-60.86009994447528,-53.86009994447528,-28.860099944475284,38.13990005552472,89.1399000555247,113.1399000555247,120.1399000555247
117.1399000555247,69.13990005552472,-21.860099944475284,-69.86009994447528,-87.8600999444753,-68.86009994447528,-53.86009994447528,-46.86009994447528,-59.86009994447528,-53.86009994447528
-29.860099944475284,60.13990005552472,110.1399000555247,96.1399000555247,61.13990005552472,65.13990005552472,87.1399000555247,63.13990005552472,-7.86009994447528,-44.86009994447528
-74.86009994447528,-107.8600999444753,-100.8600999444753,-80.86009994447528,-56.86009994447528,-23.860099944475284,2.13990005552472,27.139900055524716,32.13990005552472,2.13990005552472
-10.860099944475277,47.13990005552472,51.13990005552472,61.13990005552472,73.13990005552472,45.13990005552472,32.13990005552472,-3.86009994447528,-17.86009994447528,-10.860099944475277
4.13990005552472,38.13990005552472,28.139900055524716,-26.860099944475284,-45.86009994447528,-32.86009994447528,-77.86009994447528,-137.86009994447528,-87.8600999444753,-0.8600999444752802
74.13990005552472,103.1399000555247,67.13990005552472,35.13990005552472,-15.860099944475277,-38.86009994447528,-38.86009994447528,0.13990005552471985,-14.860099944475277,-55.86009994447528
-43.86009994447528,-57.86009994447528,-58.86009994447528,5.13990005552472,66.13990005552472,164.13990005552472,164.13990005552472,93.1399000555247,77.13990005552472,-7.86009994447528
-122.8600999444753,-174.86009994447528,-135.86009994447528,-68.86009994447528,-30.860099944475284,140.13990005552472,214.13990005552472,98.1399000555247,13.139900055524723,18.13990005552472
-4.86009994447528,-16.86009994447528,26.139900055524716,6.13990005552472,-92.8600999444753,-162.86009994447528,-155.86009994447528,-77.86009994447528,-49.86009994447528,-27.860099944475284
28.139900055524716,90.1399000555247,20.13990005552472,-33.86009994447528,44.13990005552472,92.1399000555247,98.1399000555247,124.1399000555247,78.13990005552472,-33.86009994447528
-32.86009994447528,-96.8600999444753,-86.8600999444753,-34.86009994447528,38.13990005552472,104.1399000555247,38.13990005552472,-61.86009994447528,-87.8600999444753,-90.8600999444753
-81.86009994447528,-18.86009994447528,75.13990005552472,102.1399000555247,101.1399000555247,30.139900055524716,-4.86009994447528,-37.86009994447528,-62.86009994447528,4.13990005552472
30.139900055524716,19.13990005552472,-28.860099944475284,-65.86009994447528,12.139900055524723,72.13990005552472,16.13990005552472,-78.86009994447528,-73.86009994447528,8.13990005552472
124.1399000555247,147.13990005552472,-15.860099944475277,-108.8600999444753,-113.8600999444753,-38.86009994447528,48.13990005552472,58.13990005552472,9.139900055524722,-20.86009994447528
-26.860099944475284,-12.860099944475277,49.13990005552472,81.13990005552472,48.13990005552472,-19.86009994447528,-107.8600999444753,-118.8600999444753,-64.86009994447528,38.13990005552472
136.13990005552472,122.1399000555247,90.1399000555247,72.13990005552472,-24.860099944475284,-115.8600999444753,-102.8600999444753,-52.86009994447528,-31.860099944475284,-8.860099944475278
95.1399000555247,31.139900055524716,-23.860099944475284,-65.86009994447528,-62.86009994447528,17.13990005552472,29.139900055524716,-4.86009994447528,-81.86009994447528,-22.860099944475284
32.13990005552472,39.13990005552472,86.1399000555247,27.139900055524716,-54.86009994447528,-45.86009994447528,32.13990005552472,49.13990005552472,60.13990005552472,40.13990005552472
22.139900055524716,-12.860099944475277,-100.8600999444753,-94.8600999444753,-42.86009994447528,7.13990005552472,65.13990005552472,159.13990005552472,133.13990005552472,48.13990005552472
-71.86009994447528,-127.8600999444753,-123.8600999444753,-97.8600999444753,-67.86009994447528,11.139900055524723,121.1399000555247,167.13990005552472,107.1399000555247,-40.86009994447528
-129.86009994447528,-137.86009994447528,-91.8600999444753,1.1399000555247198,62.13990005552472,85.13990005552472,85.13990005552472,17.13990005552472,-23.860099944475284,-68.86009994447528
-45.86009994447528,-7.86009994447528,-18.86009994447528,-37.86009994447528,-7.86009994447528,56.13990005552472,83.13990005552472,80.13990005552472,103.1399000555247,113.1399000555247
42.13990005552472,-75.86009994447528,-150.86009994447528,-106.8600999444753,-26.860099944475284,33.13990005552472,15.139900055524723,-10.860099944475277,-61.86009994447528,-72.86009994447528
15.139900055524723,72.13990005552472,122.1399000555247,102.1399000555247,7.13990005552472,-59.86009994447528,-43.86009994447528,-15.860099944475277,6.13990005552472,31.139900055524716
-31.860099944475284,-92.8600999444753,-91.8600999444753,-131.86009994447528,-94.8600999444753,9.139900055524722,102.1399000555247,177.13990005552472,147.13990005552472,81.13990005552472
-8.860099944475278,-47.86009994447528,-52.86009994447528,-26.860099944475284,-11.860099944475277,-6.86009994447528,-15.860099944475277,-40.86009994447528,-63.86009994447528,-96.8600999444753
-46.86009994447528,136.13990005552472,232.13990005552472,129.13990005552472,-22.860099944475284,-39.86009994447528,-26.860099944475284,-22.860099944475284,3.13990005552472,-24.860099944475284
-49.86009994447528,-67.86009994447528,-85.86009994447528,-71.86009994447528,-41.86009994447528,-4.86009994447528,43.13990005552472,76.13990005552472,21.13990005552472,-18.86009994447528
5.13990005552472,-14.860099944475277,9.139900055524722,93.1399000555247,177.13990005552472,161.13990005552472,28.139900055524716,-75.86009994447528,-141.86009994447528,-151.86009994447528
-54.86009994447528,33.13990005552472,65.13990005552472,28.139900055524716,-42.86009994447528,-69.86009994447528,-93.8600999444753,-58.86009994447528,-50.86009994447528,-5.86009994447528
61.13990005552472,49.13990005552472,84.13990005552472,88.1399000555247,132.13990005552472,106.1399000555247,30.139900055524716,16.13990005552472,-17.86009994447528,-21.860099944475284
-30.860099944475284,-46.86009994447528,-29.860099944475284,-89.8600999444753,-136.86009994447528,-122.8600999444753,-71.86009994447528,38.13990005552472,96.1399000555247,84.13990005552472
4.13990005552472,-91.8600999444753,-123.8600999444753,-112.8600999444753,-14.860099944475277,173.13990005552472,242.13990005552472,183.13990005552472,99.1399000555247,31.139900055524716
-63.86009994447528,-118.8600999444753,-51.86009994447528,-6.86009994447528,-25.860099944475284,-16.86009994447528,-48.86009994447528,-62.86009994447528,-43.86009994447528,-69.86009994447528
-67.86009994447528,23.139900055524716,110.1399000555247,139.13990005552472,81.13990005552472,29.139900055524716,-19.86009994447528,-62.86009994447528,-110.8600999444753,-149.86009994447528
-118.8600999444753,-93.8600999444753,-89.8600999444753,16.13990005552472,214.13990005552472,391.1399000555248,418.1399000555248,163.13990005552472,-95.8600999444753,-177.86009994447528
-169.86009994447528,-136.86009994447528,-116.8600999444753,-120.8600999444753,-95.8600999444753,-52.86009994447528,-15.860099944475277,34.13990005552472,84.13990005552472,63.13990005552472
65.13990005552472,58.13990005552472,21.13990005552472,-24.860099944475284,-60.86009994447528,-8.860099944475278,25.139900055524716,2.13990005552472,11.139900055524723,52.13990005552472
45.13990005552472,-5.86009994447528,-30.860099944475284,-26.860099944475284,6.13990005552472,86.1399000555247,78.13990005552472,-21.860099944475284,-83.86009994447528,-121.8600999444753
-160.86009994447528,-83.86009994447528,77.13990005552472,96.1399000555247,67.13990005552472,124.1399000555247,93.1399000555247,69.13990005552472,0.13990005552471985,-55.86009994447528
-64.86009994447528,-85.86009994447528,-56.86009994447528,-34.86009994447528,-51.86009994447528,-33.86009994447528,49.13990005552472,70.13990005552472,55.13990005552472,7.13990005552472
-8.860099944475278,30.139900055524716,32.13990005552472,-19.86009994447528,-42.86009994447528,-31.860099944475284,-25.860099944475284,-52.86009994447528,-90.8600999444753,-61.86009994447528
-59.86009994447528,-30.860099944475284,88.1399000555247,209.13990005552472,201.13990005552472,157.13990005552472,18.13990005552472,-110.8600999444753,-129.86009994447528,-79.86009994447528
22.139900055524716,0.13990005552471985,-74.86009994447528,-55.86009994447528,-35.86009994447528,-13.860099944475277,52.13990005552472,89.1399000555247,53.13990005552472,10.139900055524722
40.13990005552472,17.13990005552472,-51.86009994447528,-94.8600999444753,-93.8600999444753,-83.86009994447528,-66.86009994447528,7.13990005552472,69.13990005552472,76.13990005552472
42.13990005552472,13.139900055524723,70.13990005552472,115.1399000555247,168.13990005552472,159.13990005552472,50.13990005552472,-85.86009994447528,-161.86009994447528,-156.86009994447528
-173.86009994447528,-143.86009994447528,-45.86009994447528,23.139900055524716,121.1399000555247,187.13990005552472,57.13990005552472,-112.8600999444753,-154.86009994447528,-117.8600999444753
-68.86009994447528,63.13990005552472,165.13990005552472,168.13990005552472,141.13990005552472,68.13990005552472,-13.860099944475277,-92.8600999444753,-81.86009994447528,-65.86009994447528
-43.86009994447528,-33.86009994447528,-47.86009994447528,-20.86009994447528,-21.860099944475284,-46.86009994447528,-39.86009994447528,-6.86009994447528,30.139900055524716,95.1399000555247
174.13990005552472,88.1399000555247,22.139900055524716,-7.86009994447528,-7.86009994447528,-51.86009994447528,1.1399000555247198,28.139900055524716,-30.860099944475284,-74.86009994447528
-28.860099944475284,19.13990005552472,1.1399000555247198,-59.86009994447528,-101.8600999444753,-73.86009994447528,13.139900055524723,86.1399000555247,138.13990005552472,116.1399000555247
19.13990005552472,-66.86009994447528,-81.86009994447528,-108.8600999444753,-96.8600999444753,-28.860099944475284,72.13990005552472,95.1399000555247,49.13990005552472,-11.860099944475277
10.139900055524722,50.13990005552472,13.139900055524723,18.13990005552472,25.139900055524716,-9.860099944475278,-50.86009994447528,-55.86009994447528,-6.86009994447528,31.139900055524716
20.13990005552472,-18.86009994447528,-5.86009994447528,14.139900055524723,-5.86009994447528,23.139900055524716,-5.86009994447528,-23.860099944475284,-34.86009994447528,-36.86009994447528
5.13990005552472,29.139900055524716,23.139900055524716,36.13990005552472,39.13990005552472,22.139900055524716,-30.860099944475284,-53.86009994447528,-34.86009994447528,-21.860099944475284
-12.860099944475277,-12.860099944475277,-7.86009994447528,48.13990005552472,-15.860099944475277,-77.86009994447528,-55.86009994447528,4.13990005552472,111.1399000555247,125.1399000555247
45.13990005552472,24.139900055524716,2.13990005552472,-27.860099944475284,-20.86009994447528,22.139900055524716,12.139900055524723,-16.86009994447528,-51.86009994447528,-55.86009994447528
-58.86009994447528,-51.86009994447528,-51.86009994447528,-21.860099944475284,23.139900055524716,14.139900055524723,-20.86009994447528,61.13990005552472,118.1399000555247,74.13990005552472
14.139900055524723,10.139900055524722,27.139900055524716,37.13990005552472,93.1399000555247,96.1399000555247,0.13990005552471985,-55.86009994447528,-144.86009994447528,-176.86009994447528
-155.86009994447528,-92.8600999444753,-31.860099944475284,3.13990005552472,12.139900055524723,11.139900055524723,64.13990005552472,138.13990005552472,174.13990005552472,107.1399000555247
48.13990005552472,-20.86009994447528,-79.86009994447528,-98.8600999444753,-122.8600999444753,-115.8600999444753,-86.8600999444753,-23.860099944475284,26.139900055524716,107.1399000555247
148.13990005552472,145.13990005552472,63.13990005552472,-12.860099944475277,-24.860099944475284,-52.86009994447528,-78.86009994447528,-47.86009994447528,-14.860099944475277,-1.8600999444752802
-7.86009994447528,-61.86009994447528,-75.86009994447528,-51.86009994447528,-8.860099944475278,88.1399000555247,159.13990005552472,162.13990005552472,81.13990005552472,26.139900055524716
5.13990005552472,-56.86009994447528,-66.86009994447528,-41.86009994447528,-54.86009994447528,-22.860099944475284,6.13990005552472,-27.860099944475284,-66.86009994447528,-83.86009994447528
-79.86009994447528,-30.860099944475284,41.13990005552472,129.13990005552472,179.13990005552472,92.1399000555247,-53.86009994447528,-84.86009994447528,-46.86009994447528,-20.86009994447528
-15.860099944475277,-11.860099944475277,-3.86009994447528,-2.86009994447528,-18.86009994447528,-11.860099944475277,-1.8600999444752802,34.13990005552472,61.13990005552472,13.139900055524723
-41.86009994447528,-69.86009994447528,-93.8600999444753,-108.8600999444753,-4.86009994447528,156.13990005552472,303.13990005552466,247.13990005552472,83.13990005552472,-71.86009994447528
-144.86009994447528,-158.86009994447528,-127.8600999444753,-61.86009994447528,-8.860099944475278,-12.860099944475277,-18.86009994447528,0.13990005552471985,-18.86009994447528,-34.86009994447528
-13.860099944475277,50.13990005552472,122.1399000555247,87.1399000555247,50.13990005552472,-24.860099944475284,-75.86009994447528,-85.86009994447528,-81.86009994447528,-53.86009994447528
-9.860099944475278,63.13990005552472,99.1399000555247,77.13990005552472,61.13990005552472,32.13990005552472,-34.86009994447528,-72.86009994447528,-62.86009994447528,-55.86009994447528
-7.86009994447528,22.139900055524716,31.139900055524716,17.13990005552472,44.13990005552472,34.13990005552472,17.13990005552472,13.139900055524723,9.139900055524722,-5.86009994447528
-42.86009994447528,-88.8600999444753,-29.860099944475284,33.13990005552472,74.13990005552472,37.13990005552472,-0.8600999444752802,30.139900055524716,37.13990005552472,-3.86009994447528
-20.86009994447528,-9.860099944475278,-59.86009994447528,-70.86009994447528,-67.86009994447528,-57.86009994447528,41.13990005552472,67.13990005552472,8.13990005552472,-23.860099944475284
12.139900055524723,65.13990005552472,41.13990005552472,-34.86009994447528,-61.86009994447528,-37.86009994447528,-27.860099944475284,-7.86009994447528,-9.860099944475278,-15.860099944475277
-10.860099944475277,50.13990005552472,97.1399000555247,65.13990005552472,34.13990005552472,-17.86009994447528,-1.8600999444752802,24.139900055524716,38.13990005552472,8.13990005552472
-19.86009994447528,-65.86009994447528,-114.8600999444753,-84.86009994447528,-8.860099944475278,39.13990005552472,44.13990005552472,56.13990005552472,70.13990005552472,-11.860099944475277
-62.86009994447528,-38.86009994447528,18.13990005552472,78.13990005552472,123.1399000555247,101.1399000555247,4.13990005552472,-62.86009994447528,-79.86009994447528,-81.86009994447528
-90.8600999444753,-75.86009994447528,-71.86009994447528,-80.86009994447528,-43.86009994447528,13.139900055524723,69.13990005552472,132.13990005552472,166.13990005552472,102.1399000555247
36.13990005552472,16.13990005552472,-5.86009994447528,-24.860099944475284,-53.86009994447528,-46.86009994447528,-39.86009994447528,-38.86009994447528,-15.860099944475277,-44.86009994447528
-45.86009994447528,-22.860099944475284,-38.86009994447528,-35.86009994447528,-1.8600999444752802,30.139900055524716,43.13990005552472,64.13990005552472,62.13990005552472,56.13990005552472
8.13990005552472,-19.86009994447528,-19.86009994447528,-34.86009994447528,-79.86009994447528,-31.860099944475284,40.13990005552472,78.13990005552472,35.13990005552472,-16.86009994447528
-20.86009994447528,-6.86009994447528,-25.860099944475284,-73.86009994447528,-89.8600999444753,-40.86009994447528,88.1399000555247,150.13990005552472,152.13990005552472,73.13990005552472
-26.860099944475284,-63.86009994447528,-20.86009994447528,21.13990005552472,-19.86009994447528,-57.86009994447528,-53.86009994447528,-22.860099944475284,7.13990005552472,-7.86009994447528
-10.860099944475277,-36.86009994447528,-47.86009994447528,-0.8600999444752802,35.13990005552472,34.13990005552472,33.13990005552472,18.13990005552472,8.13990005552472,-8.860099944475278
-17.86009994447528,-22.860099944475284,-49.86009994447528,-65.86009994447528,-50.86009994447528,-12.860099944475277,66.13990005552472,95.1399000555247,99.1399000555247,62.13990005552472
39.13990005552472,1.1399000555247198,-46.86009994447528,-62.86009994447528,-67.86009994447528,-74.86009994447528,-10.860099944475277,89.1399000555247,63.13990005552472,3.13990005552472
-30.860099944475284,-46.86009994447528,-25.860099944475284,-19.86009994447528,-12.860099944475277,40.13990005552472,53.13990005552472,2.13990005552472,-29.860099944475284,36.13990005552472
88.1399000555247,27.139900055524716,-29.860099944475284,-57.86009994447528,-24.860099944475284,-7.86009994447528,12.139900055524723,14.139900055524723,-10.860099944475277,-17.86009994447528
-23.860099944475284,-53.86009994447528,-79.86009994447528,-102.8600999444753,-100.8600999444753,-44.86009994447528,89.1399000555247,200.13990005552472,169.13990005552472,128.13990005552472
69.13990005552472,12.139900055524723,-22.860099944475284,-55.86009994447528,-73.86009994447528,-63.86009994447528,-30.860099944475284,16.13990005552472,2.13990005552472,-56.86009994447528
-85.86009994447528,-84.86009994447528,0.13990005552471985,82.13990005552472,102.1399000555247,53.13990005552472,46.13990005552472,-1.8600999444752802,-41.86009994447528,-3.86009994447528
68.13990005552472,93.1399000555247,-32.86009994447528,-156.86009994447528,-96.8600999444753,-6.86009994447528,33.13990005552472,74.13990005552472,68.13990005552472,16.13990005552472
-50.86009994447528,-90.8600999444753,-105.8600999444753,-74.86009994447528,-7.86009994447528,54.13990005552472,60.13990005552472,48.13990005552472,76.13990005552472,62.13990005552472
52.13990005552472,5.13990005552472,-52.86009994447528,-93.8600999444753,-100.8600999444753,-77.86009994447528,-29.860099944475284,28.139900055524716,38.13990005552472,66.13990005552472
56.13990005552472,34.13990005552472,38.13990005552472,103.1399000555247,117.1399000555247,6.13990005552472,-126.8600999444753,-128.86009994447528,-103.8600999444753,-87.8600999444753
1.1399000555247198,32.13990005552472,4.13990005552472,-4.86009994447528,23.139900055524716,62.13990005552472,92.1399000555247,94.1399000555247,83.13990005552472,30.139900055524716
-56.86009994447528,-108.8600999444753,-118.8600999444753,-50.86009994447528,3.13990005552472,50.13990005552472,51.13990005552472,-19.86009994447528,-73.86009994447528,-44.86009994447528
-18.86009994447528,0.13990005552471985,58.13990005552472,86.1399000555247,40.13990005552472,56.13990005552472,87.1399000555247,76.13990005552472,47.13990005552472,-31.860099944475284
-113.8600999444753,-75.86009994447528,-62.86009994447528,-68.86009994447528,-73.86009994447528,-81.86009994447528,-79.86009994447528,-52.86009994447528,-39.86009994447528,71.13990005552472
212.13990005552472,241.13990005552472,81.13990005552472,-46.86009994447528,-83.86009994447528,-18.86009994447528,79.13990005552472,56.13990005552472,4.13990005552472,-9.860099944475278
-36.86009994447528,-103.8600999444753,-94.8600999444753,-66.86009994447528,-47.86009994447528,17.13990005552472,-0.8600999444752802,-27.860099944475284,11.139900055524723,28.139900055524716
56.13990005552472,104.1399000555247,72.13990005552472,13.139900055524723,-83.86009994447528,-110.8600999444753,-22.860099944475284,61.13990005552472,41.13990005552472,-24.860099944475284
-64.86009994447528,-32.86009994447528,97.1399000555247,205.13990005552472,115.1399000555247,-52.86009994447528,-190.86009994447528,-165.86009994447528,-90.8600999444753,-6.86009994447528
45.13990005552472,59.13990005552472,25.139900055524716,-20.86009994447528,-37.86009994447528,-22.860099944475284,3.13990005552472,9.139900055524722,40.13990005552472,92.1399000555247
104.1399000555247,89.1399000555247,17.13990005552472,-36.86009994447528,-95.8600999444753,-124.8600999444753,-93.8600999444753,-22.860099944475284,61.13990005552472,99.1399000555247
94.1399000555247,63.13990005552472,5.13990005552472,-62.86009994447528,-60.86009994447528,-93.8600999444753,-74.86009994447528,2.13990005552472,39.13990005552472,1.1399000555247198
14.139900055524723,101.1399000555247,169.13990005552472,122.1399000555247,67.13990005552472,29.139900055524716,-98.8600999444753,-194.86009994447528,-163.86009994447528,-95.8600999444753
-2.86009994447528,17.13990005552472,20.13990005552472,10.139900055524722,9.139900055524722,-16.86009994447528,8.13990005552472,40.13990005552472,24.139900055524716,19.13990005552472
11.139900055524723,32.13990005552472,102.1399000555247,38.13990005552472,-33.86009994447528,-45.86009994447528,-49.86009994447528,-58.86009994447528,-59.86009994447528,-31.860099944475284
-23.860099944475284,26.139900055524716,106.1399000555247,114.1399000555247,61.13990005552472,-19.86009994447528,-70.86009994447528,-67.86009994447528,-60.86009994447528,6.13990005552472
132.13990005552472,107.1399000555247,67.13990005552472,-47.86009994447528,-169.86009994447528,-166.86009994447528,-68.86009994447528,88.1399000555247,160.13990005552472,79.13990005552472
-2.86009994447528,-43.86009994447528,-48.86009994447528,-39.86009994447528,2.13990005552472,18.13990005552472,41.13990005552472,-17.86009994447528,-79.86009994447528,-70.86009994447528
-41.86009994447528,0.13990005552471985,33.13990005552472,42.13990005552472,17.13990005552472,2.13990005552472,-7.86009994447528,-0.8600999444752802,15.139900055524723,-3.86009994447528
-18.86009994447528,-20.86009994447528,-11.860099944475277,0.13990005552471985,8.13990005552472,23.139900055524716,69.13990005552472,118.1399000555247,88.1399000555247,52.13990005552472
34.13990005552472,10.139900055524722,-35.86009994447528,-59.86009994447528,-53.86009994447528,-38.86009994447528,-50.86009994447528,-69.86009994447528,-73.86009994447528,-28.860099944475284
-2.86009994447528,-3.86009994447528,21.13990005552472,4.13990005552472,-39.86009994447528,10.139900055524722,182.13990005552472,185.13990005552472,40.13990005552472,-75.86009994447528
-90.8600999444753,-61.86009994447528,-51.86009994447528,-78.86009994447528,-107.8600999444753,-52.86009994447528,17.13990005552472,56.13990005552472,67.13990005552472,43.13990005552472
16.13990005552472,9.139900055524722,25.139900055524716,103.1399000555247,89.1399000555247,22.139900055524716,36.13990005552472,-8.860099944475278,-76.86009994447528,-103.8600999444753
-91.8600999444753,-70.86009994447528,-51.86009994447528,-35.86009994447528,-14.860099944475277,24.139900055524716,55.13990005552472,76.13990005552472,84.13990005552472,53.13990005552472
23.139900055524716,-26.860099944475284,-19.86009994447528,-30.860099944475284,-73.86009994447528,-58.86009994447528,-8.860099944475278,75.13990005552472,75.13990005552472,-0.8600999444752802
0.13990005552471985,-15.860099944475277,-38.86009994447528,-65.86009994447528,-92.8600999444753,27.139900055524716,150.13990005552472,119.1399000555247,63.13990005552472,-14.860099944475277
-54.86009994447528,-48.86009994447528,-10.860099944475277,-11.860099944475277,-10.860099944475277,-45.86009994447528,-39.86009994447528,-1.8600999444752802,21.13990005552472,24.139900055524716
0.13990005552471985,-44.86009994447528,-101.8600999444753,-116.8600999444753,-65.86009994447528,50.13990005552472,208.13990005552472,249.13990005552472,115.1399000555247,19.13990005552472
-8.860099944475278,-20.86009994447528,-52.86009994447528,-84.86009994447528,-103.8600999444753,-72.86009994447528,-22.860099944475284,11.139900055524723,-5.86009994447528,-5.86009994447528
29.139900055524716,26.139900055524716,10.139900055524722,-37.86009994447528,-61.86009994447528,-15.860099944475277,50.13990005552472,37.13990005552472,34.13990005552472,3.13990005552472
-26.860099944475284,-65.86009994447528,-46.86009994447528,28.139900055524716,48.13990005552472,84.13990005552472,88.1399000555247,29.139900055524716,-46.86009994447528,-79.86009994447528
-60.86009994447528,-11.860099944475277,17.13990005552472,17.13990005552472,13.139900055524723,9.139900055524722,31.139900055524716,-10.860099944475277,-37.86009994447528,-39.86009994447528
-27.860099944475284,5.13990005552472,6.13990005552472,-12.860099944475277,4.13990005552472,5.13990005552472,22.139900055524716,50.13990005552472,67.13990005552472,38.13990005552472
38.13990005552472,-19.86009994447528,-76.86009994447528,-59.86009994447528,-14.860099944475277,48.13990005552472,61.13990005552472,30.139900055524716,-6.86009994447528,-26.860099944475284
-27.860099944475284,7.13990005552472,9.139900055524722,-15.860099944475277,-53.86009994447528,-53.86009994447528,-25.860099944475284,-15.860099944475277,20.13990005552472,-17.86009994447528
-33.86009994447528,-14.860099944475277,21.13990005552472,85.13990005552472,134.13990005552472,130.13990005552472,67.13990005552472,-30.860099944475284,-120.8600999444753,-141.86009994447528
-128.86009994447528,-82.86009994447528,4.13990005552472,20.13990005552472,39.13990005552472,73.13990005552472,80.13990005552472,62.13990005552472,20.13990005552472,9.139900055524722
-23.860099944475284,-3.86009994447528,-3.86009994447528,-10.860099944475277,-30.860099944475284,-27.860099944475284,-14.860099944475277,-9.860099944475278,-6.86009994447528,-19.86009994447528
-29.860099944475284,-9.860099944475278,32.13990005552472,56.13990005552472,51.13990005552472,20.13990005552472,-4.86009994447528,-18.86009994447528,-34.86009994447528,-1.8600999444752802
11.139900055524723,-8.860099944475278,-17.86009994447528,36.13990005552472,85.13990005552472,76.13990005552472,56.13990005552472,-35.86009994447528,-155.86009994447528,-147.86009994447528
-66.86009994447528,33.13990005552472,87.1399000555247,46.13990005552472,8.13990005552472,-2.86009994447528,-14.860099944475277,1.1399000555247198,20.13990005552472,4.13990005552472
-27.860099944475284,-13.860099944475277,-1.8600999444752802,-13.860099944475277,-23.860099944475284,-17.86009994447528,-6.86009994447528,44.13990005552472,57.13990005552472,32.13990005552472
-1.8600999444752802,-6.86009994447528,-14.860099944475277,-4.86009994447528,8.13990005552472,7.13990005552472,10.139900055524722,19.13990005552472,2.13990005552472,-11.860099944475277
-10.860099944475277,-2.86009994447528,14.139900055524723,-27.860099944475284,-70.86009994447528,-67.86009994447528,-57.86009994447528,-45.86009994447528,-4.86009994447528,39.13990005552472
67.13990005552472,50.13990005552472,7.13990005552472,-14.860099944475277,-5.86009994447528,43.13990005552472,20.13990005552472,56.13990005552472,164.13990005552472,111.1399000555247
-45.86009994447528,-99.8600999444753,-92.8600999444753,-55.86009994447528,-57.86009994447528,-65.86009994447528,-54.86009994447528,-9.860099944475278,22.139900055524716,35.13990005552472
64.13990005552472,80.13990005552472,70.13990005552472,33.13990005552472,-1.8600999444752802,3.13990005552472,24.139900055524716,-6.86009994447528,-49.86009994447528,-37.86009994447528
-34.86009994447528,-49.86009994447528,-62.86009994447528,-38.86009994447528,1.1399000555247198,35.13990005552472,53.13990005552472,60.13990005552472,27.139900055524716,-24.860099944475284
-41.86009994447528,-77.86009994447528,-119.8600999444753,-102.8600999444753,-32.86009994447528,61.13990005552472,154.13990005552472,201.13990005552472,94.1399000555247,-26.860099944475284
-47.86009994447528,25.139900055524716,80.13990005552472,134.13990005552472,34.13990005552472,-73.86009994447528,-121.8600999444753,-138.86009994447528,-91.8600999444753,-36.86009994447528
-6.86009994447528,19.13990005552472,25.139900055524716,32.13990005552472,21.13990005552472,-12.860099944475277,-31.860099944475284,-11.860099944475277,-34.86009994447528,-57.86009994447528
-17.86009994447528,45.13990005552472,106.1399000555247,77.13990005552472,9.139900055524722,-27.860099944475284,-14.860099944475277,10.139900055524722,36.13990005552472,22.139900055524716
-13.860099944475277,-34.86009994447528,-23.860099944475284,-31.860099944475284,-85.86009994447528,-63.86009994447528,-18.86009994447528,4.13990005552472,7.13990005552472,3.13990005552472
72.13990005552472,100.1399000555247,81.13990005552472,47.13990005552472,41.13990005552472,7.13990005552472,-65.86009994447528,-47.86009994447528,-8.860099944475278,-10.860099944475277
-50.86009994447528,-30.860099944475284,49.13990005552472,59.13990005552472,2.13990005552472,-15.860099944475277,-63.86009994447528,-110.8600999444753,-97.8600999444753,-26.860099944475284
93.1399000555247,164.13990005552472,148.13990005552472,115.1399000555247,62.13990005552472,-44.86009994447528,-115.8600999444753,-98.8600999444753,-71.86009994447528,-58.86009994447528
-42.86009994447528,-43.86009994447528,-26.860099944475284,6.13990005552472,10.139900055524722,6.13990005552472,21.13990005552472,22.139900055524716,22.139900055524716,12.139900055524723
-11.860099944475277,-11.860099944475277,12.139900055524723,6.13990005552472,41.13990005552472,81.13990005552472,116.1399000555247,97.1399000555247,-0.8600999444752802,-68.86009994447528
-84.86009994447528,-101.8600999444753,-83.86009994447528,-61.86009994447528,-13.860099944475277,10.139900055524722,21.13990005552472,18.13990005552472,26.139900055524716,77.13990005552472
72.13990005552472,-23.860099944475284,-69.86009994447528,-71.86009994447528,-31.860099944475284,20.13990005552472,41.13990005552472,72.13990005552472,85.13990005552472,-9.860099944475278
-81.86009994447528,-41.86009994447528,11.139900055524723,26.139900055524716,25.139900055524716,41.13990005552472,-4.86009994447528,-30.860099944475284,5.13990005552472,19.13990005552472
7.13990005552472,-27.860099944475284,-30.860099944475284,3.13990005552472,-53.86009994447528,-85.86009994447528,-31.860099944475284,24.139900055524716,30.139900055524716,14.139900055524723
-8.860099944475278,-49.86009994447528,-31.860099944475284,70.13990005552472,117.1399000555247,117.1399000555247,99.1399000555247,29.139900055524716,-10.860099944475277,-10.860099944475277
-85.86009994447528,-126.8600999444753,-95.8600999444753,-44.86009994447528,-7.86009994447528,33.13990005552472,43.13990005552472,48.13990005552472,35.13990005552472,18.13990005552472
13.139900055524723,-21.860099944475284,-19.86009994447528,-25.860099944475284,7.13990005552472,29.139900055524716,-9.860099944475278,-34.86009994447528,-42.86009994447528,-18.86009994447528
-14.860099944475277,-17.86009994447528,-2.86009994447528,-3.86009994447528,8.13990005552472,23.139900055524716,49.13990005552472,80.13990005552472,81.13990005552472,40.13990005552472
-4.86009994447528,-40.86009994447528,-74.86009994447528,-52.86009994447528,-12.860099944475277,-7.86009994447528,7.13990005552472,-2.86009994447528,10.139900055524722,21.13990005552472
35.13990005552472,22.139900055524716,-13.860099944475277,-27.860099944475284,-41.86009994447528,-49.86009994447528,-40.86009994447528,-30.860099944475284,-14.860099944475277,-28.860099944475284
-8.860099944475278,32.13990005552472,91.1399000555247,98.1399000555247,74.13990005552472,32.13990005552472,-17.86009994447528,-31.860099944475284,-10.860099944475277,-2.86009994447528
-17.86009994447528,-40.86009994447528,-36.86009994447528,-26.860099944475284,-16.86009994447528,-9.860099944475278,-12.860099944475277,12.139900055524723,13.139900055524723,-14.860099944475277
17.13990005552472,29.139900055524716,31.139900055524716,94.1399000555247,89.1399000555247,2.13990005552472,-24.860099944475284,-19.86009994447528,-30.860099944475284,-68.86009994447528
-86.8600999444753,-72.86009994447528,-27.860099944475284,27.139900055524716,29.139900055524716,27.139900055524716,0.13990005552471985,4.13990005552472,22.139900055524716,46.13990005552472
51.13990005552472,43.13990005552472,-10.860099944475277,-55.86009994447528,-39.86009994447528,3.13990005552472,1.1399000555247198,-19.86009994447528,-3.86009994447528,6.13990005552472
-13.860099944475277,-26.860099944475284,23.139900055524716,56.13990005552472,24.139900055524716,-3.86009994447528,-24.860099944475284,-56.86009994447528,-36.86009994447528,21.13990005552472
59.13990005552472,75.13990005552472,112.1399000555247,94.1399000555247,0.13990005552471985,-84.86009994447528,-115.8600999444753,-130.86009994447528,-108.8600999444753,-70.86009994447528
-2.86009994447528,90.1399000555247,139.13990005552472,156.13990005552472,81.13990005552472,3.13990005552472,-97.8600999444753,-138.86009994447528,-106.8600999444753,-78.86009994447528
-34.86009994447528,6.13990005552472,61.13990005552472,57.13990005552472,27.139900055524716,48.13990005552472,89.1399000555247,66.13990005552472,11.139900055524723,-40.86009994447528
-52.86009994447528,-54.86009994447528,-36.86009994447528,-15.860099944475277,19.13990005552472,32.13990005552472,2.13990005552472,-9.860099944475278,-19.86009994447528,-34.86009994447528
-67.86009994447528,-58.86009994447528,-38.86009994447528,-41.86009994447528,-49.86009994447528,16.13990005552472,197.13990005552472,301.13990005552466,321.13990005552466,155.13990005552472
-28.860099944475284,-118.8600999444753,-162.86009994447528,-165.86009994447528,-142.86009994447528,-108.8600999444753,-79.86009994447528,-55.86009994447528,-32.86009994447528,21.13990005552472
79.13990005552472,52.13990005552472,-7.86009994447528,-23.860099944475284,-31.860099944475284,-30.860099944475284,-2.86009994447528,17.13990005552472,35.13990005552472,89.1399000555247
98.1399000555247,74.13990005552472,34.13990005552472,12.139900055524723,-47.86009994447528,-112.8600999444753,-82.86009994447528,-42.86009994447528,-12.860099944475277,16.13990005552472
69.13990005552472,152.13990005552472,102.1399000555247,10.139900055524722,-47.86009994447528,-63.86009994447528,-46.86009994447528,6.13990005552472,8.13990005552472,-29.860099944475284
-11.860099944475277,-10.860099944475277,-24.860099944475284,-24.860099944475284,-40.86009994447528,-54.86009994447528,-25.860099944475284,-5.86009994447528,7.13990005552472,53.13990005552472
57.13990005552472,13.139900055524723,6.13990005552472,-1.8600999444752802,-3.86009994447528,3.13990005552472,-4.86009994447528,-22.860099944475284,1.1399000555247198,0.13990005552471985
-27.860099944475284,-44.86009994447528,-13.860099944475277,1.1399000555247198,35.13990005552472,56.13990005552472,35.13990005552472,22.139900055524716,-3.86009994447528,-38.86009994447528
-6.86009994447528,55.13990005552472,68.13990005552472,35.13990005552472,-7.86009994447528,-29.860099944475284,-32.86009994447528,-23.860099944475284,-13.860099944475277,-12.860099944475277
-12.860099944475277,-4.86009994447528,-22.860099944475284,-58.86009994447528,-76.86009994447528,-18.86009994447528,93.1399000555247,157.13990005552472,174.13990005552472,139.13990005552472
64.13990005552472,-27.860099944475284,-87.8600999444753,-100.8600999444753,-129.86009994447528,-118.8600999444753,-91.8600999444753,-62.86009994447528,-36.86009994447528,-15.860099944475277
26.139900055524716,49.13990005552472,55.13990005552472,38.13990005552472,4.13990005552472,0.13990005552471985,16.13990005552472,-14.860099944475277,-66.86009994447528,-87.8600999444753
-46.86009994447528,24.139900055524716,70.13990005552472,161.13990005552472,213.13990005552472,165.13990005552472,28.139900055524716,-141.86009994447528,-234.86009994447528,-196.86009994447528
-52.86009994447528,131.13990005552472,231.13990005552472,205.13990005552472,94.1399000555247,-30.860099944475284,-125.8600999444753,-199.86009994447528,-174.86009994447528,-97.8600999444753
-16.86009994447528,9.139900055524722,1.1399000555247198,2.13990005552472,12.139900055524723,39.13990005552472,50.13990005552472,6.13990005552472,-36.86009994447528,-16.86009994447528
22.139900055524716,40.13990005552472,70.13990005552472,128.13990005552472,155.13990005552472,57.13990005552472,-91.8600999444753,-108.8600999444753,-56.86009994447528,-36.86009994447528
-35.86009994447528,-25.860099944475284,-21.860099944475284,-16.86009994447528,0.13990005552471985,-2.86009994447528,-12.860099944475277,-8.860099944475278,9.139900055524722,4.13990005552472
11.139900055524723,15.139900055524723,39.13990005552472,21.13990005552472,-10.860099944475277,-14.860099944475277,-2.86009994447528,5.13990005552472,-9.860099944475278,-21.860099944475284
-4.86009994447528,-4.86009994447528,-14.860099944475277,3.13990005552472,24.139900055524716,-6.86009994447528,-3.86009994447528,29.139900055524716,120.1399000555247,139.13990005552472
52.13990005552472,-91.8600999444753,-106.8600999444753,-86.8600999444753,-37.86009994447528,49.13990005552472,30.139900055524716,-17.86009994447528,-28.860099944475284,-33.86009994447528
-12.860099944475277,-55.86009994447528,-77.86009994447528,-39.86009994447528,10.139900055524722,47.13990005552472,93.1399000555247,92.1399000555247,90.1399000555247,82.13990005552472
14.139900055524723,-29.860099944475284,-43.86009994447528,-29.860099944475284,-9.860099944475278,-1.8600999444752802,-21.860099944475284,-35.86009994447528,-47.86009994447528,-59.86009994447528
-43.86009994447528,-26.860099944475284,-19.86009994447528,-8.860099944475278,1.1399000555247198,25.139900055524716,35.13990005552472,40.13990005552472,24.139900055524716,17.13990005552472
37.13990005552472,72.13990005552472,48.13990005552472,-4.86009994447528,-55.86009994447528,-28.860099944475284,-28.860099944475284,-55.86009994447528,-73.86009994447528,-115.8600999444753
-113.8600999444753,6.13990005552472,154.13990005552472,214.13990005552472,217.13990005552472,131.13990005552472,25.139900055524716,-43.86009994447528,-58.86009994447528,-83.86009994447528
-80.86009994447528,-73.86009994447528,-81.86009994447528,-63.86009994447528,-39.86009994447528,-20.86009994447528,-10.860099944475277,-2.86009994447528,4.13990005552472,5.13990005552472
13.139900055524723,13.139900055524723,14.139900055524723,16.13990005552472,17.13990005552472,12.139900055524723,-0.8600999444752802,-4.86009994447528,-5.86009994447528,-4.86009994447528
-11.860099944475277,3.13990005552472,11.139900055524723,48.13990005552472,47.13990005552472,56.13990005552472,12.139900055524723,-0.8600999444752802,6.13990005552472,0.13990005552471985
45.13990005552472,8.13990005552472,-69.86009994447528,-70.86009994447528,-38.86009994447528,8.13990005552472,43.13990005552472,57.13990005552472,36.13990005552472,-11.860099944475277
-44.86009994447528,-6.86009994447528,40.13990005552472,8.13990005552472,-23.860099944475284,20.13990005552472,19.13990005552472,-35.86009994447528,-85.86009994447528,-67.86009994447528
-50.86009994447528,-31.860099944475284,-8.860099944475278,9.139900055524722,27.139900055524716,35.13990005552472,14.139900055524723,3.13990005552472,9.139900055524722,8.13990005552472
4.13990005552472,5.13990005552472,-5.86009994447528,-30.860099944475284,-55.86009994447528,-67.86009994447528,-78.86009994447528,-23.860099944475284,56.13990005552472,115.1399000555247
149.13990005552472,146.13990005552472,163.13990005552472,101.1399000555247,-8.860099944475278,-70.86009994447528,-120.8600999444753,-74.86009994447528,-49.86009994447528,-30.860099944475284
-15.860099944475277,-14.860099944475277,-1.8600999444752802,9.139900055524722,7.13990005552472,-14.860099944475277,-23.860099944475284,-17.86009994447528,-1.8600999444752802,-25.860099944475284
-23.860099944475284,-9.860099944475278,-28.860099944475284,-32.86009994447528,-13.860099944475277,3.13990005552472,3.13990005552472,12.139900055524723,18.13990005552472,15.139900055524723
27.139900055524716,33.13990005552472,23.139900055524716,-10.860099944475277,-23.860099944475284,-17.86009994447528,-25.860099944475284,-21.860099944475284,-15.860099944475277,-26.860099944475284
12.139900055524723,26.139900055524716,19.13990005552472,66.13990005552472,126.1399000555247,156.13990005552472,105.1399000555247,37.13990005552472,-31.860099944475284,-129.86009994447528
-176.86009994447528,-158.86009994447528,-92.8600999444753,-0.8600999444752802,77.13990005552472,88.1399000555247,36.13990005552472,15.139900055524723,13.139900055524723,22.139900055524716
36.13990005552472,5.13990005552472,-20.86009994447528,-33.86009994447528,6.13990005552472,5.13990005552472,0.13990005552471985,-15.860099944475277,-41.86009994447528,-46.86009994447528
-62.86009994447528,-75.86009994447528,-51.86009994447528,-8.860099944475278,27.139900055524716,94.1399000555247,110.1399000555247,87.1399000555247,114.1399000555247,152.13990005552472
63.13990005552472,-70.86009994447528,-165.86009994447528,-145.86009994447528,-106.8600999444753,-72.86009994447528,-24.860099944475284,28.139900055524716,70.13990005552472,88.1399000555247
28.139900055524716,-46.86009994447528,-81.86009994447528,-0.8600999444752802,33.13990005552472,51.13990005552472,79.13990005552472,67.13990005552472,7.13990005552472,-10.860099944475277
-14.860099944475277,-14.860099944475277,-14.860099944475277,-32.86009994447528,-39.86009994447528,-26.860099944475284,-7.86009994447528,4.13990005552472,-20.86009994447528,-56.86009994447528
-71.86009994447528,-22.860099944475284,37.13990005552472,112.1399000555247,104.1399000555247,65.13990005552472,46.13990005552472,43.13990005552472,-19.86009994447528,-94.8600999444753
-99.8600999444753,-67.86009994447528,-47.86009994447528,-55.86009994447528,-19.86009994447528,36.13990005552472,65.13990005552472,44.13990005552472,-11.860099944475277,-13.860099944475277
40.13990005552472,81.13990005552472,73.13990005552472,53.13990005552472,-8.860099944475278,-95.8600999444753,-98.8600999444753,-26.860099944475284,25.139900055524716,44.13990005552472
65.13990005552472,84.13990005552472,65.13990005552472,-0.8600999444752802,-39.86009994447528,-46.86009994447528,-23.860099944475284,-42.86009994447528,-14.860099944475277,4.13990005552472
2.13990005552472,-41.86009994447528,-62.86009994447528,-34.86009994447528,-27.860099944475284,-17.86009994447528,-17.86009994447528,13.139900055524723,48.13990005552472,54.13990005552472
76.13990005552472,128.13990005552472,84.13990005552472,-21.860099944475284,-91.8600999444753,-119.8600999444753,-121.8600999444753,-91.8600999444753,-57.86009994447528,-1.8600999444752802
73.13990005552472,84.13990005552472,60.13990005552472,59.13990005552472,56.13990005552472,33.13990005552472,-6.86009994447528,-94.8600999444753,-71.86009994447528,-34.86009994447528
-7.86009994447528,28.139900055524716,54.13990005552472,33.13990005552472,27.139900055524716,12.139900055524723,22.139900055524716,142.13990005552472,177.13990005552472,108.1399000555247
-17.86009994447528,-101.8600999444753,-149.86009994447528,-135.86009994447528,-97.8600999444753,-98.8600999444753,-68.86009994447528,-62.86009994447528,-34.86009994447528,-34.86009994447528
-43.86009994447528,41.13990005552472,162.13990005552472,147.13990005552472,92.1399000555247,56.13990005552472,30.139900055524716,-16.86009994447528,-13.860099944475277,-9.860099944475278
-50.86009994447528,-100.8600999444753,-120.8600999444753,-62.86009994447528,3.13990005552472,37.13990005552472,54.13990005552472,68.13990005552472,94.1399000555247,36.13990005552472
-38.86009994447528,-69.86009994447528,-64.86009994447528,-13.860099944475277,36.13990005552472,84.13990005552472,36.13990005552472,-25.860099944475284,-38.86009994447528,-22.860099944475284
-19.86009994447528,35.13990005552472,42.13990005552472,91.1399000555247,66.13990005552472,-7.86009994447528,-40.86009994447528,-87.8600999444753,-138.86009994447528,-124.8600999444753
-39.86009994447528,70.13990005552472,125.1399000555247,101.1399000555247,44.13990005552472,-28.860099944475284,-57.86009994447528,-64.86009994447528,3.13990005552472,72.13990005552472
92.1399000555247,42.13990005552472,-15.860099944475277,-36.86009994447528,-11.860099944475277,-30.860099944475284,-60.86009994447528,-61.86009994447528,-23.860099944475284,-5.86009994447528
3.13990005552472,45.13990005552472,68.13990005552472,70.13990005552472,58.13990005552472,21.13990005552472,-2.86009994447528,-12.860099944475277,-90.8600999444753,-110.8600999444753
-82.86009994447528,-30.860099944475284,61.13990005552472,79.13990005552472,116.1399000555247,80.13990005552472,-30.860099944475284,-69.86009994447528,-81.86009994447528,-64.86009994447528
17.13990005552472,40.13990005552472,102.1399000555247,102.1399000555247,-9.860099944475278,-94.8600999444753,-79.86009994447528,-71.86009994447528,-56.86009994447528,-9.860099944475278
24.139900055524716,36.13990005552472,18.13990005552472,10.139900055524722,10.139900055524722,64.13990005552472,12.139900055524723,-59.86009994447528,-33.86009994447528,3.13990005552472
79.13990005552472,124.1399000555247,112.1399000555247,80.13990005552472,28.139900055524716,-98.8600999444753,-161.86009994447528,-162.86009994447528,-154.86009994447528,-17.86009994447528
91.1399000555247,75.13990005552472,11.139900055524723,-63.86009994447528,-62.86009994447528,-20.86009994447528,75.13990005552472,171.13990005552472,153.13990005552472,125.1399000555247
51.13990005552472,-39.86009994447528,-109.8600999444753,-110.8600999444753,-107.8600999444753,-122.8600999444753,-62.86009994447528,25.139900055524716,11.139900055524723,12.139900055524723
36.13990005552472,99.1399000555247,147.13990005552472,101.1399000555247,-8.860099944475278,-49.86009994447528,-66.86009994447528,-100.8600999444753,-94.8600999444753,-79.86009994447528
-17.86009994447528,45.13990005552472,66.13990005552472,49.13990005552472,11.139900055524723,-5.86009994447528,-9.860099944475278,-47.86009994447528,-31.860099944475284,17.13990005552472
93.1399000555247,40.13990005552472,27.139900055524716,3.13990005552472,16.13990005552472,22.139900055524716,-3.86009994447528,-33.86009994447528,-90.8600999444753,-101.8600999444753
-30.860099944475284,15.139900055524723,38.13990005552472,72.13990005552472,57.13990005552472,44.13990005552472,9.139900055524722,-19.86009994447528,-9.860099944475278,12.139900055524723
-1.8600999444752802,-32.86009994447528,-78.86009994447528,-57.86009994447528,-13.860099944475277,51.13990005552472,116.1399000555247,120.1399000555247,78.13990005552472,-3.86009994447528
-46.86009994447528,-75.86009994447528,-107.8600999444753,-63.86009994447528,-20.86009994447528,-32.86009994447528,7.13990005552472,62.13990005552472,33.13990005552472,-11.860099944475277
-35.86009994447528,-51.86009994447528,-47.86009994447528,-32.86009994447528,-4.86009994447528,35.13990005552472,108.1399000555247,160.13990005552472,113.1399000555247,19.13990005552472
-83.86009994447528,-119.8600999444753,-124.8600999444753,-62.86009994447528,-9.860099944475278,4.13990005552472,71.13990005552472,104.1399000555247,38.13990005552472,-25.860099944475284
-58.86009994447528,-45.86009994447528,0.13990005552471985,115.1399000555247,228.13990005552472,179.13990005552472,67.13990005552472,-22.860099944475284,-156.86009994447528,-269.86009994447534
-229.86009994447528,-129.86009994447528,-13.860099944475277,29.139900055524716,63.13990005552472,61.13990005552472,16.13990005552472,85.13990005552472,68.13990005552472,65.13990005552472
51.13990005552472,65.13990005552472,14.139900055524723,4.13990005552472,-31.860099944475284,-82.86009994447528,-152.86009994447528,-114.8600999444753,-33.86009994447528,59.13990005552472
70.13990005552472,23.139900055524716,7.13990005552472,42.13990005552472,37.13990005552472,10.139900055524722,-34.86009994447528,-31.860099944475284,15.139900055524723,61.13990005552472
148.13990005552472,130.13990005552472,29.139900055524716,-76.86009994447528,-147.86009994447528,-138.86009994447528,-107.8600999444753,-56.86009994447528,-23.860099944475284,31.139900055524716
117.1399000555247,128.13990005552472,48.13990005552472,-22.860099944475284,-69.86009994447528,-46.86009994447528,8.13990005552472,24.139900055524716,83.13990005552472,113.1399000555247
2.13990005552472,-142.86009994447528,-215.86009994447528,-226.86009994447528,-181.86009994447528,-26.860099944475284,171.13990005552472,299.13990005552466,285.13990005552466,209.13990005552472
105.1399000555247,30.139900055524716,-60.86009994447528,-94.8600999444753,-126.8600999444753,-123.8600999444753,-83.86009994447528,-48.86009994447528,-33.86009994447528,-13.860099944475277
-6.86009994447528,-26.860099944475284,-58.86009994447528,-41.86009994447528,7.13990005552472,3.13990005552472,-23.860099944475284,26.139900055524716,85.13990005552472,102.1399000555247
121.1399000555247,113.1399000555247,75.13990005552472,-14.860099944475277,-113.8600999444753,-155.86009994447528,-142.86009994447528,-58.86009994447528,16.13990005552472,51.13990005552472
93.1399000555247,163.13990005552472,93.1399000555247,11.139900055524723,-71.86009994447528,-161.86009994447528,-161.86009994447528,-90.8600999444753,-44.86009994447528,-5.86009994447528
54.13990005552472,165.13990005552472,254.13990005552472,217.13990005552472,50.13990005552472,-51.86009994447528,-34.86009994447528,-71.86009994447528,-130.86009994447528,-121.8600999444753
-58.86009994447528,18.13990005552472,-24.860099944475284,-74.86009994447528,-64.86009994447528,-35.86009994447528,-11.860099944475277,34.13990005552472,7.13990005552472,-35.86009994447528
17.13990005552472,100.1399000555247,152.13990005552472,102.1399000555247,-32.86009994447528,-53.86009994447528,-55.86009994447528,-74.86009994447528,-34.86009994447528,30.139900055524716
40.13990005552472,4.13990005552472,-25.860099944475284,-36.86009994447528,-35.86009994447528,15.139900055524723,77.13990005552472,66.13990005552472,16.13990005552472,-36.86009994447528
-31.860099944475284,4.13990005552472,49.13990005552472,33.13990005552472,17.13990005552472,6.13990005552472,90.1399000555247,147.13990005552472,96.1399000555247,0.13990005552471985
-90.8600999444753,-124.8600999444753,-167.86009994447528,-169.86009994447528,-149.86009994447528,-82.86009994447528,-49.86009994447528,40.13990005552472,66.13990005552472,76.13990005552472
126.1399000555247,200.13990005552472,181.13990005552472,69.13990005552472,-39.86009994447528,-88.8600999444753,-68.86009994447528,-68.86009994447528,-19.86009994447528,5.13990005552472
-18.86009994447528,-24.860099944475284,-52.86009994447528,-65.86009994447528,-73.86009994447528,-35.86009994447528,25.139900055524716,80.13990005552472,75.13990005552472,21.13990005552472
-2.86009994447528,-43.86009994447528,-67.86009994447528,40.13990005552472,123.1399000555247,103.1399000555247,28.139900055524716,-78.86009994447528,-114.8600999444753,-98.8600999444753
-9.860099944475278,56.13990005552472,62.13990005552472,154.13990005552472,157.13990005552472,-1.8600999444752802,-136.86009994447528,-166.86009994447528,-118.8600999444753,-61.86009994447528
-23.860099944475284,42.13990005552472,76.13990005552472,53.13990005552472,11.139900055524723,-20.86009994447528,-7.86009994447528,-3.86009994447528,-12.860099944475277,4.13990005552472
52.13990005552472,43.13990005552472,14.139900055524723,4.13990005552472,-6.86009994447528,38.13990005552472,59.13990005552472,-4.86009994447528,-65.86009994447528,-36.86009994447528
-66.86009994447528,-119.8600999444753,-91.8600999444753,83.13990005552472,144.13990005552472,108.1399000555247,75.13990005552472,86.1399000555247,50.13990005552472,-39.86009994447528
-83.86009994447528,-113.8600999444753,-93.8600999444753,-93.8600999444753,-91.8600999444753,-34.86009994447528,-3.86009994447528,35.13990005552472,109.1399000555247,81.13990005552472
28.139900055524716,-2.86009994447528,6.13990005552472,1.1399000555247198,-67.86009994447528,-25.860099944475284,76.13990005552472,144.13990005552472,139.13990005552472,17.13990005552472
-74.86009994447528,2.13990005552472,29.139900055524716,-40.86009994447528,-78.86009994447528,-82.86009994447528,-67.86009994447528,-91.8600999444753,-87.8600999444753,-34.86009994447528
-13.860099944475277,46.13990005552472,79.13990005552472,42.13990005552472,62.13990005552472,88.1399000555247,78.13990005552472,35.13990005552472,16.13990005552472,-37.86009994447528
-69.86009994447528,-43.86009994447528,-36.86009994447528,-65.86009994447528,-93.8600999444753,-121.8600999444753,-103.8600999444753,-65.86009994447528,7.13990005552472,145.13990005552472
228.13990005552472,209.13990005552472,180.13990005552472,121.1399000555247,0.13990005552471985,-97.8600999444753,-118.8600999444753,-112.8600999444753,-116.8600999444753,-87.8600999444753
-71.86009994447528,-25.860099944475284,-4.86009994447528,22.139900055524716,84.13990005552472,96.1399000555247,30.139900055524716,-62.86009994447528,-80.86009994447528,-2.86009994447528
49.13990005552472,51.13990005552472,90.1399000555247,45.13990005552472,-20.86009994447528,-73.86009994447528,-94.8600999444753,-26.860099944475284,42.13990005552472,53.13990005552472
58.13990005552472,103.1399000555247,71.13990005552472,-32.86009994447528,-71.86009994447528,-103.8600999444753,-122.8600999444753,-103.8600999444753,-30.860099944475284,31.139900055524716
61.13990005552472,24.139900055524716,-24.860099944475284,15.139900055524723,74.13990005552472,104.1399000555247,121.1399000555247,78.13990005552472,8.13990005552472,-55.86009994447528
-88.8600999444753,-125.8600999444753,-90.8600999444753,-45.86009994447528,-5.86009994447528,48.13990005552472,74.13990005552472,19.13990005552472,-72.86009994447528,-92.8600999444753
-34.86009994447528,52.13990005552472,139.13990005552472,200.13990005552472,112.1399000555247,0.13990005552471985,-78.86009994447528,-113.8600999444753,-86.8600999444753,-33.86009994447528
-67.86009994447528,-97.8600999444753,-28.860099944475284,21.13990005552472,77.13990005552472,65.13990005552472,100.1399000555247,153.13990005552472,84.13990005552472,-38.86009994447528
-110.8600999444753,-141.86009994447528,-124.8600999444753,-111.8600999444753,-130.86009994447528,-35.86009994447528,113.1399000555247,219.13990005552472,177.13990005552472,103.1399000555247
77.13990005552472,64.13990005552472,16.13990005552472,-86.8600999444753,-108.8600999444753,-131.86009994447528,-92.8600999444753,-4.86009994447528,71.13990005552472,67.13990005552472
1.1399000555247198,-58.86009994447528,-90.8600999444753,-51.86009994447528,-62.86009994447528,-25.860099944475284,12.139900055524723,88.1399000555247,113.1399000555247,110.1399000555247
60.13990005552472,35.13990005552472,2.13990005552472,-17.86009994447528,-43.86009994447528,-82.86009994447528,-111.8600999444753,-80.86009994447528,-22.860099944475284,14.139900055524723
33.13990005552472,-19.86009994447528,-36.86009994447528,-2.86009994447528,34.13990005552472,61.13990005552472,84.13990005552472,92.1399000555247,53.13990005552472,-18.86009994447528
-59.86009994447528,-46.86009994447528,-33.86009994447528,-72.86009994447528,-147.86009994447528,-87.8600999444753,16.13990005552472,164.13990005552472,203.13990005552472,100.1399000555247
11.139900055524723,-6.86009994447528,-4.86009994447528,15.139900055524723,24.139900055524716,13.139900055524723,24.139900055524716,-60.86009994447528,-117.8600999444753,-140.86009994447528
-86.8600999444753,-6.86009994447528,24.139900055524716,33.13990005552472,-11.860099944475277,-38.86009994447528,-10.860099944475277,-10.860099944475277,27.139900055524716,97.1399000555247
120.1399000555247,75.13990005552472,47.13990005552472,-28.860099944475284,-86.8600999444753,-18.86009994447528,-6.86009994447528,8.13990005552472,12.139900055524723,-39.86009994447528
-33.86009994447528,-27.860099944475284,-4.86009994447528,-19.86009994447528,-62.86009994447528,-26.860099944475284,7.13990005552472,12.139900055524723,14.139900055524723,25.139900055524716
51.13990005552472,37.13990005552472,15.139900055524723,1.1399000555247198,-54.86009994447528,-52.86009994447528,-58.86009994447528,-60.86009994447528,7.13990005552472,53.13990005552472
49.13990005552472,101.1399000555247,100.1399000555247,-22.860099944475284,-70.86009994447528,-63.86009994447528,20.13990005552472,57.13990005552472,0.13990005552471985,-7.86009994447528
3.13990005552472,28.139900055524716,75.13990005552472,95.1399000555247,76.13990005552472,-19.86009994447528,-96.8600999444753,-114.8600999444753,-127.8600999444753,-54.86009994447528
5.13990005552472,73.13990005552472,104.1399000555247,58.13990005552472,-33.86009994447528,-89.8600999444753,-69.86009994447528,32.13990005552472,70.13990005552472,24.139900055524716
-30.860099944475284,-66.86009994447528,-65.86009994447528,-43.86009994447528,-26.860099944475284,30.139900055524716,99.1399000555247,104.1399000555247,138.13990005552472,63.13990005552472
-76.86009994447528,-140.86009994447528,-157.86009994447528,-76.86009994447528,-17.86009994447528,29.139900055524716,96.1399000555247,134.13990005552472,125.1399000555247,37.13990005552472
-65.86009994447528,-109.8600999444753,-52.86009994447528,-4.86009994447528,-10.860099944475277,-30.860099944475284,-17.86009994447528,-8.860099944475278,6.13990005552472,-0.8600999444752802
3.13990005552472,50.13990005552472,35.13990005552472,-15.860099944475277,-57.86009994447528,-63.86009994447528,2.13990005552472,113.1399000555247,118.1399000555247,81.13990005552472
17.13990005552472,-56.86009994447528,-66.86009994447528,-85.86009994447528,-109.8600999444753,-63.86009994447528,17.13990005552472,88.1399000555247,154.13990005552472,110.1399000555247
-7.86009994447528,-79.86009994447528,-90.8600999444753,-74.86009994447528,19.13990005552472,94.1399000555247,88.1399000555247,33.13990005552472,-65.86009994447528,-99.8600999444753
-68.86009994447528,-7.86009994447528,-28.860099944475284,-5.86009994447528,13.139900055524723,6.13990005552472,11.139900055524723,-1.8600999444752802,49.13990005552472,88.1399000555247
42.13990005552472,-19.86009994447528,-39.86009994447528,-63.86009994447528,-61.86009994447528,4.13990005552472,61.13990005552472,94.1399000555247,73.13990005552472,7.13990005552472
-5.86009994447528,-83.86009994447528,-185.86009994447528,-120.8600999444753,-21.860099944475284,68.13990005552472,184.13990005552472,147.13990005552472,-2.86009994447528,-98.8600999444753
-91.8600999444753,-17.86009994447528,36.13990005552472,65.13990005552472,37.13990005552472,-22.860099944475284,-20.86009994447528,40.13990005552472,80.13990005552472,46.13990005552472
-5.86009994447528,-46.86009994447528,-76.86009994447528,-110.8600999444753,-62.86009994447528,10.139900055524722,62.13990005552472,68.13990005552472,76.13990005552472,48.13990005552472
-26.860099944475284,-118.8600999444753,-89.8600999444753,-7.86009994447528,52.13990005552472,57.13990005552472,14.139900055524723,-38.86009994447528,-30.860099944475284,22.139900055524716
52.13990005552472,-22.860099944475284,-53.86009994447528,-24.860099944475284,3.13990005552472,2.13990005552472,8.13990005552472,52.13990005552472,27.139900055524716,-70.86009994447528
-81.86009994447528,-7.86009994447528,67.13990005552472,108.1399000555247,110.1399000555247,56.13990005552472,19.13990005552472,-58.86009994447528,-142.86009994447528,-74.86009994447528
6.13990005552472,63.13990005552472,134.13990005552472,143.13990005552472,40.13990005552472,-70.86009994447528,-139.86009994447528,-135.86009994447528,-73.86009994447528,-14.860099944475277
58.13990005552472,47.13990005552472,23.139900055524716,-13.860099944475277,-51.86009994447528,-34.86009994447528,-13.860099944475277,-22.860099944475284,-44.86009994447528,-17.86009994447528
66.13990005552472,72.13990005552472,96.1399000555247,57.13990005552472,-0.8600999444752802,3.13990005552472,-31.860099944475284,-60.86009994447528,-49.86009994447528,-75.86009994447528
-110.8600999444753,-82.86009994447528,-7.86009994447528,97.1399000555247,140.13990005552472,120.1399000555247,122.1399000555247,110.1399000555247,28.139900055524716,-51.86009994447528
-84.86009994447528,-86.8600999444753,-49.86009994447528,-10.860099944475277,14.139900055524723,-11.860099944475277,-1.8600999444752802,25.139900055524716,21.13990005552472,23.139900055524716
37.13990005552472,-21.860099944475284,-57.86009994447528,-75.86009994447528,-100.8600999444753,-88.8600999444753,-12.860099944475277,101.1399000555247,132.13990005552472,21.13990005552472
-31.860099944475284,-114.8600999444753,-137.86009994447528,-65.86009994447528,48.13990005552472,206.13990005552472,311.13990005552466,193.13990005552472,20.13990005552472,-115.8600999444753
-164.86009994447528,-131.86009994447528,-63.86009994447528,-31.860099944475284,-24.860099944475284,18.13990005552472,51.13990005552472,39.13990005552472,33.13990005552472,-81.86009994447528
-40.86009994447528,45.13990005552472,86.1399000555247,75.13990005552472,31.139900055524716,-24.860099944475284,-68.86009994447528,-66.86009994447528,-84.86009994447528,-103.8600999444753
-76.86009994447528,-62.86009994447528,-19.86009994447528,74.13990005552472,161.13990005552472,185.13990005552472,109.1399000555247,69.13990005552472,45.13990005552472,-10.860099944475277
-83.86009994447528,-126.8600999444753,-41.86009994447528,-30.860099944475284,-65.86009994447528,-64.86009994447528,-63.86009994447528,-32.86009994447528,19.13990005552472,49.13990005552472
59.13990005552472,71.13990005552472,111.1399000555247,100.1399000555247,20.13990005552472,-55.86009994447528,-91.8600999444753,-95.8600999444753,-53.86009994447528,-42.86009994447528
-86.8600999444753,-61.86009994447528,22.139900055524716,71.13990005552472,103.1399000555247,106.1399000555247,81.13990005552472,66.13990005552472,19.13990005552472,-43.86009994447528
-64.86009994447528,-45.86009994447528,-14.860099944475277,-1.8600999444752802,-15.860099944475277,-33.86009994447528,-25.860099944475284,4.13990005552472,9.139900055524722,-28.860099944475284
-34.86009994447528,-11.860099944475277,-27.860099944475284,-0.8600999444752802,41.13990005552472,109.1399000555247,182.13990005552472,173.13990005552472,61.13990005552472,-26.860099944475284
-33.86009994447528,-54.86009994447528,-97.8600999444753,-123.8600999444753,-95.8600999444753,-54.86009994447528,-15.860099944475277,-11.860099944475277,-26.860099944475284,-53.86009994447528
-57.86009994447528,-39.86009994447528,-17.86009994447528,67.13990005552472,95.1399000555247,69.13990005552472,78.13990005552472,31.139900055524716,55.13990005552472,19.13990005552472
-55.86009994447528,-24.860099944475284,8.13990005552472,-16.86009994447528,-46.86009994447528,-37.86009994447528,-46.86009994447528,-67.86009994447528,-55.86009994447528,10.139900055524722
76.13990005552472,64.13990005552472,85.13990005552472,75.13990005552472,112.1399000555247,77.13990005552472,-22.860099944475284,-103.8600999444753,-87.8600999444753,-54.86009994447528
-39.86009994447528,-33.86009994447528,-31.860099944475284,-75.86009994447528,-116.8600999444753,-60.86009994447528,72.13990005552472,231.13990005552472,231.13990005552472,93.1399000555247
20.13990005552472,-43.86009994447528,-75.86009994447528,-66.86009994447528,-62.86009994447528,-2.86009994447528,-1.8600999444752802,-59.86009994447528,-81.86009994447528,-75.86009994447528
-30.860099944475284,15.139900055524723,59.13990005552472,108.1399000555247,97.1399000555247,39.13990005552472,54.13990005552472,42.13990005552472,-15.860099944475277,-26.860099944475284
-1.8600999444752802,-66.86009994447528,-96.8600999444753,-82.86009994447528,-63.86009994447528,-35.86009994447528,-20.86009994447528,-16.86009994447528,-34.86009994447528,-38.86009994447528
7.13990005552472,86.1399000555247,140.13990005552472,194.13990005552472,158.13990005552472,27.139900055524716,-44.86009994447528,-75.86009994447528,-129.86009994447528,-142.86009994447528
-175.86009994447528,-97.8600999444753,19.13990005552472,87.1399000555247,130.13990005552472,111.1399000555247,51.13990005552472,59.13990005552472,93.1399000555247,89.1399000555247
69.13990005552472,-2.86009994447528,-54.86009994447528,-70.86009994447528,-106.8600999444753,-111.8600999444753,-75.86009994447528,-24.860099944475284,-1.8600999444752802,-21.860099944475284
-3.86009994447528,29.139900055524716,13.139900055524723,-11.860099944475277,0.13990005552471985,-2.86009994447528,-6.86009994447528,5.13990005552472,6.13990005552472,8.13990005552472
30.139900055524716,32.13990005552472,18.13990005552472,4.13990005552472,-6.86009994447528,-23.860099944475284,-46.86009994447528,-52.86009994447528,-13.860099944475277,42.13990005552472
68.13990005552472,54.13990005552472,43.13990005552472,27.139900055524716,20.13990005552472,-38.86009994447528,-56.86009994447528,-22.860099944475284,-17.86009994447528,61.13990005552472
104.1399000555247,-2.86009994447528,-58.86009994447528,-4.86009994447528,0.13990005552471985,-2.86009994447528,-28.860099944475284,-45.86009994447528,-33.86009994447528,-25.860099944475284
-34.86009994447528,-34.86009994447528,-9.860099944475278,-46.86009994447528,-15.860099944475277,42.13990005552472,86.1399000555247,121.1399000555247,50.13990005552472,-10.860099944475277
6.13990005552472,-3.86009994447528,-5.86009994447528,50.13990005552472,93.1399000555247,65.13990005552472,24.139900055524716,-35.86009994447528,-127.8600999444753,-131.86009994447528
-120.8600999444753,-116.8600999444753,-57.86009994447528,44.13990005552472,102.1399000555247,115.1399000555247,95.1399000555247,31.139900055524716,-25.860099944475284,-88.8600999444753
-99.8600999444753,-63.86009994447528,-56.86009994447528,13.139900055524723,90.1399000555247,81.13990005552472,70.13990005552472,-13.860099944475277,-79.86009994447528,-33.86009994447528
104.1399000555247,215.13990005552472,243.13990005552472,122.1399000555247,-98.8600999444753,-149.86009994447528,-153.86009994447528,-147.86009994447528,-98.8600999444753,-50.86009994447528
-27.860099944475284,-19.86009994447528,28.139900055524716,24.139900055524716,-48.86009994447528,-68.86009994447528,-38.86009994447528,-5.86009994447528,5.13990005552472,34.13990005552472
86.1399000555247,186.13990005552472,137.13990005552472,20.13990005552472,-65.86009994447528,-108.8600999444753,-52.86009994447528,8.13990005552472,57.13990005552472,105.1399000555247
33.13990005552472,-55.86009994447528,-91.8600999444753,-56.86009994447528,-29.860099944475284,-7.86009994447528,19.13990005552472,26.139900055524716,3.13990005552472,-70.86009994447528
-76.86009994447528,-12.860099944475277,-2.86009994447528,24.139900055524716,205.13990005552472,259.13990005552466,67.13990005552472,-36.86009994447528,-74.86009994447528,-60.86009994447528
-42.86009994447528,-27.860099944475284,-16.86009994447528,-45.86009994447528,-148.86009994447528,-191.86009994447528,-126.8600999444753,-21.860099944475284,57.13990005552472,134.13990005552472
140.13990005552472,166.13990005552472,121.1399000555247,92.1399000555247,67.13990005552472,5.13990005552472,-108.8600999444753,-183.86009994447528,-140.86009994447528,-98.8600999444753
-56.86009994447528,26.139900055524716,77.13990005552472,105.1399000555247,100.1399000555247,31.139900055524716,-42.86009994447528,-62.86009994447528,-49.86009994447528,-6.86009994447528
58.13990005552472,66.13990005552472,40.13990005552472,-15.860099944475277,-38.86009994447528,-11.860099944475277,-16.86009994447528,-27.860099944475284,-12.860099944475277,9.139900055524722
20.13990005552472,8.13990005552472,-8.860099944475278,-22.860099944475284,-30.860099944475284,19.13990005552472,15.139900055524723,-4.86009994447528,-42.86009994447528,-82.86009994447528
-119.8600999444753,-107.8600999444753,76.13990005552472,199.13990005552472,161.13990005552472,87.1399000555247,20.13990005552472,25.139900055524716,-13.860099944475277,-55.86009994447528
-50.86009994447528,-44.86009994447528,-66.86009994447528,-89.8600999444753,-94.8600999444753,-31.860099944475284,48.13990005552472,83.13990005552472,84.13990005552472,-6.86009994447528
-40.86009994447528,-23.860099944475284,82.13990005552472,137.13990005552472,68.13990005552472,-33.86009994447528,-75.86009994447528,-24.860099944475284,38.13990005552472,24.139900055524716
-60.86009994447528,-105.8600999444753,-109.8600999444753,-59.86009994447528,32.13990005552472,48.13990005552472,25.139900055524716,76.13990005552472,108.1399000555247,113.1399000555247
38.13990005552472,-20.86009994447528,-31.860099944475284,-52.86009994447528,-84.86009994447528,-62.86009994447528,-15.860099944475277,-17.86009994447528,-15.860099944475277,14.139900055524723
83.13990005552472,29.139900055524716,-66.86009994447528,-62.86009994447528,-32.86009994447528,-23.860099944475284,-19.86009994447528,3.13990005552472,24.139900055524716,12.139900055524723
21.13990005552472,97.1399000555247,146.13990005552472,80.13990005552472,71.13990005552472,85.13990005552472,-8.860099944475278,-26.860099944475284,-90.8600999444753,-136.86009994447528
-147.86009994447528,-114.8600999444753,-89.8600999444753,-50.86009994447528,20.13990005552472,30.139900055524716,20.13990005552472,7.13990005552472,31.139900055524716,30.139900055524716
0.13990005552471985,-36.86009994447528,12.139900055524723,109.1399000555247,136.13990005552472,88.1399000555247,44.13990005552472,-10.860099944475277,-48.86009994447528,-125.8600999444753
-117.8600999444753,-55.86009994447528,49.13990005552472,88.1399000555247,34.13990005552472,-9.860099944475278,28.139900055524716,19.13990005552472,72.13990005552472,102.1399000555247
66.13990005552472,-30.860099944475284,-108.8600999444753,-115.8600999444753,-117.8600999444753,-78.86009994447528,-45.86009994447528,-17.86009994447528,8.13990005552472,22.139900055524716
18.13990005552472,39.13990005552472,36.13990005552472,7.13990005552472,-13.860099944475277,-32.86009994447528,-28.860099944475284,-23.860099944475284,21.13990005552472,89.1399000555247
52.13990005552472,13.139900055524723,-50.86009994447528,-93.8600999444753,-58.86009994447528,57.13990005552472,163.13990005552472,167.13990005552472,140.13990005552472,73.13990005552472
-84.86009994447528,-149.86009994447528,-98.8600999444753,-36.86009994447528,-29.860099944475284,43.13990005552472,113.1399000555247,99.1399000555247,-24.860099944475284,-124.8600999444753
-106.8600999444753,-62.86009994447528,-30.860099944475284,25.139900055524716,30.139900055524716,-12.860099944475277,-81.86009994447528,-113.8600999444753,-102.8600999444753,-49.86009994447528
48.13990005552472,254.13990005552472,288.13990005552466,168.13990005552472,5.13990005552472,-94.8600999444753,-125.8600999444753,-81.86009994447528,-54.86009994447528,-55.86009994447528
-46.86009994447528,-2.86009994447528,38.13990005552472,-12.860099944475277,-31.860099944475284,19.13990005552472,60.13990005552472,56.13990005552472,25.139900055524716,31.139900055524716
-2.86009994447528,-39.86009994447528,-34.86009994447528,-7.86009994447528,2.13990005552472,-47.86009994447528,-98.8600999444753,-63.86009994447528,-17.86009994447528,23.139900055524716
44.13990005552472,71.13990005552472,154.13990005552472,140.13990005552472,50.13990005552472,-39.86009994447528,-51.86009994447528,-57.86009994447528,-91.8600999444753,-89.8600999444753
-29.860099944475284,27.139900055524716,82.13990005552472,109.1399000555247,97.1399000555247,-12.860099944475277,-141.86009994447528,-171.86009994447528,-111.8600999444753,-7.86009994447528
83.13990005552472,128.13990005552472,94.1399000555247,17.13990005552472,-34.86009994447528,-30.860099944475284,-55.86009994447528,-86.8600999444753,-120.8600999444753,-119.8600999444753
-78.86009994447528,-41.86009994447528,48.13990005552472,233.13990005552472,307.13990005552466,282.13990005552466,164.13990005552472,-5.86009994447528,-69.86009994447528,-182.86009994447528
-223.86009994447528,-142.86009994447528,-53.86009994447528,24.139900055524716,18.13990005552472,-43.86009994447528,-75.86009994447528,-76.86009994447528,-65.86009994447528,71.13990005552472
206.13990005552472,207.13990005552472,108.1399000555247,10.139900055524722,-76.86009994447528,-127.8600999444753,-106.8600999444753,-33.86009994447528,69.13990005552472,88.1399000555247
-45.86009994447528,-138.86009994447528,-85.86009994447528,-1.8600999444752802,55.13990005552472,57.13990005552472,65.13990005552472,131.13990005552472,129.13990005552472,40.13990005552472
14.139900055524723,-19.86009994447528,-89.8600999444753,-116.8600999444753,-148.86009994447528,-105.8600999444753,-63.86009994447528,-88.8600999444753,-58.86009994447528,-18.86009994447528
