Time,EMG
0.0,13.180863787375415
0.000996710854181202,-0.8191362126245849
0.001993421708362404,10.180863787375415
0.002990132562543606,21.180863787375415
0.003986843416724808,-8.819136212624585
0.00498355427090601,-7.819136212624585
0.005980265125087212,-11.819136212624585
0.006976975979268414,-20.819136212624585
0.007973686833449616,-22.819136212624585
0.008970397687630818,-20.819136212624585
0.00996710854181202,-17.819136212624585
0.01096381939599322,1.180863787375415
0.011960530250174423,-2.819136212624585
0.012957241104355626,-8.819136212624585
0.013953951958536827,1.180863787375415
0.014950662812718028,17.180863787375415
0.01594737366689923,21.180863787375415
0.016944084521080434,16.180863787375415
0.017940795375261637,20.180863787375415
0.018937506229442836,18.180863787375415
0.01993421708362404,19.180863787375415
0.02093092793780524,9.180863787375415
0.02192763879198644,-1.819136212624585
0.022924349646167644,-4.819136212624585
0.023921060500348847,-6.819136212624585
0.02491777135453005,-16.819136212624585
0.025914482208711252,-18.819136212624585
0.02691119306289245,-8.819136212624585
0.027907903917073654,-18.819136212624585
0.028904614771254857,-17.819136212624585
0.029901325625436057,-18.819136212624585
0.03089803647961726,-14.819136212624585
0.03189474733379846,-6.819136212624585
0.032891458187979665,1.180863787375415
0.03388816904216087,10.180863787375415
0.03488487989634207,7.180863787375415
0.03588159075052327,12.180863787375415
0.03687830160470447,19.180863787375415
0.03787501245888567,25.180863787375415
0.038871723313066875,14.180863787375415
0.03986843416724808,21.180863787375415
0.04086514502142928,15.180863787375415
0.04186185587561048,9.180863787375415
0.042858566729791686,13.180863787375415
0.04385527758397288,-8.819136212624585
0.044851988438154085,-17.819136212624585
0.04584869929233529,-25.819136212624585
0.04684541014651649,-20.819136212624585
0.04784212100069769,1.180863787375415
0.048838831854878896,-7.819136212624585
0.0498355427090601,-24.819136212624585
0.0508322535632413,-16.819136212624585
0.051828964417422504,-2.819136212624585
0.0528256752716037,4.180863787375415
0.0538223861257849,-5.819136212624585
0.054819096979966106,4.180863787375415
0.05581580783414731,23.180863787375415
0.05681251868832851,24.180863787375415
0.057809229542509714,18.180863787375415
0.05880594039669092,6.180863787375415
0.05980265125087211,9.180863787375415
0.060799362105053316,3.180863787375415
0.06179607295923452,1.180863787375415
0.06279278381341573,6.180863787375415
0.06378949466759692,-11.819136212624585
0.06478620552177812,-18.819136212624585
0.06578291637595933,-16.819136212624585
0.06677962723014053,-14.819136212624585
0.06777633808432174,-7.819136212624585
0.06877304893850293,-5.819136212624585
0.06976975979268414,-12.819136212624585
0.07076647064686534,-11.819136212624585
0.07176318150104655,-3.819136212624585
0.07275989235522774,0.18086378737541509
0.07375660320940894,12.180863787375415
0.07475331406359015,4.180863787375415
0.07575002491777134,11.180863787375415
0.07674673577195255,18.180863787375415
0.07774344662613375,8.180863787375415
0.07874015748031496,13.180863787375415
0.07973686833449616,23.180863787375415
0.08073357918867735,12.180863787375415
0.08173029004285856,-1.819136212624585
0.08272700089703976,8.180863787375415
0.08372371175122097,14.180863787375415
0.08472042260540216,3.180863787375415
0.08571713345958337,-12.819136212624585
0.08671384431376457,-24.819136212624585
0.08771055516794576,-22.819136212624585
0.08870726602212697,-24.819136212624585
0.08970397687630817,-14.819136212624585
0.09070068773048938,-19.819136212624585
0.09169739858467058,-17.819136212624585
0.09269410943885178,0.18086378737541509
0.09369082029303298,10.180863787375415
0.09468753114721419,6.180863787375415
0.09568424200139539,15.180863787375415
0.09668095285557658,20.180863787375415
0.09767766370975779,20.180863787375415
0.09867437456393899,16.180863787375415
0.0996710854181202,13.180863787375415
0.1006677962723014,15.180863787375415
0.1016645071264826,-2.819136212624585
0.1026612179806638,-10.819136212624585
0.10365792883484501,-13.819136212624585
0.1046546396890262,-8.819136212624585
0.1056513505432074,1.180863787375415
0.10664806139738861,-13.819136212624585
0.1076447722515698,-15.819136212624585
0.10864148310575102,-22.819136212624585
0.10963819395993221,-12.819136212624585
0.11063490481411342,-20.819136212624585
0.11163161566829462,-3.819136212624585
0.11262832652247581,-11.819136212624585
0.11362503737665702,5.180863787375415
0.11462174823083822,27.180863787375415
0.11561845908501943,28.180863787375415
0.11661516993920062,23.180863787375415
0.11761188079338183,27.180863787375415
0.11860859164756303,17.180863787375415
0.11960530250174423,8.180863787375415
0.12060201335592544,6.180863787375415
0.12159872421010663,6.180863787375415
0.12259543506428784,3.180863787375415
0.12359214591846904,-3.819136212624585
0.12458885677265025,-9.819136212624585
0.12558556762683146,-19.819136212624585
0.12658227848101264,-15.819136212624585
0.12757898933519385,-18.819136212624585
0.12857570018937506,-31.819136212624585
0.12957241104355624,-6.819136212624585
0.13056912189773745,-2.819136212624585
0.13156583275191866,-0.8191362126245849
0.13256254360609987,-2.819136212624585
0.13355925446028105,-7.819136212624585
0.13455596531446226,5.180863787375415
0.13555267616864347,12.180863787375415
0.13654938702282465,30.180863787375415
0.13754609787700586,24.180863787375415
0.13854280873118707,17.180863787375415
0.13953951958536828,12.180863787375415
0.14053623043954946,-2.819136212624585
0.14153294129373067,-10.819136212624585
0.14252965214791188,2.180863787375415
0.1435263630020931,12.180863787375415
0.14452307385627428,-1.819136212624585
0.14551978471045549,-6.819136212624585
0.1465164955646367,-20.819136212624585
0.14751320641881788,-7.819136212624585
0.1485099172729991,-17.819136212624585
0.1495066281271803,-21.819136212624585
0.1505033389813615,-20.819136212624585
0.1515000498355427,-11.819136212624585
0.1524967606897239,0.18086378737541509
0.1534934715439051,5.180863787375415
0.1544901823980863,32.180863787375415
0.1554868932522675,15.180863787375415
0.1564836041064487,10.180863787375415
0.15748031496062992,4.180863787375415
0.1584770258148111,9.180863787375415
0.1594737366689923,14.180863787375415
0.16047044752317352,19.180863787375415
0.1614671583773547,10.180863787375415
0.1624638692315359,-2.819136212624585
0.16346058008571712,-7.819136212624585
0.16445729093989833,-15.819136212624585
0.1654540017940795,-10.819136212624585
0.16645071264826072,-14.819136212624585
0.16744742350244193,-17.819136212624585
0.16844413435662312,-17.819136212624585
0.16944084521080433,-19.819136212624585
0.17043755606498553,-6.819136212624585
0.17143426691916674,8.180863787375415
0.17243097777334793,2.180863787375415
0.17342768862752914,-7.819136212624585
0.17442439948171035,10.180863787375415
0.17542111033589153,17.180863787375415
0.17641782119007274,15.180863787375415
0.17741453204425395,19.180863787375415
0.17841124289843516,0.18086378737541509
0.17940795375261634,5.180863787375415
0.18040466460679755,21.180863787375415
0.18140137546097876,18.180863787375415
0.18239808631515997,8.180863787375415
0.18339479716934115,-4.819136212624585
0.18439150802352236,-15.819136212624585
0.18538821887770357,-17.819136212624585
0.18638492973188475,-14.819136212624585
0.18738164058606596,-17.819136212624585
0.18837835144024717,-17.819136212624585
0.18937506229442838,-19.819136212624585
0.19037177314860956,-23.819136212624585
0.19136848400279077,-2.819136212624585
0.19236519485697198,4.180863787375415
0.19336190571115316,22.180863787375415
0.19435861656533437,31.180863787375415
0.19535532741951558,17.180863787375415
0.1963520382736968,9.180863787375415
0.19734874912787798,9.180863787375415
0.19834545998205919,14.180863787375415
0.1993421708362404,15.180863787375415
0.20033888169042158,20.180863787375415
0.2013355925446028,11.180863787375415
0.202332303398784,1.180863787375415
0.2033290142529652,-10.819136212624585
0.2043257251071464,-21.819136212624585
0.2053224359613276,-12.819136212624585
0.2063191468155088,-18.819136212624585
0.20731585766969002,-19.819136212624585
0.2083125685238712,-22.819136212624585
0.2093092793780524,-21.819136212624585
0.21030599023223362,-15.819136212624585
0.2113027010864148,1.180863787375415
0.212299411940596,2.180863787375415
0.21329612279477722,5.180863787375415
0.21429283364895843,21.180863787375415
0.2152895445031396,30.180863787375415
0.21628625535732082,20.180863787375415
0.21728296621150203,17.180863787375415
0.21827967706568321,11.180863787375415
0.21927638791986442,12.180863787375415
0.22027309877404563,-2.819136212624585
0.22126980962822684,-4.819136212624585
0.22226652048240803,-3.819136212624585
0.22326323133658924,-14.819136212624585
0.22425994219077044,1.180863787375415
0.22525665304495163,3.180863787375415
0.22625336389913284,-8.819136212624585
0.22725007475331405,-11.819136212624585
0.22824678560749526,-25.819136212624585
0.22924349646167644,-30.819136212624585
0.23024020731585765,3.180863787375415
0.23123691817003886,-4.819136212624585
0.23223362902422004,-1.819136212624585
0.23323033987840125,-4.819136212624585
0.23422705073258246,9.180863787375415
0.23522376158676367,21.180863787375415
0.23622047244094485,17.180863787375415
0.23721718329512606,10.180863787375415
0.23821389414930727,12.180863787375415
0.23921060500348845,18.180863787375415
0.24020731585766966,10.180863787375415
0.24120402671185087,14.180863787375415
0.24220073756603208,14.180863787375415
0.24319744842021326,-5.819136212624585
0.24419415927439447,-15.819136212624585
0.24519087012857568,-26.819136212624585
0.2461875809827569,-19.819136212624585
0.24718429183693807,-13.819136212624585
0.24818100269111928,-12.819136212624585
0.2491777135453005,-2.819136212624585
0.2501744243994817,-10.819136212624585
0.2511711352536629,-2.819136212624585
0.2521678461078441,-4.819136212624585
0.2531645569620253,-2.819136212624585
0.2541612678162065,1.180863787375415
0.2551579786703877,19.180863787375415
0.2561546895245689,19.180863787375415
0.2571514003787501,11.180863787375415
0.2581481112329313,26.180863787375415
0.2591448220871125,26.180863787375415
0.2601415329412937,8.180863787375415
0.2611382437954749,12.180863787375415
0.26213495464965614,4.180863787375415
0.2631316655038373,-11.819136212624585
0.2641283763580185,-19.819136212624585
0.26512508721219974,-19.819136212624585
0.2661217980663809,-15.819136212624585
0.2671185089205621,-10.819136212624585
0.26811521977474334,-14.819136212624585
0.2691119306289245,-10.819136212624585
0.2701086414831057,-10.819136212624585
0.27110535233728694,-17.819136212624585
0.2721020631914681,-2.819136212624585
0.2730987740456493,2.180863787375415
0.27409548489983054,19.180863787375415
0.2750921957540117,2.180863787375415
0.27608890660819296,12.180863787375415
0.27708561746237415,22.180863787375415
0.2780823283165553,17.180863787375415
0.27907903917073656,14.180863787375415
0.28007575002491775,-7.819136212624585
0.28107246087909893,1.180863787375415
0.28206917173328017,22.180863787375415
0.28306588258746135,5.180863787375415
0.28406259344164253,-2.819136212624585
0.28505930429582377,-11.819136212624585
0.28605601515000495,-19.819136212624585
0.2870527260041862,-23.819136212624585
0.28804943685836737,-20.819136212624585
0.28904614771254855,-12.819136212624585
0.2900428585667298,-13.819136212624585
0.29103956942091097,-6.819136212624585
0.29203628027509215,-1.819136212624585
0.2930329911292734,4.180863787375415
0.29402970198345457,11.180863787375415
0.29502641283763575,17.180863787375415
0.296023123691817,13.180863787375415
0.2970198345459982,21.180863787375415
0.29801654540017936,26.180863787375415
0.2990132562543606,19.180863787375415
0.3000099671085418,17.180863787375415
0.301006677962723,3.180863787375415
0.3020033888169042,-11.819136212624585
0.3030000996710854,0.18086378737541509
0.3039968105252666,-6.819136212624585
0.3049935213794478,-15.819136212624585
0.305990232233629,-18.819136212624585
0.3069869430878102,-15.819136212624585
0.3079836539419914,-22.819136212624585
0.3089803647961726,-15.819136212624585
0.3099770756503538,-14.819136212624585
0.310973786504535,-6.819136212624585
0.3119704973587162,2.180863787375415
0.3129672082128974,7.180863787375415
0.3139639190670786,7.180863787375415
0.31496062992125984,6.180863787375415
0.315957340775441,21.180863787375415
0.3169540516296222,26.180863787375415
0.31795076248380344,17.180863787375415
0.3189474733379846,10.180863787375415
0.3199441841921658,9.180863787375415
0.32094089504634704,11.180863787375415
0.3219376059005282,5.180863787375415
0.3229343167547094,-2.819136212624585
0.32393102760889064,-10.819136212624585
0.3249277384630718,-21.819136212624585
0.32592444931725306,-18.819136212624585
0.32692116017143424,-10.819136212624585
0.3279178710256154,-24.819136212624585
0.32891458187979666,-38.819136212624585
0.32991129273397785,-2.819136212624585
0.330908003588159,20.180863787375415
0.33190471444234027,11.180863787375415
0.33290142529652145,-6.819136212624585
0.33389813615070263,13.180863787375415
0.33489484700488387,16.180863787375415
0.33589155785906505,13.180863787375415
0.33688826871324623,19.180863787375415
0.33788497956742747,19.180863787375415
0.33888169042160865,19.180863787375415
0.3398784012757899,10.180863787375415
0.34087511212997107,-2.819136212624585
0.34187182298415225,-2.819136212624585
0.3428685338383335,-4.819136212624585
0.34386524469251467,-9.819136212624585
0.34486195554669585,-23.819136212624585
0.3458586664008771,-19.819136212624585
0.3468553772550583,-10.819136212624585
0.34785208810923945,-13.819136212624585
0.3488487989634207,-10.819136212624585
0.3498455098176019,-15.819136212624585
0.35084222067178306,-4.819136212624585
0.3518389315259643,8.180863787375415
0.3528356423801455,7.180863787375415
0.3538323532343267,15.180863787375415
0.3548290640885079,14.180863787375415
0.3558257749426891,10.180863787375415
0.3568224857968703,8.180863787375415
0.3578191966510515,8.180863787375415
0.3588159075052327,30.180863787375415
0.3598126183594139,15.180863787375415
0.3608093292135951,8.180863787375415
0.3618060400677763,0.18086378737541509
0.3628027509219575,-17.819136212624585
0.3637994617761387,-19.819136212624585
0.36479617263031994,-19.819136212624585
0.3657928834845011,-4.819136212624585
0.3667895943386823,-7.819136212624585
0.36778630519286354,-4.819136212624585
0.3687830160470447,-22.819136212624585
0.3697797269012259,-16.819136212624585
0.37077643775540714,-5.819136212624585
0.3717731486095883,-4.819136212624585
0.3727698594637695,14.180863787375415
0.37376657031795074,17.180863787375415
0.3747632811721319,12.180863787375415
0.3757599920263131,12.180863787375415
0.37675670288049434,14.180863787375415
0.3777534137346755,10.180863787375415
0.37875012458885676,8.180863787375415
0.37974683544303794,4.180863787375415
0.3807435462972191,5.180863787375415
0.38174025715140036,22.180863787375415
0.38273696800558155,-1.819136212624585
0.38373367885976273,-8.819136212624585
0.38473038971394397,-16.819136212624585
0.38572710056812515,-14.819136212624585
0.38672381142230633,-26.819136212624585
0.38772052227648757,-11.819136212624585
0.38871723313066875,-5.819136212624585
0.38971394398485,-19.819136212624585
0.39071065483903117,-2.819136212624585
0.39170736569321235,1.180863787375415
0.3927040765473936,1.180863787375415
0.39370078740157477,3.180863787375415
0.39469749825575595,8.180863787375415
0.3956942091099372,10.180863787375415
0.39669091996411837,20.180863787375415
0.39768763081829955,27.180863787375415
0.3986843416724808,20.180863787375415
0.399681052526662,7.180863787375415
0.40067776338084315,5.180863787375415
0.4016744742350244,5.180863787375415
0.4026711850892056,1.180863787375415
0.4036678959433868,-11.819136212624585
0.404664606797568,-19.819136212624585
0.4056613176517492,-20.819136212624585
0.4066580285059304,-13.819136212624585
0.4076547393601116,-15.819136212624585
0.4086514502142928,-17.819136212624585
0.409648161068474,-10.819136212624585
0.4106448719226552,-10.819136212624585
0.4116415827768364,4.180863787375415
0.4126382936310176,9.180863787375415
0.4136350044851988,12.180863787375415
0.41463171533938004,9.180863787375415
0.4156284261935612,7.180863787375415
0.4166251370477424,1.180863787375415
0.41762184790192364,15.180863787375415
0.4186185587561048,29.180863787375415
0.419615269610286,34.180863787375415
0.42061198046446724,17.180863787375415
0.4216086913186484,-15.819136212624585
0.4226054021728296,-22.819136212624585
0.42360211302701084,-1.819136212624585
0.424598823881192,-8.819136212624585
0.4255955347353732,-3.819136212624585
0.42659224558955444,-10.819136212624585
0.4275889564437356,-30.819136212624585
0.42858566729791686,-27.819136212624585
0.42958237815209804,-13.819136212624585
0.4305790890062792,2.180863787375415
0.43157579986046046,11.180863787375415
0.43257251071464164,8.180863787375415
0.4335692215688228,20.180863787375415
0.43456593242300406,14.180863787375415
0.43556264327718525,13.180863787375415
0.43655935413136643,10.180863787375415
0.43755606498554767,6.180863787375415
0.43855277583972885,14.180863787375415
0.43954948669391003,10.180863787375415
0.44054619754809127,0.18086378737541509
0.44154290840227245,-4.819136212624585
0.4425396192564537,-1.819136212624585
0.44353633011063487,-6.819136212624585
0.44453304096481605,-13.819136212624585
0.4455297518189973,-15.819136212624585
0.44652646267317847,-13.819136212624585
0.44752317352735965,-8.819136212624585
0.4485198843815409,-8.819136212624585
0.44951659523572207,-20.819136212624585
0.45051330608990325,-12.819136212624585
0.4515100169440845,-4.819136212624585
0.4525067277982657,-4.819136212624585
0.4535034386524469,19.180863787375415
0.4545001495066281,24.180863787375415
0.4554968603608093,14.180863787375415
0.4564935712149905,12.180863787375415
0.4574902820691717,12.180863787375415
0.4584869929233529,32.180863787375415
0.4594837037775341,26.180863787375415
0.4604804146317153,0.18086378737541509
0.4614771254858965,5.180863787375415
0.4624738363400777,-7.819136212624585
0.4634705471942589,-19.819136212624585
0.4644672580484401,-22.819136212624585
0.4654639689026213,-19.819136212624585
0.4664606797568025,-19.819136212624585
0.46745739061098374,-23.819136212624585
0.4684541014651649,-18.819136212624585
0.4694508123193461,-7.819136212624585
0.47044752317352734,-3.819136212624585
0.4714442340277085,0.18086378737541509
0.4724409448818897,8.180863787375415
0.47343765573607094,16.180863787375415
0.4744343665902521,32.180863787375415
0.4754310774444333,20.180863787375415
0.47642778829861454,8.180863787375415
0.4774244991527957,4.180863787375415
0.4784212100069769,8.180863787375415
0.47941792086115814,6.180863787375415
0.4804146317153393,3.180863787375415
0.48141134256952056,0.18086378737541509
0.48240805342370174,-1.819136212624585
0.4834047642778829,-7.819136212624585
0.48440147513206416,-6.819136212624585
0.48539818598624535,-17.819136212624585
0.4863948968404265,-4.819136212624585
0.48739160769460776,-13.819136212624585
0.48838831854878895,-11.819136212624585
0.48938502940297013,-22.819136212624585
0.49038174025715137,-13.819136212624585
0.49137845111133255,-0.8191362126245849
0.4923751619655138,10.180863787375415
0.49337187281969497,15.180863787375415
0.49436858367387615,11.180863787375415
0.4953652945280574,21.180863787375415
0.49636200538223857,17.180863787375415
0.49735871623641975,5.180863787375415
0.498355427090601,5.180863787375415
0.49935213794478217,10.180863787375415
0.5003488487989634,10.180863787375415
0.5013455596531445,8.180863787375415
0.5023422705073258,-6.819136212624585
0.503338981361507,-17.819136212624585
0.5043356922156882,-14.819136212624585
0.5053324030698694,-9.819136212624585
0.5063291139240506,-1.819136212624585
0.5073258247782317,-11.819136212624585
0.508322535632413,-19.819136212624585
0.5093192464865942,-9.819136212624585
0.5103159573407754,-2.819136212624585
0.5113126681949566,0.18086378737541509
0.5123093790491378,-3.819136212624585
0.513306089903319,1.180863787375415
0.5143028007575002,12.180863787375415
0.5152995116116814,24.180863787375415
0.5162962224658626,23.180863787375415
0.5172929333200438,12.180863787375415
0.518289644174225,12.180863787375415
0.5192863550284063,9.180863787375415
0.5202830658825874,-0.8191362126245849
0.5212797767367686,-6.819136212624585
0.5222764875909498,0.18086378737541509
0.523273198445131,2.180863787375415
0.5242699092993123,-22.819136212624585
0.5252666201534935,-4.819136212624585
0.5262633310076746,-10.819136212624585
0.5272600418618558,-23.819136212624585
0.528256752716037,3.180863787375415
0.5292534635702182,3.180863787375415
0.5302501744243995,-11.819136212624585
0.5312468852785807,-4.819136212624585
0.5322435961327618,-2.819136212624585
0.533240306986943,-4.819136212624585
0.5342370178411242,5.180863787375415
0.5352337286953054,18.180863787375415
0.5362304395494867,18.180863787375415
0.5372271504036679,19.180863787375415
0.538223861257849,15.180863787375415
0.5392205721120302,11.180863787375415
0.5402172829662114,4.180863787375415
0.5412139938203927,11.180863787375415
0.5422107046745739,6.180863787375415
0.5432074155287551,-16.819136212624585
0.5442041263829362,-31.819136212624585
0.5452008372371174,-29.819136212624585
0.5461975480912986,-19.819136212624585
0.5471942589454799,-6.819136212624585
0.5481909697996611,8.180863787375415
0.5491876806538423,19.180863787375415
0.5501843915080235,11.180863787375415
0.5511811023622046,0.18086378737541509
0.5521778132163859,-5.819136212624585
0.5531745240705671,-1.819136212624585
0.5541712349247483,12.180863787375415
0.5551679457789295,11.180863787375415
0.5561646566331107,17.180863787375415
0.5571613674872918,14.180863787375415
0.5581580783414731,-2.819136212624585
0.5591547891956543,5.180863787375415
0.5601515000498355,4.180863787375415
0.5611482109040167,4.180863787375415
0.5621449217581979,-2.819136212624585
0.5631416326123792,0.18086378737541509
0.5641383434665603,-15.819136212624585
0.5651350543207415,-23.819136212624585
0.5661317651749227,-31.819136212624585
0.5671284760291039,-25.819136212624585
0.5681251868832851,-2.819136212624585
0.5691218977374664,-1.819136212624585
0.5701186085916475,-9.819136212624585
0.5711153194458287,-8.819136212624585
0.5721120303000099,-3.819136212624585
0.5731087411541911,29.180863787375415
0.5741054520083724,22.180863787375415
0.5751021628625536,10.180863787375415
0.5760988737167347,19.180863787375415
0.5770955845709159,24.180863787375415
0.5780922954250971,12.180863787375415
0.5790890062792783,9.180863787375415
0.5800857171334596,-13.819136212624585
0.5810824279876408,19.180863787375415
0.5820791388418219,3.180863787375415
0.5830758496960031,-12.819136212624585
0.5840725605501843,-20.819136212624585
0.5850692714043655,-15.819136212624585
0.5860659822585468,-7.819136212624585
0.587062693112728,-17.819136212624585
0.5880594039669091,-8.819136212624585
0.5890561148210903,-5.819136212624585
0.5900528256752715,-8.819136212624585
0.5910495365294528,-9.819136212624585
0.592046247383634,0.18086378737541509
0.5930429582378152,14.180863787375415
0.5940396690919963,12.180863787375415
0.5950363799461775,17.180863787375415
0.5960330908003587,20.180863787375415
0.59702980165454,22.180863787375415
0.5980265125087212,19.180863787375415
0.5990232233629024,7.180863787375415
0.6000199342170836,4.180863787375415
0.6010166450712647,-5.819136212624585
0.602013355925446,-13.819136212624585
0.6030100667796272,-11.819136212624585
0.6040067776338084,-22.819136212624585
0.6050034884879896,-13.819136212624585
0.6060001993421708,-8.819136212624585
0.6069969101963519,-14.819136212624585
0.6079936210505332,-14.819136212624585
0.6089903319047144,-14.819136212624585
0.6099870427588956,-12.819136212624585
0.6109837536130768,-2.819136212624585
0.611980464467258,6.180863787375415
0.6129771753214392,7.180863787375415
0.6139738861756204,20.180863787375415
0.6149705970298016,22.180863787375415
0.6159673078839828,19.180863787375415
0.616964018738164,15.180863787375415
0.6179607295923452,20.180863787375415
0.6189574404465265,9.180863787375415
0.6199541513007076,3.180863787375415
0.6209508621548888,15.180863787375415
0.62194757300907,-3.819136212624585
0.6229442838632512,-15.819136212624585
0.6239409947174324,-8.819136212624585
0.6249377055716137,-14.819136212624585
0.6259344164257948,-25.819136212624585
0.626931127279976,-30.819136212624585
0.6279278381341572,-7.819136212624585
0.6289245489883384,-3.819136212624585
0.6299212598425197,-6.819136212624585
0.6309179706967009,-18.819136212624585
0.631914681550882,3.180863787375415
0.6329113924050632,17.180863787375415
0.6339081032592444,20.180863787375415
0.6349048141134256,22.180863787375415
0.6359015249676069,27.180863787375415
0.6368982358217881,31.180863787375415
0.6378949466759692,14.180863787375415
0.6388916575301504,-11.819136212624585
0.6398883683843316,-15.819136212624585
0.6408850792385129,5.180863787375415
0.6418817900926941,5.180863787375415
0.6428785009468753,-11.819136212624585
0.6438752118010564,-20.819136212624585
0.6448719226552376,-8.819136212624585
0.6458686335094188,-4.819136212624585
0.6468653443636001,-7.819136212624585
0.6478620552177813,-10.819136212624585
0.6488587660719625,-15.819136212624585
0.6498554769261436,-10.819136212624585
0.6508521877803248,6.180863787375415
0.6518488986345061,13.180863787375415
0.6528456094886873,17.180863787375415
0.6538423203428685,8.180863787375415
0.6548390311970497,9.180863787375415
0.6558357420512309,8.180863787375415
0.656832452905412,18.180863787375415
0.6578291637595933,21.180863787375415
0.6588258746137745,12.180863787375415
0.6598225854679557,6.180863787375415
0.6608192963221369,-5.819136212624585
0.661816007176318,-17.819136212624585
0.6628127180304992,-18.819136212624585
0.6638094288846805,-17.819136212624585
0.6648061397388617,-27.819136212624585
0.6658028505930429,-28.819136212624585
0.6667995614472241,-13.819136212624585
0.6677962723014053,14.180863787375415
0.6687929831555866,4.180863787375415
0.6697896940097677,1.180863787375415
0.6707864048639489,11.180863787375415
0.6717831157181301,0.18086378737541509
0.6727798265723113,-1.819136212624585
0.6737765374264925,7.180863787375415
0.6747732482806738,18.180863787375415
0.6757699591348549,14.180863787375415
0.6767666699890361,14.180863787375415
0.6777633808432173,8.180863787375415
0.6787600916973985,2.180863787375415
0.6797568025515798,-0.8191362126245849
0.680753513405761,4.180863787375415
0.6817502242599421,5.180863787375415
0.6827469351141233,4.180863787375415
0.6837436459683045,0.18086378737541509
0.6847403568224857,-14.819136212624585
0.685737067676667,-16.819136212624585
0.6867337785308482,-17.819136212624585
0.6877304893850293,-22.819136212624585
0.6887272002392105,-23.819136212624585
0.6897239110933917,-8.819136212624585
0.690720621947573,1.180863787375415
0.6917173328017542,12.180863787375415
0.6927140436559354,22.180863787375415
0.6937107545101165,15.180863787375415
0.6947074653642977,2.180863787375415
0.6957041762184789,11.180863787375415
0.6967008870726602,29.180863787375415
0.6976975979268414,10.180863787375415
0.6986943087810226,-1.819136212624585
0.6996910196352037,-2.819136212624585
0.7006877304893849,11.180863787375415
0.7016844413435661,18.180863787375415
0.7026811521977474,-2.819136212624585
0.7036778630519286,-29.819136212624585
0.7046745739061098,-27.819136212624585
0.705671284760291,-14.819136212624585
0.7066679956144721,-20.819136212624585
0.7076647064686534,-9.819136212624585
0.7086614173228346,-4.819136212624585
0.7096581281770158,-8.819136212624585
0.710654839031197,-3.819136212624585
0.7116515498853782,2.180863787375415
0.7126482607395593,6.180863787375415
0.7136449715937406,13.180863787375415
0.7146416824479218,20.180863787375415
0.715638393302103,27.180863787375415
0.7166351041562842,21.180863787375415
0.7176318150104654,28.180863787375415
0.7186285258646467,20.180863787375415
0.7196252367188278,7.180863787375415
0.720621947573009,-2.819136212624585
0.7216186584271902,-11.819136212624585
0.7226153692813714,-14.819136212624585
0.7236120801355526,-21.819136212624585
0.7246087909897339,-37.819136212624585
0.725605501843915,-26.819136212624585
0.7266022126980962,-3.819136212624585
0.7275989235522774,-8.819136212624585
0.7285956344064586,-13.819136212624585
0.7295923452606399,1.180863787375415
0.7305890561148211,-5.819136212624585
0.7315857669690022,-5.819136212624585
0.7325824778231834,11.180863787375415
0.7335791886773646,24.180863787375415
0.7345758995315458,24.180863787375415
0.7355726103857271,11.180863787375415
0.7365693212399083,14.180863787375415
0.7375660320940894,23.180863787375415
0.7385627429482706,20.180863787375415
0.7395594538024518,21.180863787375415
0.7405561646566331,13.180863787375415
0.7415528755108143,-0.8191362126245849
0.7425495863649955,-12.819136212624585
0.7435462972191766,-26.819136212624585
0.7445430080733578,-23.819136212624585
0.745539718927539,-24.819136212624585
0.7465364297817203,-31.819136212624585
0.7475331406359015,-29.819136212624585
0.7485298514900827,-15.819136212624585
0.7495265623442638,-3.819136212624585
0.750523273198445,4.180863787375415
0.7515199840526262,2.180863787375415
0.7525166949068075,17.180863787375415
0.7535134057609887,14.180863787375415
0.7545101166151699,11.180863787375415
0.755506827469351,11.180863787375415
0.7565035383235322,27.180863787375415
0.7575002491777135,23.180863787375415
0.7584969600318947,6.180863787375415
0.7594936708860759,-1.819136212624585
0.7604903817402571,10.180863787375415
0.7614870925944383,11.180863787375415
0.7624838034486194,-2.819136212624585
0.7634805143028007,-16.819136212624585
0.7644772251569819,-18.819136212624585
0.7654739360111631,-14.819136212624585
0.7664706468653443,-15.819136212624585
0.7674673577195255,-18.819136212624585
0.7684640685737067,-9.819136212624585
0.7694607794278879,-4.819136212624585
0.7704574902820691,8.180863787375415
0.7714542011362503,-2.819136212624585
0.7724509119904315,-1.819136212624585
0.7734476228446127,15.180863787375415
0.774444333698794,24.180863787375415
0.7754410445529751,1.180863787375415
0.7764377554071563,3.180863787375415
0.7774344662613375,10.180863787375415
0.7784311771155187,12.180863787375415
0.7794278879697,25.180863787375415
0.7804245988238812,2.180863787375415
0.7814213096780623,-14.819136212624585
0.7824180205322435,-8.819136212624585
0.7834147313864247,-1.819136212624585
0.7844114422406059,-10.819136212624585
0.7854081530947872,-13.819136212624585
0.7864048639489684,-19.819136212624585
0.7874015748031495,-24.819136212624585
0.7883982856573307,-18.819136212624585
0.7893949965115119,-0.8191362126245849
0.7903917073656931,-1.819136212624585
0.7913884182198744,-9.819136212624585
0.7923851290740556,8.180863787375415
0.7933818399282367,24.180863787375415
0.7943785507824179,36.180863787375415
0.7953752616365991,25.180863787375415
0.7963719724907804,21.180863787375415
0.7973686833449616,12.180863787375415
0.7983653941991428,11.180863787375415
0.799362105053324,4.180863787375415
0.8003588159075051,-5.819136212624585
0.8013555267616863,-12.819136212624585
0.8023522376158676,-21.819136212624585
0.8033489484700488,-25.819136212624585
0.80434565932423,-13.819136212624585
0.8053423701784111,-12.819136212624585
0.8063390810325923,-13.819136212624585
0.8073357918867736,-11.819136212624585
0.8083325027409548,-12.819136212624585
0.809329213595136,-12.819136212624585
0.8103259244493172,0.18086378737541509
0.8113226353034984,11.180863787375415
0.8123193461576795,22.180863787375415
0.8133160570118608,20.180863787375415
0.814312767866042,37.180863787375415
0.8153094787202232,24.180863787375415
0.8163061895744044,1.180863787375415
0.8173029004285856,7.180863787375415
0.8182996112827668,11.180863787375415
0.819296322136948,11.180863787375415
0.8202930329911292,4.180863787375415
0.8212897438453104,-10.819136212624585
0.8222864546994916,-22.819136212624585
0.8232831655536728,-25.819136212624585
0.824279876407854,-18.819136212624585
0.8252765872620352,-18.819136212624585
0.8262732981162164,-23.819136212624585
0.8272700089703976,-10.819136212624585
0.8282667198245788,-7.819136212624585
0.8292634306787601,-7.819136212624585
0.8302601415329413,-9.819136212624585
0.8312568523871224,13.180863787375415
0.8322535632413036,21.180863787375415
0.8332502740954848,21.180863787375415
0.834246984949666,19.180863787375415
0.8352436958038473,17.180863787375415
0.8362404066580285,21.180863787375415
0.8372371175122096,14.180863787375415
0.8382338283663908,-1.819136212624585
0.839230539220572,-4.819136212624585
0.8402272500747532,10.180863787375415
0.8412239609289345,5.180863787375415
0.8422206717831157,-8.819136212624585
0.8432173826372968,-18.819136212624585
0.844214093491478,-20.819136212624585
0.8452108043456592,-20.819136212624585
0.8462075151998405,2.180863787375415
0.8472042260540217,-3.819136212624585
0.8482009369082029,-6.819136212624585
0.849197647762384,-5.819136212624585
0.8501943586165652,-12.819136212624585
0.8511910694707464,-10.819136212624585
0.8521877803249277,12.180863787375415
0.8531844911791089,14.180863787375415
0.8541812020332901,15.180863787375415
0.8551779128874712,14.180863787375415
0.8561746237416524,16.180863787375415
0.8571713345958337,25.180863787375415
0.8581680454500149,5.180863787375415
0.8591647563041961,-7.819136212624585
0.8601614671583773,-1.819136212624585
0.8611581780125585,-27.819136212624585
0.8621548888667396,-11.819136212624585
0.8631515997209209,-11.819136212624585
0.8641483105751021,6.180863787375415
0.8651450214292833,3.180863787375415
0.8661417322834645,-11.819136212624585
0.8671384431376457,-15.819136212624585
0.868135153991827,-6.819136212624585
0.8691318648460081,-1.819136212624585
0.8701285757001893,6.180863787375415
0.8711252865543705,1.180863787375415
0.8721219974085517,11.180863787375415
0.8731187082627329,19.180863787375415
0.8741154191169141,4.180863787375415
0.8751121299710953,-7.819136212624585
0.8761088408252765,4.180863787375415
0.8771055516794577,19.180863787375415
0.8781022625336389,12.180863787375415
0.8790989733878201,20.180863787375415
0.8800956842420014,10.180863787375415
0.8810923950961825,14.180863787375415
0.8820891059503637,4.180863787375415
0.8830858168045449,0.18086378737541509
0.8840825276587261,-18.819136212624585
0.8850792385129074,-30.819136212624585
0.8860759493670886,-20.819136212624585
0.8870726602212697,-9.819136212624585
0.8880693710754509,-8.819136212624585
0.8890660819296321,-10.819136212624585
0.8900627927838133,-12.819136212624585
0.8910595036379946,-19.819136212624585
0.8920562144921758,-6.819136212624585
0.8930529253463569,-10.819136212624585
0.8940496362005381,13.180863787375415
0.8950463470547193,36.180863787375415
0.8960430579089006,12.180863787375415
0.8970397687630818,27.180863787375415
0.898036479617263,38.180863787375415
0.8990331904714441,28.180863787375415
0.9000299013256253,14.180863787375415
0.9010266121798065,-2.819136212624585
0.9020233230339878,-27.819136212624585
0.903020033888169,-19.819136212624585
0.9040167447423502,-4.819136212624585
0.9050134555965313,1.180863787375415
0.9060101664507125,-12.819136212624585
0.9070068773048938,-24.819136212624585
0.908003588159075,-43.819136212624585
0.9090002990132562,-19.819136212624585
0.9099970098674374,-2.819136212624585
0.9109937207216185,1.180863787375415
0.9119904315757997,15.180863787375415
0.912987142429981,12.180863787375415
0.9139838532841622,20.180863787375415
0.9149805641383434,25.180863787375415
0.9159772749925246,19.180863787375415
0.9169739858467058,20.180863787375415
0.9179706967008869,5.180863787375415
0.9189674075550682,2.180863787375415
0.9199641184092494,-11.819136212624585
0.9209608292634306,-17.819136212624585
0.9219575401176118,-12.819136212624585
0.922954250971793,-7.819136212624585
0.9239509618259742,-6.819136212624585
0.9249476726801554,0.18086378737541509
0.9259443835343366,-25.819136212624585
0.9269410943885178,-4.819136212624585
0.927937805242699,-3.819136212624585
0.9289345160968802,-0.8191362126245849
0.9299312269510615,2.180863787375415
0.9309279378052426,3.180863787375415
0.9319246486594238,21.180863787375415
0.932921359513605,17.180863787375415
0.9339180703677862,8.180863787375415
0.9349147812219675,3.180863787375415
0.9359114920761487,-8.819136212624585
0.9369082029303298,1.180863787375415
0.937904913784511,25.180863787375415
0.9389016246386922,29.180863787375415
0.9398983354928734,15.180863787375415
0.9408950463470547,-19.819136212624585
0.9418917572012359,-28.819136212624585
0.942888468055417,-1.819136212624585
0.9438851789095982,-7.819136212624585
0.9448818897637794,-17.819136212624585
0.9458786006179607,-7.819136212624585
0.9468753114721419,-36.819136212624585
0.9478720223263231,-20.819136212624585
0.9488687331805042,-5.819136212624585
0.9498654440346854,13.180863787375415
0.9508621548888666,11.180863787375415
0.9518588657430479,8.180863787375415
0.9528555765972291,11.180863787375415
0.9538522874514103,9.180863787375415
0.9548489983055914,8.180863787375415
0.9558457091597726,17.180863787375415
0.9568424200139538,11.180863787375415
0.9578391308681351,9.180863787375415
0.9588358417223163,10.180863787375415
0.9598325525764975,11.180863787375415
0.9608292634306786,3.180863787375415
0.9618259742848598,-2.819136212624585
0.9628226851390411,-10.819136212624585
0.9638193959932223,-17.819136212624585
0.9648161068474035,-20.819136212624585
0.9658128177015847,-25.819136212624585
0.9668095285557659,-22.819136212624585
0.967806239409947,-23.819136212624585
0.9688029502641283,-17.819136212624585
0.9697996611183095,7.180863787375415
0.9707963719724907,17.180863787375415
0.9717930828266719,35.180863787375415
0.972789793680853,51.180863787375415
0.9737865045350343,21.180863787375415
0.9747832153892155,-14.819136212624585
0.9757799262433967,-12.819136212624585
0.9767766370975779,5.180863787375415
0.9777733479517591,3.180863787375415
0.9787700588059403,17.180863787375415
0.9797667696601216,6.180863787375415
0.9807634805143027,-11.819136212624585
0.9817601913684839,-2.819136212624585
0.9827569022226651,22.180863787375415
0.9837536130768463,8.180863787375415
0.9847503239310276,-19.819136212624585
0.9857470347852088,-35.819136212624585
0.9867437456393899,-14.819136212624585
0.9877404564935711,-26.819136212624585
0.9887371673477523,-29.819136212624585
0.9897338782019335,-19.819136212624585
0.9907305890561148,-16.819136212624585
0.991727299910296,-0.8191362126245849
0.9927240107644771,37.180863787375415
0.9937207216186583,57.180863787375415
0.9947174324728395,37.180863787375415
0.9957141433270208,25.180863787375415
0.996710854181202,11.180863787375415
0.9977075650353832,0.18086378737541509
0.9987042758895643,1.180863787375415
0.9997009867437455,4.180863787375415
1.0006976975979267,-9.819136212624585
1.001694408452108,-23.819136212624585
1.002691119306289,-26.819136212624585
1.0036878301604704,-20.819136212624585
1.0046845410146517,-14.819136212624585
1.0056812518688327,-20.819136212624585
1.006677962723014,-15.819136212624585
1.007674673577195,-5.819136212624585
1.0086713844313764,5.180863787375415
1.0096680952855577,-0.8191362126245849
1.0106648061397387,18.180863787375415
1.01166151699392,22.180863787375415
1.0126582278481011,5.180863787375415
1.0136549387022824,-0.8191362126245849
1.0146516495564635,16.180863787375415
1.0156483604106448,9.180863787375415
1.016645071264826,16.180863787375415
1.0176417821190071,35.180863787375415
1.0186384929731884,22.180863787375415
1.0196352038273695,-2.819136212624585
1.0206319146815508,-7.819136212624585
1.021628625535732,-34.819136212624585
1.0226253363899132,-35.819136212624585
1.0236220472440944,-22.819136212624585
1.0246187580982755,0.18086378737541509
1.0256154689524568,5.180863787375415
1.026612179806638,-16.819136212624585
1.0276088906608192,-28.819136212624585
1.0286056015150005,-2.819136212624585
1.0296023123691815,-0.8191362126245849
1.0305990232233628,8.180863787375415
1.031595734077544,17.180863787375415
1.0325924449317252,9.180863787375415
1.0335891557859065,25.180863787375415
1.0345858666400876,37.180863787375415
1.0355825774942689,17.180863787375415
1.03657928834845,11.180863787375415
1.0375759992026312,1.180863787375415
1.0385727100568125,0.18086378737541509
1.0395694209109936,0.18086378737541509
1.0405661317651749,-14.819136212624585
1.041562842619356,-17.819136212624585
1.0425595534735372,-7.819136212624585
1.0435562643277185,-21.819136212624585
1.0445529751818996,-19.819136212624585
1.045549686036081,-25.819136212624585
1.046546396890262,-29.819136212624585
1.0475431077444433,3.180863787375415
1.0485398185986246,19.180863787375415
1.0495365294528056,17.180863787375415
1.050533240306987,10.180863787375415
1.051529951161168,8.180863787375415
1.0525266620153493,9.180863787375415
1.0535233728695304,6.180863787375415
1.0545200837237116,9.180863787375415
1.055516794577893,13.180863787375415
1.056513505432074,19.180863787375415
1.0575102162862553,32.180863787375415
1.0585069271404364,-1.819136212624585
1.0595036379946177,-1.819136212624585
1.060500348848799,0.18086378737541509
1.06149705970298,-21.819136212624585
1.0624937705571613,-16.819136212624585
1.0634904814113424,-45.819136212624585
1.0644871922655237,-50.819136212624585
1.065483903119705,-9.819136212624585
1.066480613973886,8.180863787375415
1.0674773248280673,-9.819136212624585
1.0684740356822484,13.180863787375415
1.0694707465364297,21.180863787375415
1.0704674573906108,10.180863787375415
1.071464168244792,14.180863787375415
1.0724608790989734,17.180863787375415
1.0734575899531544,12.180863787375415
1.0744543008073357,17.180863787375415
1.0754510116615168,8.180863787375415
1.076447722515698,4.180863787375415
1.0774444333698794,13.180863787375415
1.0784411442240605,9.180863787375415
1.0794378550782417,8.180863787375415
1.0804345659324228,3.180863787375415
1.0814312767866041,-11.819136212624585
1.0824279876407854,-23.819136212624585
1.0834246984949665,-27.819136212624585
1.0844214093491478,-26.819136212624585
1.0854181202033288,-14.819136212624585
1.0864148310575101,-4.819136212624585
1.0874115419116914,-9.819136212624585
1.0884082527658725,-11.819136212624585
1.0894049636200538,11.180863787375415
1.0904016744742349,17.180863787375415
1.0913983853284162,17.180863787375415
1.0923950961825972,15.180863787375415
1.0933918070367785,6.180863787375415
1.0943885178909598,2.180863787375415
1.0953852287451409,16.180863787375415
1.0963819395993222,21.180863787375415
1.0973786504535032,8.180863787375415
1.0983753613076845,-4.819136212624585
1.0993720721618658,-35.819136212624585
1.100368783016047,-13.819136212624585
1.1013654938702282,-3.819136212624585
1.1023622047244093,26.180863787375415
1.1033589155785906,27.180863787375415
1.1043556264327719,-7.819136212624585
1.105352337286953,-31.819136212624585
1.1063490481411342,-24.819136212624585
1.1073457589953153,-14.819136212624585
1.1083424698494966,-11.819136212624585
1.1093391807036777,13.180863787375415
1.110335891557859,16.180863787375415
1.1113326024120402,12.180863787375415
1.1123293132662213,17.180863787375415
1.1133260241204026,3.180863787375415
1.1143227349745837,3.180863787375415
1.115319445828765,21.180863787375415
1.1163161566829463,-1.819136212624585
1.1173128675371273,-3.819136212624585
1.1183095783913086,16.180863787375415
1.1193062892454897,28.180863787375415
1.120303000099671,1.180863787375415
1.1212997109538523,-9.819136212624585
1.1222964218080334,-23.819136212624585
1.1232931326622146,-44.819136212624585
1.1242898435163957,-19.819136212624585
1.125286554370577,-29.819136212624585
1.1262832652247583,-6.819136212624585
1.1272799760789394,-5.819136212624585
1.1282766869331207,2.180863787375415
1.1292733977873017,-19.819136212624585
1.130270108641483,-10.819136212624585
1.131266819495664,24.180863787375415
1.1322635303498454,41.180863787375415
1.1332602412040267,32.180863787375415
1.1342569520582078,16.180863787375415
1.135253662912389,15.180863787375415
1.1362503737665701,20.180863787375415
1.1372470846207514,12.180863787375415
1.1382437954749327,7.180863787375415
1.1392405063291138,-3.819136212624585
1.140237217183295,-22.819136212624585
1.1412339280374761,-13.819136212624585
1.1422306388916574,-8.819136212624585
1.1432273497458387,-17.819136212624585
1.1442240606000198,-25.819136212624585
1.145220771454201,-24.819136212624585
1.1462174823083822,-26.819136212624585
1.1472141931625635,-16.819136212624585
1.1482109040167447,5.180863787375415
1.1492076148709258,22.180863787375415
1.1502043257251071,10.180863787375415
1.1512010365792882,19.180863787375415
1.1521977474334695,31.180863787375415
1.1531944582876505,30.180863787375415
1.1541911691418318,21.180863787375415
1.1551878799960131,6.180863787375415
1.1561845908501942,-12.819136212624585
1.1571813017043755,-1.819136212624585
1.1581780125585566,-9.819136212624585
1.1591747234127379,-19.819136212624585
1.1601714342669192,2.180863787375415
1.1611681451211002,23.180863787375415
1.1621648559752815,8.180863787375415
1.1631615668294626,5.180863787375415
1.1641582776836439,-7.819136212624585
1.1651549885378252,-20.819136212624585
1.1661516993920062,-19.819136212624585
1.1671484102461875,-18.819136212624585
1.1681451211003686,-31.819136212624585
1.16914183195455,-11.819136212624585
1.170138542808731,-3.819136212624585
1.1711352536629123,18.180863787375415
1.1721319645170936,13.180863787375415
1.1731286753712746,24.180863787375415
1.174125386225456,18.180863787375415
1.175122097079637,9.180863787375415
1.1761188079338183,15.180863787375415
1.1771155187879996,35.180863787375415
1.1781122296421807,17.180863787375415
1.179108940496362,-7.819136212624585
1.180105651350543,-24.819136212624585
1.1811023622047243,-23.819136212624585
1.1820990730589056,1.180863787375415
1.1830957839130867,-27.819136212624585
1.184092494767268,-36.819136212624585
1.185089205621449,-7.819136212624585
1.1860859164756303,5.180863787375415
1.1870826273298116,-13.819136212624585
1.1880793381839927,-18.819136212624585
1.189076049038174,-5.819136212624585
1.190072759892355,0.18086378737541509
1.1910694707465364,12.180863787375415
1.1920661816007174,29.180863787375415
1.1930628924548987,28.180863787375415
1.19405960330908,34.180863787375415
1.195056314163261,29.180863787375415
1.1960530250174424,12.180863787375415
1.1970497358716234,9.180863787375415
1.1980464467258047,3.180863787375415
1.199043157579986,3.180863787375415
1.200039868434167,-15.819136212624585
1.2010365792883484,-12.819136212624585
1.2020332901425295,-20.819136212624585
1.2030300009967108,-17.819136212624585
1.204026711850892,-19.819136212624585
1.2050234227050731,-25.819136212624585
1.2060201335592544,-32.819136212624585
1.2070168444134355,-4.819136212624585
1.2080135552676168,14.180863787375415
1.2090102661217978,13.180863787375415
1.2100069769759791,12.180863787375415
1.2110036878301604,15.180863787375415
1.2120003986843415,16.180863787375415
1.2129971095385228,20.180863787375415
1.2139938203927039,11.180863787375415
1.2149905312468852,0.18086378737541509
1.2159872421010665,-2.819136212624585
1.2169839529552475,0.18086378737541509
1.2179806638094288,2.180863787375415
1.21897737466361,6.180863787375415
1.2199740855177912,-2.819136212624585
1.2209707963719725,6.180863787375415
1.2219675072261535,-19.819136212624585
1.2229642180803348,-14.819136212624585
1.223960928934516,-38.819136212624585
1.2249576397886972,-43.819136212624585
1.2259543506428785,-7.819136212624585
1.2269510614970596,12.180863787375415
1.2279477723512409,11.180863787375415
1.228944483205422,2.180863787375415
1.2299411940596032,4.180863787375415
1.2309379049137843,18.180863787375415
1.2319346157679656,20.180863787375415
1.2329313266221469,14.180863787375415
1.233928037476328,6.180863787375415
1.2349247483305092,2.180863787375415
1.2359214591846903,5.180863787375415
1.2369181700388716,20.180863787375415
1.237914880893053,29.180863787375415
1.238911591747234,-1.819136212624585
1.2399083026014153,-1.819136212624585
1.2409050134555963,1.180863787375415
1.2419017243097776,-12.819136212624585
1.242898435163959,-14.819136212624585
1.24389514601814,-31.819136212624585
1.2448918568723213,-35.819136212624585
1.2458885677265024,-28.819136212624585
1.2468852785806837,-26.819136212624585
1.2478819894348647,-9.819136212624585
1.248878700289046,19.180863787375415
1.2498754111432273,19.180863787375415
1.2508721219974084,32.180863787375415
1.2518688328515897,23.180863787375415
1.2528655437057707,15.180863787375415
1.253862254559952,10.180863787375415
1.2548589654141333,1.180863787375415
1.2558556762683144,-10.819136212624585
1.2568523871224957,33.180863787375415
1.2578490979766768,25.180863787375415
1.258845808830858,11.180863787375415
1.2598425196850394,-7.819136212624585
1.2608392305392204,-27.819136212624585
1.2618359413934017,-39.819136212624585
1.2628326522475828,-10.819136212624585
1.263829363101764,-14.819136212624585
1.2648260739559454,-20.819136212624585
1.2658227848101264,-11.819136212624585
1.2668194956643077,-20.819136212624585
1.2678162065184888,-7.819136212624585
1.26881291737267,22.180863787375415
1.2698096282268512,19.180863787375415
1.2708063390810325,14.180863787375415
1.2718030499352138,14.180863787375415
1.2727997607893948,7.180863787375415
1.2737964716435761,-1.819136212624585
1.2747931824977572,6.180863787375415
1.2757898933519385,9.180863787375415
1.2767866042061198,8.180863787375415
1.2777833150603009,10.180863787375415
1.2787800259144821,26.180863787375415
1.2797767367686632,2.180863787375415
1.2807734476228445,3.180863787375415
1.2817701584770258,-6.819136212624585
1.2827668693312069,-19.819136212624585
1.2837635801853882,-27.819136212624585
1.2847602910395692,-28.819136212624585
1.2857570018937505,-33.819136212624585
1.2867537127479316,-24.819136212624585
1.287750423602113,-11.819136212624585
1.2887471344562942,3.180863787375415
1.2897438453104753,5.180863787375415
1.2907405561646565,26.180863787375415
1.2917372670188376,34.180863787375415
1.292733977873019,30.180863787375415
1.2937306887272002,22.180863787375415
1.2947273995813813,17.180863787375415
1.2957241104355626,10.180863787375415
1.2967208212897436,1.180863787375415
1.297717532143925,3.180863787375415
1.2987142429981062,-6.819136212624585
1.2997109538522873,-8.819136212624585
1.3007076647064686,-14.819136212624585
1.3017043755606497,-25.819136212624585
1.302701086414831,-25.819136212624585
1.3036977972690122,-27.819136212624585
1.3046945081231933,-14.819136212624585
1.3056912189773746,-11.819136212624585
1.3066879298315557,8.180863787375415
1.307684640685737,4.180863787375415
1.308681351539918,14.180863787375415
1.3096780623940993,10.180863787375415
1.3106747732482806,6.180863787375415
1.3116714841024617,5.180863787375415
1.312668194956643,15.180863787375415
1.313664905810824,24.180863787375415
1.3146616166650054,18.180863787375415
1.3156583275191867,9.180863787375415
1.3166550383733677,1.180863787375415
1.317651749227549,3.180863787375415
1.31864846008173,-0.8191362126245849
1.3196451709359114,-21.819136212624585
1.3206418817900927,-10.819136212624585
1.3216385926442737,-23.819136212624585
1.322635303498455,-24.819136212624585
1.323632014352636,-3.819136212624585
1.3246287252068174,4.180863787375415
1.3256254360609985,3.180863787375415
1.3266221469151798,9.180863787375415
1.327618857769361,-2.819136212624585
1.3286155686235421,0.18086378737541509
1.3296122794777234,0.18086378737541509
1.3306089903319045,1.180863787375415
1.3316057011860858,7.180863787375415
1.332602412040267,12.180863787375415
1.3335991228944482,24.180863787375415
1.3345958337486294,22.180863787375415
1.3355925446028105,13.180863787375415
1.3365892554569918,7.180863787375415
1.337585966311173,-16.819136212624585
1.3385826771653542,-31.819136212624585
1.3395793880195355,-0.8191362126245849
1.3405760988737165,10.180863787375415
1.3415728097278978,-3.819136212624585
1.3425695205820791,-12.819136212624585
1.3435662314362602,-18.819136212624585
1.3445629422904415,-14.819136212624585
1.3455596531446226,-4.819136212624585
1.3465563639988039,4.180863787375415
1.347553074852985,1.180863787375415
1.3485497857071662,-8.819136212624585
1.3495464965613475,-2.819136212624585
1.3505432074155286,2.180863787375415
1.3515399182697099,7.180863787375415
1.352536629123891,7.180863787375415
1.3535333399780722,19.180863787375415
1.3545300508322535,18.180863787375415
1.3555267616864346,15.180863787375415
1.356523472540616,8.180863787375415
1.357520183394797,7.180863787375415
1.3585168942489783,5.180863787375415
1.3595136051031596,-2.819136212624585
1.3605103159573406,-3.819136212624585
1.361507026811522,-19.819136212624585
1.362503737665703,-8.819136212624585
1.3635004485198843,0.18086378737541509
1.3644971593740653,-12.819136212624585
1.3654938702282466,-20.819136212624585
1.366490581082428,-16.819136212624585
1.367487291936609,-8.819136212624585
1.3684840027907903,4.180863787375415
1.3694807136449714,-0.8191362126245849
1.3704774244991527,-2.819136212624585
1.371474135353334,11.180863787375415
1.372470846207515,19.180863787375415
1.3734675570616963,25.180863787375415
1.3744642679158774,24.180863787375415
1.3754609787700587,27.180863787375415
1.37645768962424,23.180863787375415
1.377454400478421,7.180863787375415
1.3784511113326023,-5.819136212624585
1.3794478221867834,-17.819136212624585
1.3804445330409647,-19.819136212624585
1.381441243895146,-19.819136212624585
1.382437954749327,-22.819136212624585
1.3834346656035084,-15.819136212624585
1.3844313764576894,-19.819136212624585
1.3854280873118707,-29.819136212624585
1.3864247981660518,-17.819136212624585
1.387421509020233,-4.819136212624585
1.3884182198744144,18.180863787375415
1.3894149307285955,18.180863787375415
1.3904116415827767,7.180863787375415
1.3914083524369578,1.180863787375415
1.3924050632911391,8.180863787375415
1.3934017741453204,20.180863787375415
1.3943984849995015,35.180863787375415
1.3953951958536828,36.180863787375415
1.3963919067078638,12.180863787375415
1.3973886175620451,3.180863787375415
1.3983853284162264,-7.819136212624585
1.3993820392704075,12.180863787375415
1.4003787501245888,-3.819136212624585
1.4013754609787699,-20.819136212624585
1.4023721718329512,-19.819136212624585
1.4033688826871322,-20.819136212624585
1.4043655935413135,-14.819136212624585
1.4053623043954948,-24.819136212624585
1.4063590152496759,-23.819136212624585
1.4073557261038572,-16.819136212624585
1.4083524369580382,6.180863787375415
1.4093491478122195,1.180863787375415
1.4103458586664008,16.180863787375415
1.411342569520582,26.180863787375415
1.4123392803747632,35.180863787375415
1.4133359912289443,33.180863787375415
1.4143327020831256,14.180863787375415
1.4153294129373069,16.180863787375415
1.416326123791488,-0.8191362126245849
1.4173228346456692,-11.819136212624585
1.4183195454998503,-3.819136212624585
1.4193162563540316,-22.819136212624585
1.4203129672082129,-22.819136212624585
1.421309678062394,-1.819136212624585
1.4223063889165752,-7.819136212624585
1.4233030997707563,-13.819136212624585
1.4242998106249376,-12.819136212624585
1.4252965214791187,-9.819136212624585
1.4262932323333,-0.8191362126245849
1.4272899431874813,0.18086378737541509
1.4282866540416623,4.180863787375415
1.4292833648958436,3.180863787375415
1.4302800757500247,-2.819136212624585
1.431276786604206,9.180863787375415
1.4322734974583873,6.180863787375415
1.4332702083125684,8.180863787375415
1.4342669191667496,37.180863787375415
1.4352636300209307,15.180863787375415
1.436260340875112,14.180863787375415
1.4372570517292933,2.180863787375415
1.4382537625834744,-9.819136212624585
1.4392504734376557,-9.819136212624585
1.4402471842918367,-5.819136212624585
1.441243895146018,-12.819136212624585
1.4422406060001993,-18.819136212624585
1.4432373168543804,-15.819136212624585
1.4442340277085617,-16.819136212624585
1.4452307385627428,-24.819136212624585
1.446227449416924,8.180863787375415
1.4472241602711051,9.180863787375415
1.4482208711252864,6.180863787375415
1.4492175819794677,-0.8191362126245849
1.4502142928336488,-4.819136212624585
1.45121100368783,8.180863787375415
1.4522077145420111,2.180863787375415
1.4532044253961924,18.180863787375415
1.4542011362503737,8.180863787375415
1.4551978471045548,12.180863787375415
1.456194557958736,13.180863787375415
1.4571912688129172,13.180863787375415
1.4581879796670985,5.180863787375415
1.4591846905212797,-2.819136212624585
1.4601814013754608,-10.819136212624585
1.4611781122296421,-10.819136212624585
1.4621748230838232,-16.819136212624585
1.4631715339380045,-14.819136212624585
1.4641682447921855,-15.819136212624585
1.4651649556463668,-12.819136212624585
1.4661616665005481,-13.819136212624585
1.4671583773547292,-12.819136212624585
1.4681550882089105,-3.819136212624585
1.4691517990630916,9.180863787375415
1.4701485099172729,15.180863787375415
1.4711452207714542,15.180863787375415
1.4721419316256352,21.180863787375415
1.4731386424798165,20.180863787375415
1.4741353533339976,14.180863787375415
1.4751320641881789,16.180863787375415
1.4761287750423602,7.180863787375415
1.4771254858965412,0.18086378737541509
1.4781221967507225,-8.819136212624585
1.4791189076049036,-12.819136212624585
1.480115618459085,-9.819136212624585
1.4811123293132662,-7.819136212624585
1.4821090401674473,-9.819136212624585
1.4831057510216286,-6.819136212624585
1.4841024618758096,-0.8191362126245849
1.485099172729991,-7.819136212624585
1.486095883584172,-16.819136212624585
1.4870925944383533,-19.819136212624585
1.4880893052925346,-8.819136212624585
1.4890860161467157,8.180863787375415
1.490082727000897,4.180863787375415
1.491079437855078,12.180863787375415
1.4920761487092593,29.180863787375415
1.4930728595634406,20.180863787375415
1.4940695704176217,18.180863787375415
1.495066281271803,20.180863787375415
1.496062992125984,5.180863787375415
1.4970597029801653,-9.819136212624585
1.4980564138343466,-10.819136212624585
1.4990531246885277,5.180863787375415
1.500049835542709,1.180863787375415
1.50104654639689,-3.819136212624585
1.5020432572510714,-18.819136212624585
1.5030399681052524,-25.819136212624585
1.5040366789594337,-23.819136212624585
1.505033389813615,-14.819136212624585
1.506030100667796,-17.819136212624585
1.5070268115219774,-10.819136212624585
1.5080235223761584,-5.819136212624585
1.5090202332303397,7.180863787375415
1.510016944084521,22.180863787375415
1.511013654938702,21.180863787375415
1.5120103657928834,20.180863787375415
1.5130070766470645,20.180863787375415
1.5140037875012458,-10.819136212624585
1.515000498355427,22.180863787375415
1.5159972092096081,37.180863787375415
1.5169939200637894,20.180863787375415
1.5179906309179705,13.180863787375415
1.5189873417721518,-11.819136212624585
1.519984052626333,-25.819136212624585
1.5209807634805141,-32.819136212624585
1.5219774743346954,-28.819136212624585
1.5229741851888765,-10.819136212624585
1.5239708960430578,-9.819136212624585
1.5249676068972389,-12.819136212624585
1.5259643177514202,-14.819136212624585
1.5269610286056015,-7.819136212624585
1.5279577394597825,1.180863787375415
1.5289544503139638,17.180863787375415
1.529951161168145,15.180863787375415
1.5309478720223262,17.180863787375415
1.5319445828765075,18.180863787375415
1.5329412937306885,20.180863787375415
1.5339380045848698,12.180863787375415
1.534934715439051,6.180863787375415
1.5359314262932322,6.180863787375415
1.5369281371474135,3.180863787375415
1.5379248480015946,8.180863787375415
1.5389215588557759,-3.819136212624585
1.539918269709957,-15.819136212624585
1.5409149805641382,-27.819136212624585
1.5419116914183193,-20.819136212624585
1.5429084022725006,-23.819136212624585
1.5439051131266819,-22.819136212624585
1.544901823980863,-29.819136212624585
1.5458985348350442,-7.819136212624585
1.5468952456892253,1.180863787375415
1.5478919565434066,24.180863787375415
1.548888667397588,35.180863787375415
1.549885378251769,24.180863787375415
1.5508820891059503,19.180863787375415
1.5518787999601313,19.180863787375415
1.5528755108143126,12.180863787375415
1.553872221668494,12.180863787375415
1.554868932522675,14.180863787375415
1.5558656433768563,-11.819136212624585
1.5568623542310374,-4.819136212624585
1.5578590650852187,0.18086378737541509
1.5588557759394,-4.819136212624585
1.559852486793581,-4.819136212624585
1.5608491976477623,-11.819136212624585
1.5618459085019434,-11.819136212624585
1.5628426193561247,-4.819136212624585
1.5638393302103057,-25.819136212624585
1.564836041064487,-14.819136212624585
1.5658327519186683,-11.819136212624585
1.5668294627728494,-23.819136212624585
1.5678261736270307,-11.819136212624585
1.5688228844812118,2.180863787375415
1.569819595335393,20.180863787375415
1.5708163061895744,28.180863787375415
1.5718130170437554,27.180863787375415
1.5728097278979367,35.180863787375415
1.5738064387521178,23.180863787375415
1.574803149606299,12.180863787375415
1.5757998604604804,16.180863787375415
1.5767965713146614,0.18086378737541509
1.5777932821688427,-2.819136212624585
1.5787899930230238,-14.819136212624585
1.579786703877205,-19.819136212624585
1.5807834147313862,-28.819136212624585
1.5817801255855675,-34.819136212624585
1.5827768364397488,-20.819136212624585
1.5837735472939298,-7.819136212624585
1.5847702581481111,-12.819136212624585
1.5857669690022922,-6.819136212624585
1.5867636798564735,4.180863787375415
1.5877603907106548,12.180863787375415
1.5887571015648358,-3.819136212624585
1.5897538124190171,4.180863787375415
1.5907505232731982,12.180863787375415
1.5917472341273795,37.180863787375415
1.5927439449815608,25.180863787375415
1.5937406558357419,20.180863787375415
1.5947373666899232,8.180863787375415
1.5957340775441042,4.180863787375415
1.5967307883982855,-5.819136212624585
1.5977274992524668,-7.819136212624585
1.598724210106648,11.180863787375415
1.5997209209608292,-2.819136212624585
1.6007176318150103,-22.819136212624585
1.6017143426691915,-19.819136212624585
1.6027110535233726,-13.819136212624585
1.603707764377554,-7.819136212624585
1.6047044752317352,-3.819136212624585
1.6057011860859163,-0.8191362126245849
1.6066978969400976,2.180863787375415
1.6076946077942786,1.180863787375415
1.60869131864846,-10.819136212624585
1.6096880295026412,-7.819136212624585
1.6106847403568223,7.180863787375415
1.6116814512110036,12.180863787375415
1.6126781620651847,25.180863787375415
1.613674872919366,18.180863787375415
1.6146715837735472,19.180863787375415
1.6156682946277283,-2.819136212624585
1.6166650054819096,0.18086378737541509
1.6176617163360907,-3.819136212624585
1.618658427190272,2.180863787375415
1.619655138044453,1.180863787375415
1.6206518488986343,-10.819136212624585
1.6216485597528156,-14.819136212624585
1.6226452706069967,-15.819136212624585
1.623641981461178,-11.819136212624585
1.624638692315359,-14.819136212624585
1.6256354031695404,-3.819136212624585
1.6266321140237217,-5.819136212624585
1.6276288248779027,-5.819136212624585
1.628625535732084,-7.819136212624585
1.629622246586265,1.180863787375415
1.6306189574404464,11.180863787375415
1.6316156682946277,20.180863787375415
1.6326123791488087,13.180863787375415
1.63360909000299,30.180863787375415
1.634605800857171,14.180863787375415
1.6356025117113524,1.180863787375415
1.6365992225655337,1.180863787375415
1.6375959334197148,-9.819136212624585
1.638592644273896,17.180863787375415
1.6395893551280771,29.180863787375415
1.6405860659822584,-9.819136212624585
1.6415827768364395,-27.819136212624585
1.6425794876906208,-26.819136212624585
1.643576198544802,-22.819136212624585
1.6445729093989832,-9.819136212624585
1.6455696202531644,-7.819136212624585
1.6465663311073455,-11.819136212624585
1.6475630419615268,-6.819136212624585
1.648559752815708,7.180863787375415
1.6495564636698892,16.180863787375415
1.6505531745240705,9.180863787375415
1.6515498853782515,4.180863787375415
1.6525465962324328,25.180863787375415
1.6535433070866141,29.180863787375415
1.6545400179407952,12.180863787375415
1.6555367287949765,-1.819136212624585
1.6565334396491576,-3.819136212624585
1.6575301505033389,-2.819136212624585
1.6585268613575201,-14.819136212624585
1.6595235722117012,-12.819136212624585
1.6605202830658825,-9.819136212624585
1.6615169939200636,-15.819136212624585
1.6625137047742449,-19.819136212624585
1.663510415628426,-30.819136212624585
1.6645071264826072,-20.819136212624585
1.6655038373367885,-7.819136212624585
1.6665005481909696,19.180863787375415
1.667497259045151,15.180863787375415
1.668493969899332,4.180863787375415
1.6694906807535133,0.18086378737541509
1.6704873916076945,8.180863787375415
1.6714841024618756,14.180863787375415
1.672480813316057,20.180863787375415
1.673477524170238,20.180863787375415
1.6744742350244193,12.180863787375415
1.6754709458786006,-6.819136212624585
1.6764676567327816,0.18086378737541509
1.677464367586963,0.18086378737541509
1.678461078441144,-27.819136212624585
1.6794577892953253,24.180863787375415
1.6804545001495064,25.180863787375415
1.6814512110036877,4.180863787375415
1.682447921857869,-19.819136212624585
1.68344463271205,-44.819136212624585
1.6844413435662313,-21.819136212624585
1.6854380544204124,1.180863787375415
1.6864347652745937,-4.819136212624585
1.687431476128775,1.180863787375415
1.688428186982956,12.180863787375415
1.6894248978371373,22.180863787375415
1.6904216086913184,29.180863787375415
1.6914183195454997,18.180863787375415
1.692415030399681,10.180863787375415
1.693411741253862,8.180863787375415
1.6944084521080434,-1.819136212624585
1.6954051629622244,-3.819136212624585
1.6964018738164057,3.180863787375415
1.697398584670587,-7.819136212624585
1.698395295524768,-14.819136212624585
1.6993920063789494,-12.819136212624585
1.7003887172331305,-16.819136212624585
1.7013854280873117,-19.819136212624585
1.7023821389414928,-5.819136212624585
1.703378849795674,-24.819136212624585
1.7043755606498554,-15.819136212624585
1.7053722715040365,-19.819136212624585
1.7063689823582178,-12.819136212624585
1.7073656932123988,19.180863787375415
1.7083624040665801,15.180863787375415
1.7093591149207614,-2.819136212624585
1.7103558257749425,6.180863787375415
1.7113525366291238,14.180863787375415
1.7123492474833049,4.180863787375415
1.7133459583374862,4.180863787375415
1.7143426691916674,28.180863787375415
1.7153393800458485,14.180863787375415
1.7163360909000298,-4.819136212624585
1.7173328017542109,1.180863787375415
1.7183295126083922,16.180863787375415
1.7193262234625732,48.180863787375415
1.7203229343167545,29.180863787375415
1.7213196451709358,0.18086378737541509
1.722316356025117,-37.819136212624585
1.7233130668792982,-40.819136212624585
1.7243097777334793,-37.819136212624585
1.7253064885876606,-26.819136212624585
1.7263031994418419,-18.819136212624585
1.727299910296023,-8.819136212624585
1.7282966211502042,8.180863787375415
1.7292933320043853,8.180863787375415
1.7302900428585666,1.180863787375415
1.7312867537127479,9.180863787375415
1.732283464566929,33.180863787375415
1.7332801754211102,35.180863787375415
1.7342768862752913,36.180863787375415
1.7352735971294726,3.180863787375415
1.736270307983654,2.180863787375415
1.737267018837835,-2.819136212624585
1.7382637296920163,-6.819136212624585
1.7392604405461973,-16.819136212624585
1.7402571514003786,-8.819136212624585
1.7412538622545597,-29.819136212624585
1.742250573108741,-16.819136212624585
1.7432472839629223,-8.819136212624585
1.7442439948171033,-16.819136212624585
1.7452407056712846,-23.819136212624585
1.7462374165254657,-9.819136212624585
1.747234127379647,-1.819136212624585
1.7482308382338283,-3.819136212624585
1.7492275490880094,5.180863787375415
1.7502242599421907,10.180863787375415
1.7512209707963717,4.180863787375415
1.752217681650553,13.180863787375415
1.7532143925047343,22.180863787375415
1.7542111033589154,17.180863787375415
1.7552078142130967,12.180863787375415
1.7562045250672778,6.180863787375415
1.757201235921459,-0.8191362126245849
1.7581979467756401,-24.819136212624585
1.7591946576298214,-2.819136212624585
1.7601913684840027,16.180863787375415
1.7611880793381838,19.180863787375415
1.762184790192365,-6.819136212624585
1.7631815010465461,-9.819136212624585
1.7641782119007274,5.180863787375415
1.7651749227549087,-4.819136212624585
1.7661716336090898,-10.819136212624585
1.767168344463271,-7.819136212624585
1.7681650553174522,2.180863787375415
1.7691617661716335,17.180863787375415
1.7701584770258147,14.180863787375415
1.7711551878799958,5.180863787375415
1.7721518987341771,12.180863787375415
1.7731486095883582,-1.819136212624585
1.7741453204425395,-4.819136212624585
1.7751420312967208,21.180863787375415
1.7761387421509018,11.180863787375415
1.7771354530050831,-16.819136212624585
1.7781321638592642,-11.819136212624585
1.7791288747134455,-2.819136212624585
1.7801255855676266,-19.819136212624585
1.7811222964218079,-18.819136212624585
1.7821190072759892,-22.819136212624585
1.7831157181301702,-26.819136212624585
1.7841124289843515,-19.819136212624585
1.7851091398385326,-5.819136212624585
1.7861058506927139,-6.819136212624585
1.7871025615468952,-9.819136212624585
1.7880992724010762,10.180863787375415
1.7890959832552575,18.180863787375415
1.7900926941094386,20.180863787375415
1.79108940496362,21.180863787375415
1.7920861158178012,20.180863787375415
1.7930828266719823,27.180863787375415
1.7940795375261636,24.180863787375415
1.7950762483803446,14.180863787375415
1.796072959234526,15.180863787375415
1.797069670088707,8.180863787375415
1.7980663809428883,15.180863787375415
1.7990630917970696,2.180863787375415
1.8000598026512507,-14.819136212624585
1.801056513505432,-34.819136212624585
1.802053224359613,-31.819136212624585
1.8030499352137943,-34.819136212624585
1.8040466460679756,-29.819136212624585
1.8050433569221567,-23.819136212624585
1.806040067776338,-15.819136212624585
1.807036778630519,-12.819136212624585
1.8080334894847003,6.180863787375415
1.8090302003388816,5.180863787375415
1.8100269111930627,15.180863787375415
1.811023622047244,25.180863787375415
1.812020332901425,29.180863787375415
1.8130170437556064,21.180863787375415
1.8140137546097876,27.180863787375415
1.8150104654639687,53.180863787375415
1.81600717631815,37.180863787375415
1.817003887172331,-36.819136212624585
1.8180005980265124,-30.819136212624585
1.8189973088806934,-13.819136212624585
1.8199940197348747,-13.819136212624585
1.820990730589056,-17.819136212624585
1.821987441443237,-21.819136212624585
1.8229841522974184,-23.819136212624585
1.8239808631515995,-21.819136212624585
1.8249775740057808,-16.819136212624585
1.825974284859962,-14.819136212624585
1.8269709957141431,1.180863787375415
1.8279677065683244,19.180863787375415
1.8289644174225055,36.180863787375415
1.8299611282766868,38.180863787375415
1.830957839130868,28.180863787375415
1.8319545499850491,11.180863787375415
1.8329512608392304,6.180863787375415
1.8339479716934115,11.180863787375415
1.8349446825475928,4.180863787375415
1.8359413934017739,-4.819136212624585
1.8369381042559552,-2.819136212624585
1.8379348151101365,-15.819136212624585
1.8389315259643175,-24.819136212624585
1.8399282368184988,-26.819136212624585
1.84092494767268,-15.819136212624585
1.8419216585268612,-14.819136212624585
1.8429183693810425,-30.819136212624585
1.8439150802352235,-25.819136212624585
1.8449117910894048,-13.819136212624585
1.845908501943586,-1.819136212624585
1.8469052127977672,1.180863787375415
1.8479019236519485,2.180863787375415
1.8488986345061296,6.180863787375415
1.8498953453603109,19.180863787375415
1.850892056214492,27.180863787375415
1.8518887670686732,39.180863787375415
1.8528854779228545,36.180863787375415
1.8538821887770356,33.180863787375415
1.8548788996312169,29.180863787375415
1.855875610485398,9.180863787375415
1.8568723213395792,-18.819136212624585
1.8578690321937603,-14.819136212624585
1.8588657430479416,-30.819136212624585
1.859862453902123,-27.819136212624585
1.860859164756304,-16.819136212624585
1.8618558756104853,-3.819136212624585
1.8628525864646663,-6.819136212624585
1.8638492973188476,-3.819136212624585
1.864846008173029,3.180863787375415
1.86584271902721,5.180863787375415
1.8668394298813913,-2.819136212624585
1.8678361407355724,4.180863787375415
1.8688328515897537,11.180863787375415
1.869829562443935,8.180863787375415
1.870826273298116,9.180863787375415
1.8718229841522973,15.180863787375415
1.8728196950064784,19.180863787375415
1.8738164058606597,22.180863787375415
1.8748131167148407,18.180863787375415
1.875809827569022,6.180863787375415
1.8768065384232033,-14.819136212624585
1.8778032492773844,-34.819136212624585
1.8787999601315657,-32.819136212624585
1.8797966709857468,-30.819136212624585
1.880793381839928,-18.819136212624585
1.8817900926941094,-30.819136212624585
1.8827868035482904,-9.819136212624585
1.8837835144024717,-17.819136212624585
1.8847802252566528,-4.819136212624585
1.885776936110834,1.180863787375415
1.8867736469650154,1.180863787375415
1.8877703578191964,6.180863787375415
1.8887670686733777,19.180863787375415
1.8897637795275588,23.180863787375415
1.89076049038174,32.180863787375415
1.8917572012359214,36.180863787375415
1.8927539120901025,23.180863787375415
1.8937506229442838,11.180863787375415
1.8947473337984648,5.180863787375415
1.8957440446526461,8.180863787375415
1.8967407555068272,-6.819136212624585
1.8977374663610085,-22.819136212624585
1.8987341772151898,-29.819136212624585
1.8997308880693708,-35.819136212624585
1.9007275989235521,-28.819136212624585
1.9017243097777332,-15.819136212624585
1.9027210206319145,-26.819136212624585
1.9037177314860958,-13.819136212624585
1.9047144423402769,1.180863787375415
1.9057111531944582,19.180863787375415
1.9067078640486392,16.180863787375415
1.9077045749028205,12.180863787375415
1.9087012857570018,12.180863787375415
1.909697996611183,23.180863787375415
1.9106947074653642,33.180863787375415
1.9116914183195453,52.180863787375415
1.9126881291737265,49.180863787375415
1.9136848400279076,20.180863787375415
1.914681550882089,6.180863787375415
1.9156782617362702,-2.819136212624585
1.9166749725904513,-10.819136212624585
1.9176716834446326,-23.819136212624585
1.9186683942988136,-25.819136212624585
1.919665105152995,-30.819136212624585
1.9206618160071762,-30.819136212624585
1.9216585268613573,-14.819136212624585
1.9226552377155386,-11.819136212624585
1.9236519485697197,-14.819136212624585
1.924648659423901,-16.819136212624585
1.9256453702780822,-4.819136212624585
1.9266420811322633,15.180863787375415
1.9276387919864446,19.180863787375415
1.9286355028406257,18.180863787375415
1.929632213694807,20.180863787375415
1.9306289245489883,19.180863787375415
1.9316256354031693,13.180863787375415
1.9326223462573506,12.180863787375415
1.9336190571115317,12.180863787375415
1.934615767965713,8.180863787375415
1.935612478819894,5.180863787375415
1.9366091896740754,0.18086378737541509
1.9376059005282567,-13.819136212624585
1.9386026113824377,-23.819136212624585
1.939599322236619,-44.819136212624585
1.9405960330908,-46.819136212624585
1.9415927439449814,-33.819136212624585
1.9425894547991627,-40.819136212624585
1.9435861656533437,-25.819136212624585
1.944582876507525,-11.819136212624585
1.945579587361706,-3.819136212624585
1.9465762982158874,33.180863787375415
1.9475730090700687,43.180863787375415
1.9485697199242498,41.180863787375415
1.949566430778431,33.180863787375415
1.9505631416326121,36.180863787375415
1.9515598524867934,36.180863787375415
1.9525565633409747,24.180863787375415
1.9535532741951558,5.180863787375415
1.954549985049337,1.180863787375415
1.9555466959035182,14.180863787375415
1.9565434067576994,1.180863787375415
1.9575401176118805,-6.819136212624585
1.9585368284660618,-18.819136212624585
1.959533539320243,-26.819136212624585
1.9605302501744242,-25.819136212624585
1.9615269610286055,-23.819136212624585
1.9625236718827865,-19.819136212624585
1.9635203827369678,-34.819136212624585
1.9645170935911491,-30.819136212624585
1.9655138044453302,-15.819136212624585
1.9665105152995115,0.18086378737541509
1.9675072261536926,14.180863787375415
1.9685039370078738,26.180863787375415
1.9695006478620551,29.180863787375415
1.9704973587162362,33.180863787375415
1.9714940695704175,29.180863787375415
1.9724907804245986,32.180863787375415
1.9734874912787799,26.180863787375415
1.974484202132961,4.180863787375415
1.9754809129871422,-5.819136212624585
1.9764776238413235,-6.819136212624585
1.9774743346955046,-10.819136212624585
1.978471045549686,-28.819136212624585
1.979467756403867,-29.819136212624585
1.9804644672580483,-38.819136212624585
1.9814611781122295,-38.819136212624585
1.9824578889664106,-27.819136212624585
1.983454599820592,-10.819136212624585
1.984451310674773,-3.819136212624585
1.9854480215289543,4.180863787375415
1.9864447323831356,13.180863787375415
1.9874414432373166,15.180863787375415
1.988438154091498,17.180863787375415
1.989434864945679,19.180863787375415
1.9904315757998603,24.180863787375415
1.9914282866540416,33.180863787375415
1.9924249975082227,45.180863787375415
1.993421708362404,38.180863787375415
1.994418419216585,34.180863787375415
1.9954151300707663,14.180863787375415
1.9964118409249474,-1.819136212624585
1.9974085517791287,-20.819136212624585
1.99840526263331,-42.819136212624585
1.999401973487491,-47.819136212624585
2.0003986843416723,-36.819136212624585
2.0013953951958534,-20.819136212624585
2.0023921060500345,-18.819136212624585
2.003388816904216,-19.819136212624585
2.004385527758397,-11.819136212624585
2.005382238612578,-8.819136212624585
2.0063789494667597,-9.819136212624585
2.0073756603209407,11.180863787375415
2.008372371175122,36.180863787375415
2.0093690820293033,40.180863787375415
2.0103657928834844,30.180863787375415
2.0113625037376655,40.180863787375415
2.0123592145918465,40.180863787375415
2.013355925446028,24.180863787375415
2.014352636300209,9.180863787375415
2.01534934715439,-7.819136212624585
2.0163460580085717,-20.819136212624585
2.0173427688627528,-31.819136212624585
2.018339479716934,-38.819136212624585
2.0193361905711154,-39.819136212624585
2.0203329014252964,-40.819136212624585
2.0213296122794775,-21.819136212624585
2.0223263231336586,-4.819136212624585
2.02332303398784,2.180863787375415
2.024319744842021,-4.819136212624585
2.0253164556962022,-3.819136212624585
2.0263131665503837,13.180863787375415
2.027309877404565,21.180863787375415
2.028306588258746,20.180863787375415
2.029303299112927,23.180863787375415
2.0303000099671085,20.180863787375415
2.0312967208212895,41.180863787375415
2.0322934316754706,36.180863787375415
2.033290142529652,13.180863787375415
2.034286853383833,-2.819136212624585
2.0352835642380143,-22.819136212624585
2.036280275092196,-19.819136212624585
2.037276985946377,-11.819136212624585
2.038273696800558,-21.819136212624585
2.039270407654739,-19.819136212624585
2.0402671185089205,-19.819136212624585
2.0412638293631016,-23.819136212624585
2.0422605402172826,-35.819136212624585
2.043257251071464,-7.819136212624585
2.0442539619256452,-6.819136212624585
2.0452506727798263,-6.819136212624585
2.0462473836340074,7.180863787375415
2.047244094488189,21.180863787375415
2.04824080534237,24.180863787375415
2.049237516196551,34.180863787375415
2.0502342270507325,32.180863787375415
2.0512309379049136,22.180863787375415
2.0522276487590947,23.180863787375415
2.053224359613276,22.180863787375415
2.0542210704674573,3.180863787375415
2.0552177813216383,3.180863787375415
2.0562144921758194,4.180863787375415
2.057211203030001,-13.819136212624585
2.058207913884182,-30.819136212624585
2.059204624738363,-47.819136212624585
2.0602013355925446,-41.819136212624585
2.0611980464467257,-21.819136212624585
2.0621947573009067,-23.819136212624585
2.063191468155088,-24.819136212624585
2.0641881790092693,-7.819136212624585
2.0651848898634504,16.180863787375415
2.0661816007176315,22.180863787375415
2.067178311571813,12.180863787375415
2.068175022425994,6.180863787375415
2.069171733280175,18.180863787375415
2.0701684441343566,27.180863787375415
2.0711651549885377,32.180863787375415
2.0721618658427188,38.180863787375415
2.0731585766969,32.180863787375415
2.0741552875510814,14.180863787375415
2.0751519984052624,4.180863787375415
2.0761487092594435,-6.819136212624585
2.077145420113625,-16.819136212624585
2.078142130967806,-12.819136212624585
2.079138841821987,-25.819136212624585
2.0801355526761687,-44.819136212624585
2.0811322635303497,-35.819136212624585
2.082128974384531,-24.819136212624585
2.083125685238712,-21.819136212624585
2.0841223960928934,-18.819136212624585
2.0851191069470745,-11.819136212624585
2.0861158178012555,4.180863787375415
2.087112528655437,17.180863787375415
2.088109239509618,23.180863787375415
2.089105950363799,43.180863787375415
2.0901026612179803,37.180863787375415
2.091099372072162,40.180863787375415
2.092096082926343,24.180863787375415
2.093092793780524,14.180863787375415
2.0940895046347054,13.180863787375415
2.0950862154888865,7.180863787375415
2.0960829263430676,-21.819136212624585
2.097079637197249,-32.819136212624585
2.09807634805143,-28.819136212624585
2.0990730589056112,-29.819136212624585
2.1000697697597923,-24.819136212624585
2.101066480613974,-2.819136212624585
2.102063191468155,-7.819136212624585
2.103059902322336,-17.819136212624585
2.1040566131765175,-11.819136212624585
2.1050533240306986,-4.819136212624585
2.1060500348848796,2.180863787375415
2.1070467457390607,12.180863787375415
2.108043456593242,23.180863787375415
2.1090401674474233,23.180863787375415
2.1100368783016044,30.180863787375415
2.111033589155786,30.180863787375415
2.112030300009967,6.180863787375415
2.113027010864148,0.18086378737541509
2.1140237217183295,7.180863787375415
2.1150204325725106,-18.819136212624585
2.1160171434266917,-0.8191362126245849
2.1170138542808727,4.180863787375415
2.1180105651350543,-12.819136212624585
2.1190072759892353,-22.819136212624585
2.1200039868434164,-3.819136212624585
2.121000697697598,-20.819136212624585
2.121997408551779,-24.819136212624585
2.12299411940596,-17.819136212624585
2.123990830260141,1.180863787375415
2.1249875411143226,3.180863787375415
2.1259842519685037,10.180863787375415
2.126980962822685,20.180863787375415
2.1279776736768663,20.180863787375415
2.1289743845310474,16.180863787375415
2.1299710953852284,19.180863787375415
2.13096780623941,16.180863787375415
2.131964517093591,14.180863787375415
2.132961227947772,14.180863787375415
2.133957938801953,6.180863787375415
2.1349546496561347,-12.819136212624585
2.1359513605103158,-26.819136212624585
2.136948071364497,-23.819136212624585
2.1379447822186783,-7.819136212624585
2.1389414930728594,-8.819136212624585
2.1399382039270405,-19.819136212624585
2.1409349147812216,-14.819136212624585
2.141931625635403,-18.819136212624585
2.142928336489584,-18.819136212624585
2.143925047343765,-23.819136212624585
2.1449217581979467,-11.819136212624585
2.145918469052128,-1.819136212624585
2.146915179906309,3.180863787375415
2.1479118907604904,19.180863787375415
2.1489086016146715,42.180863787375415
2.1499053124688525,33.180863787375415
2.1509020233230336,34.180863787375415
2.151898734177215,27.180863787375415
2.152895445031396,22.180863787375415
2.1538921558855773,8.180863787375415
2.1548888667397588,-11.819136212624585
2.15588557759394,-15.819136212624585
2.156882288448121,-5.819136212624585
2.1578789993023024,-16.819136212624585
2.1588757101564835,-26.819136212624585
2.1598724210106646,-31.819136212624585
2.1608691318648456,-23.819136212624585
2.161865842719027,-20.819136212624585
2.1628625535732082,-29.819136212624585
2.1638592644273893,-12.819136212624585
2.164855975281571,0.18086378737541509
2.165852686135752,6.180863787375415
2.166849396989933,4.180863787375415
2.167846107844114,32.180863787375415
2.1688428186982955,35.180863787375415
2.1698395295524766,40.180863787375415
2.1708362404066577,49.180863787375415
2.171832951260839,28.180863787375415
2.1728296621150203,14.180863787375415
2.1738263729692013,5.180863787375415
2.174823083823383,-21.819136212624585
2.175819794677564,-16.819136212624585
2.176816505531745,-12.819136212624585
2.177813216385926,-13.819136212624585
2.1788099272401076,-23.819136212624585
2.1798066380942887,-21.819136212624585
2.1808033489484697,-25.819136212624585
2.1818000598026512,-26.819136212624585
2.1827967706568323,-28.819136212624585
2.1837934815110134,-26.819136212624585
2.1847901923651945,-22.819136212624585
2.185786903219376,-6.819136212624585
2.186783614073557,17.180863787375415
2.187780324927738,32.180863787375415
2.1887770357819196,46.180863787375415
2.1897737466361007,43.180863787375415
2.1907704574902818,46.180863787375415
2.1917671683444633,41.180863787375415
2.1927638791986444,13.180863787375415
2.1937605900528254,17.180863787375415
2.1947573009070065,-6.819136212624585
2.195754011761188,-19.819136212624585
2.196750722615369,-43.819136212624585
2.19774743346955,-44.819136212624585
2.1987441443237317,-32.819136212624585
2.1997408551779127,-14.819136212624585
2.200737566032094,-8.819136212624585
2.201734276886275,-8.819136212624585
2.2027309877404564,-19.819136212624585
2.2037276985946375,-21.819136212624585
2.2047244094488185,-8.819136212624585
2.205721120303,5.180863787375415
2.206717831157181,21.180863787375415
2.207714542011362,42.180863787375415
2.2087112528655437,32.180863787375415
2.2097079637197248,32.180863787375415
2.210704674573906,34.180863787375415
2.211701385428087,20.180863787375415
2.2126980962822684,24.180863787375415
2.2136948071364495,10.180863787375415
2.2146915179906306,-12.819136212624585
2.215688228844812,-15.819136212624585
2.216684939698993,-30.819136212624585
2.2176816505531742,-19.819136212624585
2.2186783614073553,-15.819136212624585
2.219675072261537,-17.819136212624585
2.220671783115718,-31.819136212624585
2.221668493969899,-11.819136212624585
2.2226652048240805,-24.819136212624585
2.2236619156782615,-23.819136212624585
2.2246586265324426,3.180863787375415
2.225655337386624,1.180863787375415
2.226652048240805,7.180863787375415
2.2276487590949863,48.180863787375415
2.2286454699491673,49.180863787375415
2.229642180803349,24.180863787375415
2.23063889165753,13.180863787375415
2.231635602511711,26.180863787375415
2.2326323133658925,17.180863787375415
2.2336290242200736,6.180863787375415
2.2346257350742547,-5.819136212624585
2.235622445928436,4.180863787375415
2.2366191567826172,-19.819136212624585
2.2376158676367983,-15.819136212624585
2.2386125784909794,-21.819136212624585
2.239609289345161,-31.819136212624585
2.240606000199342,-39.819136212624585
2.241602711053523,-32.819136212624585
2.2425994219077046,-21.819136212624585
2.2435961327618856,-11.819136212624585
2.2445928436160667,-1.819136212624585
2.2455895544702478,2.180863787375415
2.2465862653244293,8.180863787375415
2.2475829761786104,14.180863787375415
2.2485796870327914,25.180863787375415
2.249576397886973,38.180863787375415
2.250573108741154,33.180863787375415
2.251569819595335,23.180863787375415
2.2525665304495166,9.180863787375415
2.2535632413036977,20.180863787375415
2.2545599521578787,0.18086378737541509
2.25555666301206,1.180863787375415
2.2565533738662413,-9.819136212624585
2.2575500847204224,-11.819136212624585
2.2585467955746035,-26.819136212624585
2.259543506428785,-19.819136212624585
2.260540217282966,-16.819136212624585
2.261536928137147,-23.819136212624585
2.262533638991328,-10.819136212624585
2.2635303498455097,-4.819136212624585
2.264527060699691,-5.819136212624585
2.265523771553872,4.180863787375415
2.2665204824080534,19.180863787375415
2.2675171932622344,11.180863787375415
2.2685139041164155,13.180863787375415
2.269510614970597,15.180863787375415
2.270507325824778,13.180863787375415
2.271504036678959,29.180863787375415
2.2725007475331402,35.180863787375415
2.2734974583873218,17.180863787375415
2.274494169241503,18.180863787375415
2.275490880095684,3.180863787375415
2.2764875909498654,-14.819136212624585
2.2774843018040465,-31.819136212624585
2.2784810126582276,-52.819136212624585
2.2794777235124086,-42.819136212624585
2.28047443436659,-25.819136212624585
2.281471145220771,-33.819136212624585
2.2824678560749523,-12.819136212624585
2.283464566929134,-1.819136212624585
2.284461277783315,4.180863787375415
2.285457988637496,16.180863787375415
2.2864546994916775,22.180863787375415
2.2874514103458585,12.180863787375415
2.2884481212000396,11.180863787375415
2.2894448320542207,36.180863787375415
2.290441542908402,44.180863787375415
2.2914382537625833,35.180863787375415
2.2924349646167643,13.180863787375415
2.293431675470946,5.180863787375415
2.294428386325127,3.180863787375415
2.295425097179308,-13.819136212624585
2.2964218080334895,-26.819136212624585
2.2974185188876706,-18.819136212624585
2.2984152297418516,-23.819136212624585
2.2994119405960327,-46.819136212624585
2.3004086514502142,-28.819136212624585
2.3014053623043953,-8.819136212624585
2.3024020731585764,-0.8191362126245849
2.303398784012758,14.180863787375415
2.304395494866939,4.180863787375415
2.30539220572112,5.180863787375415
2.306388916575301,5.180863787375415
2.3073856274294826,14.180863787375415
2.3083823382836637,13.180863787375415
2.3093790491378448,17.180863787375415
2.3103757599920263,30.180863787375415
2.3113724708462073,25.180863787375415
2.3123691817003884,15.180863787375415
2.31336589255457,1.180863787375415
2.314362603408751,-2.819136212624585
2.315359314262932,-0.8191362126245849
2.316356025117113,-11.819136212624585
2.3173527359712947,-14.819136212624585
2.3183494468254757,-29.819136212624585
2.319346157679657,-26.819136212624585
2.3203428685338383,-23.819136212624585
2.3213395793880194,-17.819136212624585
2.3223362902422005,-10.819136212624585
2.3233330010963815,-20.819136212624585
2.324329711950563,-17.819136212624585
2.325326422804744,14.180863787375415
2.326323133658925,13.180863787375415
2.3273198445131067,31.180863787375415
2.3283165553672878,13.180863787375415
2.329313266221469,16.180863787375415
2.3303099770756504,15.180863787375415
2.3313066879298314,23.180863787375415
2.3323033987840125,30.180863787375415
2.3333001096381936,20.180863787375415
2.334296820492375,8.180863787375415
2.335293531346556,-1.819136212624585
2.336290242200737,-12.819136212624585
2.3372869530549187,-19.819136212624585
2.3382836639091,-26.819136212624585
2.339280374763281,-27.819136212624585
2.340277085617462,-24.819136212624585
2.3412737964716435,-24.819136212624585
2.3422705073258245,-19.819136212624585
2.3432672181800056,-13.819136212624585
2.344263929034187,-13.819136212624585
2.345260639888368,5.180863787375415
2.3462573507425493,20.180863787375415
2.347254061596731,29.180863787375415
2.348250772450912,20.180863787375415
2.349247483305093,32.180863787375415
2.350244194159274,33.180863787375415
2.3512409050134555,20.180863787375415
2.3522376158676366,13.180863787375415
2.3532343267218176,12.180863787375415
2.354231037575999,4.180863787375415
2.3552277484301802,-4.819136212624585
2.3562244592843613,-17.819136212624585
2.3572211701385424,-28.819136212624585
2.358217880992724,-29.819136212624585
2.359214591846905,-24.819136212624585
2.360211302701086,-19.819136212624585
2.3612080135552675,-24.819136212624585
2.3622047244094486,-12.819136212624585
2.3632014352636297,-24.819136212624585
2.364198146117811,-7.819136212624585
2.3651948569719923,14.180863787375415
2.3661915678261733,12.180863787375415
2.3671882786803544,25.180863787375415
2.368184989534536,30.180863787375415
2.369181700388717,27.180863787375415
2.370178411242898,22.180863787375415
2.3711751220970796,18.180863787375415
2.3721718329512607,14.180863787375415
2.3731685438054417,3.180863787375415
2.3741652546596232,2.180863787375415
2.3751619655138043,-2.819136212624585
2.3761586763679854,-12.819136212624585
2.3771553872221665,-5.819136212624585
2.378152098076348,-18.819136212624585
2.379148808930529,-24.819136212624585
2.38014551978471,-26.819136212624585
2.3811422306388916,-23.819136212624585
2.3821389414930727,-19.819136212624585
2.3831356523472538,-11.819136212624585
2.384132363201435,-9.819136212624585
2.3851290740556164,8.180863787375415
2.3861257849097974,11.180863787375415
2.3871224957639785,13.180863787375415
2.38811920661816,19.180863787375415
2.389115917472341,32.180863787375415
2.390112628326522,26.180863787375415
2.3911093391807037,18.180863787375415
2.3921060500348847,26.180863787375415
2.393102760889066,24.180863787375415
2.394099471743247,-1.819136212624585
2.3950961825974284,9.180863787375415
2.3960928934516095,-4.819136212624585
2.3970896043057905,-21.819136212624585
2.398086315159972,-20.819136212624585
2.399083026014153,-26.819136212624585
2.400079736868334,-43.819136212624585
2.4010764477225153,-36.819136212624585
2.402073158576697,-10.819136212624585
2.403069869430878,-8.819136212624585
2.404066580285059,-7.819136212624585
2.4050632911392404,8.180863787375415
2.4060600019934215,22.180863787375415
2.4070567128476026,25.180863787375415
2.408053423701784,19.180863787375415
2.409050134555965,21.180863787375415
2.4100468454101462,22.180863787375415
2.4110435562643273,22.180863787375415
2.412040267118509,13.180863787375415
2.41303697797269,6.180863787375415
2.414033688826871,-5.819136212624585
2.4150303996810525,-1.819136212624585
2.4160271105352336,0.18086378737541509
2.4170238213894146,-8.819136212624585
2.4180205322435957,-23.819136212624585
2.419017243097777,-28.819136212624585
2.4200139539519583,-28.819136212624585
2.4210106648061394,-19.819136212624585
2.422007375660321,-4.819136212624585
2.423004086514502,-4.819136212624585
2.424000797368683,-16.819136212624585
2.4249975082228645,-2.819136212624585
2.4259942190770456,16.180863787375415
2.4269909299312267,24.180863787375415
2.4279876407854077,27.180863787375415
2.4289843516395893,19.180863787375415
2.4299810624937703,20.180863787375415
2.4309777733479514,17.180863787375415
2.431974484202133,14.180863787375415
2.432971195056314,20.180863787375415
2.433967905910495,8.180863787375415
2.434964616764676,0.18086378737541509
2.4359613276188576,-18.819136212624585
2.4369580384730387,-22.819136212624585
2.43795474932722,-26.819136212624585
2.4389514601814013,-31.819136212624585
2.4399481710355824,-36.819136212624585
2.4409448818897634,-29.819136212624585
2.441941592743945,-18.819136212624585
2.442938303598126,-9.819136212624585
2.443935014452307,5.180863787375415
2.444931725306488,-2.819136212624585
2.4459284361606697,7.180863787375415
2.4469251470148508,22.180863787375415
2.447921857869032,36.180863787375415
2.4489185687232133,36.180863787375415
2.4499152795773944,23.180863787375415
2.4509119904315755,19.180863787375415
2.451908701285757,22.180863787375415
2.452905412139938,17.180863787375415
2.453902122994119,11.180863787375415
2.4548988338483,1.180863787375415
2.4558955447024817,-22.819136212624585
2.456892255556663,-24.819136212624585
2.457888966410844,-25.819136212624585
2.4588856772650254,-22.819136212624585
2.4598823881192065,-32.819136212624585
2.4608790989733875,-7.819136212624585
2.4618758098275686,-25.819136212624585
2.46287252068175,-15.819136212624585
2.463869231535931,14.180863787375415
2.4648659423901123,30.180863787375415
2.4658626532442938,19.180863787375415
2.466859364098475,11.180863787375415
2.467856074952656,19.180863787375415
2.4688527858068374,16.180863787375415
2.4698494966610185,11.180863787375415
2.4708462075151996,10.180863787375415
2.4718429183693806,17.180863787375415
2.472839629223562,9.180863787375415
2.4738363400777432,1.180863787375415
2.4748330509319243,-3.819136212624585
2.475829761786106,-19.819136212624585
2.476826472640287,-25.819136212624585
2.477823183494468,-18.819136212624585
2.478819894348649,-6.819136212624585
2.4798166052028305,-15.819136212624585
2.4808133160570116,-38.819136212624585
2.4818100269111927,-25.819136212624585
2.482806737765374,-14.819136212624585
2.4838034486195553,12.180863787375415
2.4848001594737363,11.180863787375415
2.485796870327918,10.180863787375415
2.486793581182099,22.180863787375415
2.48779029203628,21.180863787375415
2.488787002890461,17.180863787375415
2.4897837137446426,16.180863787375415
2.4907804245988237,22.180863787375415
2.4917771354530047,23.180863787375415
2.4927738463071862,13.180863787375415
2.4937705571613673,11.180863787375415
2.4947672680155484,-12.819136212624585
2.4957639788697294,-12.819136212624585
2.496760689723911,-24.819136212624585
2.497757400578092,-32.819136212624585
2.498754111432273,-23.819136212624585
2.4997508222864546,-7.819136212624585
2.5007475331406357,-3.819136212624585
2.5017442439948168,-8.819136212624585
2.5027409548489983,-16.819136212624585
2.5037376657031793,-7.819136212624585
2.5047343765573604,4.180863787375415
2.5057310874115415,14.180863787375415
2.506727798265723,17.180863787375415
2.507724509119904,6.180863787375415
2.508721219974085,-5.819136212624585
2.5097179308282667,28.180863787375415
2.5107146416824477,44.180863787375415
2.511711352536629,29.180863787375415
2.51270806339081,-5.819136212624585
2.5137047742449914,10.180863787375415
2.5147014850991725,6.180863787375415
2.5156981959533535,-14.819136212624585
2.516694906807535,-28.819136212624585
2.517691617661716,-11.819136212624585
2.518688328515897,-22.819136212624585
2.5196850393700787,-12.819136212624585
2.5206817502242598,-22.819136212624585
2.521678461078441,-15.819136212624585
2.522675171932622,-6.819136212624585
2.5236718827868034,-3.819136212624585
2.5246685936409845,7.180863787375415
2.5256653044951656,4.180863787375415
2.526662015349347,6.180863787375415
2.527658726203528,21.180863787375415
2.5286554370577092,23.180863787375415
2.5296521479118907,27.180863787375415
2.530648858766072,19.180863787375415
2.531645569620253,14.180863787375415
2.532642280474434,3.180863787375415
2.5336389913286155,-8.819136212624585
2.5346357021827965,-10.819136212624585
2.5356324130369776,-2.819136212624585
2.536629123891159,3.180863787375415
2.53762583474534,-17.819136212624585
2.5386225455995213,-27.819136212624585
2.5396192564537023,-12.819136212624585
2.540615967307884,-10.819136212624585
2.541612678162065,-25.819136212624585
2.542609389016246,-20.819136212624585
2.5436060998704275,-13.819136212624585
2.5446028107246086,16.180863787375415
2.5455995215787897,13.180863787375415
2.546596232432971,23.180863787375415
2.5475929432871522,29.180863787375415
2.5485896541413333,30.180863787375415
2.5495863649955144,30.180863787375415
2.550583075849696,13.180863787375415
2.551579786703877,17.180863787375415
2.552576497558058,8.180863787375415
2.5535732084122396,-2.819136212624585
2.5545699192664206,-6.819136212624585
2.5555666301206017,-20.819136212624585
2.5565633409747828,-28.819136212624585
2.5575600518289643,-16.819136212624585
2.5585567626831454,-21.819136212624585
2.5595534735373264,-23.819136212624585
2.560550184391508,-18.819136212624585
2.561546895245689,-19.819136212624585
2.56254360609987,-8.819136212624585
2.5635403169540516,9.180863787375415
2.5645370278082327,8.180863787375415
2.5655337386624137,3.180863787375415
2.566530449516595,10.180863787375415
2.5675271603707763,17.180863787375415
2.5685238712249574,25.180863787375415
2.5695205820791385,25.180863787375415
2.57051729293332,29.180863787375415
2.571514003787501,24.180863787375415
2.572510714641682,8.180863787375415
2.573507425495863,8.180863787375415
2.5745041363500447,-5.819136212624585
2.575500847204226,-28.819136212624585
2.576497558058407,-28.819136212624585
2.5774942689125884,-21.819136212624585
2.5784909797667694,-36.819136212624585
2.5794876906209505,-14.819136212624585
2.580484401475132,-24.819136212624585
2.581481112329313,-32.819136212624585
2.582477823183494,3.180863787375415
2.5834745340376752,13.180863787375415
2.5844712448918568,10.180863787375415
2.585467955746038,19.180863787375415
2.586464666600219,39.180863787375415
2.5874613774544004,17.180863787375415
2.5884580883085815,21.180863787375415
2.5894547991627626,29.180863787375415
2.590451510016944,14.180863787375415
2.591448220871125,8.180863787375415
2.592444931725306,9.180863787375415
2.5934416425794873,-0.8191362126245849
2.594438353433669,-5.819136212624585
2.59543506428785,-10.819136212624585
2.596431775142031,-13.819136212624585
2.5974284859962125,-23.819136212624585
2.5984251968503935,-15.819136212624585
2.5994219077045746,-20.819136212624585
2.6004186185587557,-22.819136212624585
2.601415329412937,-10.819136212624585
2.6024120402671183,-16.819136212624585
2.6034087511212993,-14.819136212624585
2.604405461975481,-11.819136212624585
2.605402172829662,-2.819136212624585
2.606398883683843,14.180863787375415
2.6073955945380245,30.180863787375415
2.6083923053922056,31.180863787375415
2.6093890162463866,32.180863787375415
2.6103857271005677,22.180863787375415
2.6113824379547492,8.180863787375415
2.6123791488089303,4.180863787375415
2.6133758596631114,1.180863787375415
2.614372570517293,3.180863787375415
2.615369281371474,-5.819136212624585
2.616365992225655,-22.819136212624585
2.617362703079836,-38.819136212624585
2.6183594139340176,-43.819136212624585
2.6193561247881987,-10.819136212624585
2.6203528356423798,-2.819136212624585
2.6213495464965613,-7.819136212624585
2.6223462573507423,-8.819136212624585
2.6233429682049234,6.180863787375415
2.624339679059105,-9.819136212624585
2.625336389913286,1.180863787375415
2.626333100767467,41.180863787375415
2.627329811621648,44.180863787375415
2.6283265224758297,32.180863787375415
2.6293232333300107,18.180863787375415
2.630319944184192,9.180863787375415
2.6313166550383733,16.180863787375415
2.6323133658925544,11.180863787375415
2.6333100767467355,12.180863787375415
2.6343067876009165,-2.819136212624585
2.635303498455098,-18.819136212624585
2.636300209309279,-32.819136212624585
2.63729692016346,-30.819136212624585
2.6382936310176417,-15.819136212624585
2.6392903418718228,-13.819136212624585
2.640287052726004,-19.819136212624585
2.6412837635801854,-12.819136212624585
2.6422804744343664,-18.819136212624585
2.6432771852885475,-1.819136212624585
2.6442738961427286,16.180863787375415
2.64527060699691,9.180863787375415
2.646267317851091,12.180863787375415
2.647264028705272,17.180863787375415
2.6482607395594537,19.180863787375415
2.649257450413635,28.180863787375415
2.650254161267816,23.180863787375415
2.651250872121997,19.180863787375415
2.6522475829761785,8.180863787375415
2.6532442938303595,3.180863787375415
2.6542410046845406,-6.819136212624585
2.655237715538722,-22.819136212624585
2.656234426392903,-22.819136212624585
2.6572311372470843,-26.819136212624585
2.6582278481012658,-13.819136212624585
2.659224558955447,-8.819136212624585
2.660221269809628,-14.819136212624585
2.661217980663809,-18.819136212624585
2.6622146915179905,-10.819136212624585
2.6632114023721716,-8.819136212624585
2.6642081132263526,-10.819136212624585
2.665204824080534,19.180863787375415
2.6662015349347152,23.180863787375415
2.6671982457888963,22.180863787375415
2.668194956643078,20.180863787375415
2.669191667497259,17.180863787375415
2.67018837835144,17.180863787375415
2.671185089205621,32.180863787375415
2.6721818000598025,24.180863787375415
2.6731785109139836,8.180863787375415
2.6741752217681647,-3.819136212624585
2.675171932622346,-3.819136212624585
2.6761686434765273,-33.819136212624585
2.6771653543307083,-38.819136212624585
2.6781620651848894,-14.819136212624585
2.679158776039071,-32.819136212624585
2.680155486893252,-38.819136212624585
2.681152197747433,-27.819136212624585
2.6821489086016146,4.180863787375415
2.6831456194557957,12.180863787375415
2.6841423303099767,-1.819136212624585
2.6851390411641582,19.180863787375415
2.6861357520183393,19.180863787375415
2.6871324628725204,35.180863787375415
2.6881291737267015,38.180863787375415
2.689125884580883,21.180863787375415
2.690122595435064,5.180863787375415
2.691119306289245,2.180863787375415
2.6921160171434266,5.180863787375415
2.6931127279976077,-8.819136212624585
2.6941094388517888,0.18086378737541509
2.69510614970597,3.180863787375415
2.6961028605601514,0.18086378737541509
2.6970995714143324,-5.819136212624585
2.6980962822685135,-14.819136212624585
2.699092993122695,-20.819136212624585
2.700089703976876,-27.819136212624585
2.701086414831057,-22.819136212624585
2.7020831256852387,-14.819136212624585
2.7030798365394197,-5.819136212624585
2.704076547393601,3.180863787375415
2.705073258247782,8.180863787375415
2.7060699691019634,9.180863787375415
2.7070666799561445,21.180863787375415
2.7080633908103255,9.180863787375415
2.709060101664507,17.180863787375415
2.710056812518688,20.180863787375415
2.711053523372869,14.180863787375415
2.7120502342270503,3.180863787375415
2.713046945081232,3.180863787375415
2.714043655935413,2.180863787375415
2.715040366789594,-15.819136212624585
2.7160370776437754,-24.819136212624585
2.7170337884979565,-14.819136212624585
2.7180304993521376,-15.819136212624585
2.719027210206319,-11.819136212624585
2.7200239210605,-18.819136212624585
2.7210206319146812,-8.819136212624585
2.7220173427688623,-7.819136212624585
2.723014053623044,-1.819136212624585
2.724010764477225,12.180863787375415
2.725007475331406,7.180863787375415
2.7260041861855875,15.180863787375415
2.7270008970397686,14.180863787375415
2.7279976078939496,13.180863787375415
2.7289943187481307,22.180863787375415
2.729991029602312,21.180863787375415
2.7309877404564933,17.180863787375415
2.7319844513106744,8.180863787375415
2.732981162164856,-8.819136212624585
2.733977873019037,-8.819136212624585
2.734974583873218,-5.819136212624585
2.7359712947273995,-12.819136212624585
2.7369680055815806,-14.819136212624585
2.7379647164357617,-18.819136212624585
2.7389614272899427,-14.819136212624585
2.7399581381441243,-12.819136212624585
2.7409548489983053,-15.819136212624585
2.7419515598524864,-13.819136212624585
2.742948270706668,-6.819136212624585
2.743944981560849,-1.819136212624585
2.74494169241503,1.180863787375415
2.7459384032692116,4.180863787375415
2.7469351141233926,17.180863787375415
2.7479318249775737,26.180863787375415
2.748928535831755,25.180863787375415
2.7499252466859363,24.180863787375415
2.7509219575401174,30.180863787375415
2.7519186683942984,18.180863787375415
2.75291537924848,4.180863787375415
2.753912090102661,0.18086378737541509
2.754908800956842,-7.819136212624585
2.755905511811023,-12.819136212624585
2.7569022226652047,-19.819136212624585
2.7578989335193858,-14.819136212624585
2.758895644373567,-30.819136212624585
2.7598923552277483,-46.819136212624585
2.7608890660819294,-17.819136212624585
2.7618857769361105,0.18086378737541509
2.762882487790292,4.180863787375415
2.763879198644473,-1.819136212624585
2.764875909498654,6.180863787375415
2.765872620352835,32.180863787375415
2.7668693312070167,30.180863787375415
2.767866042061198,15.180863787375415
2.768862752915379,20.180863787375415
2.7698594637695604,12.180863787375415
2.7708561746237415,2.180863787375415
2.7718528854779225,-0.8191362126245849
2.7728495963321036,3.180863787375415
2.773846307186285,3.180863787375415
2.774843018040466,-4.819136212624585
2.7758397288946473,-13.819136212624585
2.7768364397488288,-27.819136212624585
2.77783315060301,-28.819136212624585
2.778829861457191,-26.819136212624585
2.7798265723113724,-10.819136212624585
2.7808232831655535,-2.819136212624585
2.7818199940197346,-0.8191362126245849
2.7828167048739156,-1.819136212624585
2.783813415728097,1.180863787375415
2.7848101265822782,11.180863787375415
2.7858068374364593,24.180863787375415
2.786803548290641,28.180863787375415
2.787800259144822,19.180863787375415
2.788796969999003,18.180863787375415
2.789793680853184,18.180863787375415
2.7907903917073655,7.180863787375415
2.7917871025615466,7.180863787375415
2.7927838134157277,-1.819136212624585
2.793780524269909,-1.819136212624585
2.7947772351240903,-6.819136212624585
2.7957739459782713,-10.819136212624585
2.796770656832453,-23.819136212624585
2.797767367686634,-36.819136212624585
2.798764078540815,-25.819136212624585
2.799760789394996,-29.819136212624585
2.8007575002491776,-19.819136212624585
2.8017542111033586,-7.819136212624585
2.8027509219575397,2.180863787375415
2.8037476328117212,12.180863787375415
2.8047443436659023,7.180863787375415
2.8057410545200834,20.180863787375415
2.8067377653742644,28.180863787375415
2.807734476228446,29.180863787375415
2.808731187082627,44.180863787375415
2.809727897936808,29.180863787375415
2.8107246087909896,25.180863787375415
2.8117213196451707,8.180863787375415
2.8127180304993518,-0.8191362126245849
2.8137147413535333,-10.819136212624585
2.8147114522077143,-15.819136212624585
2.8157081630618954,-23.819136212624585
2.8167048739160765,-19.819136212624585
2.817701584770258,-21.819136212624585
2.818698295624439,-23.819136212624585
2.81969500647862,-26.819136212624585
2.8206917173328017,-19.819136212624585
2.8216884281869827,-17.819136212624585
2.822685139041164,-3.819136212624585
2.8236818498953453,0.18086378737541509
2.8246785607495264,3.180863787375415
2.8256752716037075,21.180863787375415
2.8266719824578885,25.180863787375415
2.82766869331207,27.180863787375415
2.828665404166251,19.180863787375415
2.829662115020432,12.180863787375415
2.8306588258746137,15.180863787375415
2.8316555367287948,5.180863787375415
2.832652247582976,0.18086378737541509
2.833648958437157,5.180863787375415
2.8346456692913384,-9.819136212624585
2.8356423801455195,-12.819136212624585
2.8366390909997006,-17.819136212624585
2.837635801853882,-18.819136212624585
2.838632512708063,-21.819136212624585
2.8396292235622442,-29.819136212624585
2.8406259344164257,-18.819136212624585
2.841622645270607,-5.819136212624585
2.842619356124788,-0.8191362126245849
2.843616066978969,-0.8191362126245849
2.8446127778331505,6.180863787375415
2.8456094886873315,26.180863787375415
2.8466061995415126,35.180863787375415
2.847602910395694,32.180863787375415
2.848599621249875,24.180863787375415
2.8495963321040563,17.180863787375415
2.8505930429582373,11.180863787375415
2.851589753812419,1.180863787375415
2.8525864646666,4.180863787375415
2.853583175520781,11.180863787375415
2.8545798863749625,-4.819136212624585
2.8555765972291436,-15.819136212624585
2.8565733080833247,-27.819136212624585
2.857570018937506,-28.819136212624585
2.8585667297916872,-18.819136212624585
2.8595634406458683,-21.819136212624585
2.8605601515000494,-27.819136212624585
2.861556862354231,-10.819136212624585
2.862553573208412,4.180863787375415
2.863550284062593,6.180863787375415
2.8645469949167746,0.18086378737541509
2.8655437057709556,-0.8191362126245849
2.8665404166251367,17.180863787375415
2.8675371274793178,27.180863787375415
2.8685338383334993,22.180863787375415
2.8695305491876804,18.180863787375415
2.8705272600418614,18.180863787375415
2.871523970896043,31.180863787375415
2.872520681750224,8.180863787375415
2.873517392604405,4.180863787375415
2.8745141034585866,-19.819136212624585
2.8755108143127677,-23.819136212624585
2.8765075251669487,-12.819136212624585
2.87750423602113,-18.819136212624585
2.8785009468753113,-19.819136212624585
2.8794976577294924,-15.819136212624585
2.8804943685836735,-15.819136212624585
2.881491079437855,0.18086378737541509
2.882487790292036,-5.819136212624585
2.883484501146217,5.180863787375415
2.8844812120003986,14.180863787375415
2.8854779228545797,23.180863787375415
2.886474633708761,22.180863787375415
2.887471344562942,26.180863787375415
2.8884680554171234,6.180863787375415
2.8894647662713044,2.180863787375415
2.8904614771254855,11.180863787375415
2.891458187979667,7.180863787375415
2.892454898833848,-2.819136212624585
2.893451609688029,-4.819136212624585
2.8944483205422102,-7.819136212624585
2.8954450313963918,-13.819136212624585
2.896441742250573,-25.819136212624585
2.897438453104754,-28.819136212624585
2.8984351639589354,-19.819136212624585
2.8994318748131165,-22.819136212624585
2.9004285856672976,-2.819136212624585
2.901425296521479,-5.819136212624585
2.90242200737566,2.180863787375415
2.903418718229841,6.180863787375415
2.9044154290840223,5.180863787375415
2.905412139938204,10.180863787375415
2.906408850792385,14.180863787375415
2.907405561646566,17.180863787375415
2.9084022725007475,15.180863787375415
2.9093989833549285,22.180863787375415
2.9103956942091096,29.180863787375415
2.9113924050632907,9.180863787375415
2.912389115917472,-2.819136212624585
2.9133858267716533,1.180863787375415
2.9143825376258343,1.180863787375415
2.915379248480016,-15.819136212624585
2.916375959334197,-29.819136212624585
2.917372670188378,-24.819136212624585
2.9183693810425595,-22.819136212624585
2.9193660918967406,-26.819136212624585
2.9203628027509216,-17.819136212624585
2.9213595136051027,1.180863787375415
2.9223562244592842,-4.819136212624585
2.9233529353134653,11.180863787375415
2.9243496461676464,12.180863787375415
2.925346357021828,8.180863787375415
2.926343067876009,20.180863787375415
2.92733977873019,30.180863787375415
2.928336489584371,32.180863787375415
2.9293332004385526,24.180863787375415
2.9303299112927337,12.180863787375415
2.9313266221469148,-0.8191362126245849
2.9323233330010963,-6.819136212624585
2.9333200438552773,-3.819136212624585
2.9343167547094584,-1.819136212624585
2.93531346556364,-12.819136212624585
2.936310176417821,-18.819136212624585
2.937306887272002,-30.819136212624585
2.938303598126183,-25.819136212624585
2.9393003089803647,-39.819136212624585
2.9402970198345457,-12.819136212624585
2.941293730688727,1.180863787375415
2.9422904415429083,9.180863787375415
2.9432871523970894,12.180863787375415
2.9442838632512704,4.180863787375415
2.9452805741054515,20.180863787375415
2.946277284959633,19.180863787375415
2.947273995813814,14.180863787375415
2.948270706667995,12.180863787375415
2.9492674175221767,10.180863787375415
2.9502641283763578,13.180863787375415
2.951260839230539,13.180863787375415
2.9522575500847204,4.180863787375415
2.9532542609389014,-3.819136212624585
2.9542509717930825,1.180863787375415
2.9552476826472636,-10.819136212624585
2.956244393501445,-21.819136212624585
2.957241104355626,-30.819136212624585
2.958237815209807,-21.819136212624585
2.9592345260639887,-21.819136212624585
2.96023123691817,-11.819136212624585
2.961227947772351,-3.819136212624585
2.9622246586265324,9.180863787375415
2.9632213694807135,8.180863787375415
2.9642180803348945,1.180863787375415
2.9652147911890756,4.180863787375415
2.966211502043257,15.180863787375415
2.967208212897438,21.180863787375415
2.9682049237516193,20.180863787375415
2.9692016346058008,21.180863787375415
2.970198345459982,11.180863787375415
2.971195056314163,18.180863787375415
2.972191767168344,8.180863787375415
2.9731884780225255,-9.819136212624585
2.9741851888767066,-11.819136212624585
2.9751818997308876,-4.819136212624585
2.976178610585069,-17.819136212624585
2.9771753214392502,-14.819136212624585
2.9781720322934313,-21.819136212624585
2.979168743147613,-30.819136212624585
2.980165454001794,-23.819136212624585
2.981162164855975,-7.819136212624585
2.982158875710156,-2.819136212624585
2.9831555865643375,21.180863787375415
2.9841522974185186,12.180863787375415
2.9851490082726997,14.180863787375415
2.986145719126881,17.180863787375415
2.9871424299810623,16.180863787375415
2.9881391408352433,4.180863787375415
2.9891358516894244,24.180863787375415
2.990132562543606,39.180863787375415
2.991129273397787,12.180863787375415
2.992125984251968,-15.819136212624585
2.9931226951061496,-14.819136212624585
2.9941194059603307,-15.819136212624585
2.9951161168145117,-21.819136212624585
2.9961128276686932,-18.819136212624585
2.9971095385228743,-1.819136212624585
2.9981062493770554,-11.819136212624585
2.9991029602312365,-36.819136212624585
3.000099671085418,-29.819136212624585
3.001096381939599,-1.819136212624585
3.00209309279378,12.180863787375415
3.0030898036479616,14.180863787375415
3.0040865145021427,23.180863787375415
3.0050832253563238,14.180863787375415
3.006079936210505,5.180863787375415
3.0070766470646864,8.180863787375415
3.0080733579188674,21.180863787375415
3.0090700687730485,17.180863787375415
3.01006677962723,20.180863787375415
3.011063490481411,13.180863787375415
3.012060201335592,4.180863787375415
3.0130569121897737,-2.819136212624585
3.0140536230439547,-9.819136212624585
3.015050333898136,-11.819136212624585
3.016047044752317,-17.819136212624585
3.0170437556064984,-22.819136212624585
3.0180404664606795,-22.819136212624585
3.0190371773148605,-23.819136212624585
3.020033888169042,-18.819136212624585
3.021030599023223,-15.819136212624585
3.022027309877404,-8.819136212624585
3.0230240207315853,-0.8191362126245849
3.024020731585767,9.180863787375415
3.025017442439948,12.180863787375415
3.026014153294129,18.180863787375415
3.0270108641483104,12.180863787375415
3.0280075750024915,21.180863787375415
3.0290042858566726,22.180863787375415
3.030000996710854,29.180863787375415
3.030997707565035,28.180863787375415
3.0319944184192162,-1.819136212624585
3.0329911292733973,2.180863787375415
3.033987840127579,-0.8191362126245849
3.03498455098176,-7.819136212624585
3.035981261835941,-18.819136212624585
3.0369779726901225,-23.819136212624585
3.0379746835443036,-19.819136212624585
3.0389713943984846,-19.819136212624585
3.039968105252666,-3.819136212624585
3.040964816106847,-9.819136212624585
3.0419615269610283,-11.819136212624585
3.0429582378152094,-4.819136212624585
3.043954948669391,4.180863787375415
3.044951659523572,6.180863787375415
3.045948370377753,7.180863787375415
3.0469450812319345,17.180863787375415
3.0479417920861156,37.180863787375415
3.0489385029402967,30.180863787375415
3.0499352137944777,11.180863787375415
3.0509319246486593,1.180863787375415
3.0519286355028403,1.180863787375415
3.0529253463570214,8.180863787375415
3.053922057211203,-6.819136212624585
3.054918768065384,-14.819136212624585
3.055915478919565,-20.819136212624585
3.0569121897737466,-19.819136212624585
3.0579089006279276,-26.819136212624585
3.0589056114821087,-23.819136212624585
3.05990232233629,-19.819136212624585
3.0608990331904713,-13.819136212624585
3.0618957440446524,-7.819136212624585
3.0628924548988334,0.18086378737541509
3.063889165753015,2.180863787375415
3.064885876607196,11.180863787375415
3.065882587461377,24.180863787375415
3.066879298315558,23.180863787375415
3.0678760091697397,30.180863787375415
3.0688727200239208,38.180863787375415
3.069869430878102,22.180863787375415
3.0708661417322833,16.180863787375415
3.0718628525864644,15.180863787375415
3.0728595634406455,-6.819136212624585
3.073856274294827,-33.819136212624585
3.074852985149008,-22.819136212624585
3.075849696003189,-17.819136212624585
3.07684640685737,-26.819136212624585
3.0778431177115517,-22.819136212624585
3.078839828565733,-16.819136212624585
3.079836539419914,-13.819136212624585
3.0808332502740954,-2.819136212624585
3.0818299611282765,9.180863787375415
3.0828266719824575,8.180863787375415
3.0838233828366386,8.180863787375415
3.08482009369082,5.180863787375415
3.085816804545001,5.180863787375415
3.0868135153991823,5.180863787375415
3.0878102262533638,20.180863787375415
3.088806937107545,35.180863787375415
3.089803647961726,32.180863787375415
3.0908003588159074,17.180863787375415
3.0917970696700885,9.180863787375415
3.0927937805242696,-3.819136212624585
3.0937904913784506,-15.819136212624585
3.094787202232632,-23.819136212624585
3.095783913086813,-35.819136212624585
3.0967806239409943,-17.819136212624585
3.097777334795176,-22.819136212624585
3.098774045649357,-28.819136212624585
3.099770756503538,-13.819136212624585
3.1007674673577195,-16.819136212624585
3.1017641782119005,4.180863787375415
3.1027608890660816,14.180863787375415
3.1037575999202627,21.180863787375415
3.104754310774444,17.180863787375415
3.1057510216286253,12.180863787375415
3.1067477324828063,17.180863787375415
3.107744443336988,13.180863787375415
3.108741154191169,24.180863787375415
3.10973786504535,32.180863787375415
3.110734575899531,13.180863787375415
3.1117312867537126,3.180863787375415
3.1127279976078936,-8.819136212624585
3.1137247084620747,-19.819136212624585
3.1147214193162562,-20.819136212624585
3.1157181301704373,-22.819136212624585
3.1167148410246184,-25.819136212624585
3.1177115518788,-22.819136212624585
3.118708262732981,-27.819136212624585
3.119704973587162,-14.819136212624585
3.120701684441343,4.180863787375415
3.1216983952955246,15.180863787375415
3.1226951061497057,5.180863787375415
3.1236918170038868,7.180863787375415
3.1246885278580683,18.180863787375415
3.1256852387122493,22.180863787375415
3.1266819495664304,13.180863787375415
3.1276786604206115,11.180863787375415
3.128675371274793,7.180863787375415
3.129672082128974,16.180863787375415
3.130668792983155,25.180863787375415
3.1316655038373367,20.180863787375415
3.1326622146915177,9.180863787375415
3.133658925545699,-19.819136212624585
3.1346556363998803,-24.819136212624585
3.1356523472540614,-29.819136212624585
3.1366490581082425,-31.819136212624585
3.1376457689624235,-26.819136212624585
3.138642479816605,-14.819136212624585
3.139639190670786,-16.819136212624585
3.140635901524967,-10.819136212624585
3.1416326123791487,-4.819136212624585
3.1426293232333298,1.180863787375415
3.143626034087511,13.180863787375415
3.144622744941692,36.180863787375415
3.1456194557958734,40.180863787375415
