Time,EMG
0.0,504.5244140625
0.05865102639296188,504.5244140625
0.11730205278592376,505.5244140625
0.17595307917888564,504.5244140625
0.23460410557184752,361.5244140625
0.2932551319648094,-185.4755859375
0.3519061583577713,-254.4755859375
0.41055718475073316,-481.4755859375
0.46920821114369504,-517.4755859375
0.5278592375366569,-517.4755859375
0.5865102639296188,-517.4755859375
0.6451612903225807,-517.4755859375
0.7038123167155426,-517.4755859375
0.7624633431085044,-517.4755859375
0.8211143695014663,-446.4755859375
0.8797653958944283,345.5244140625
0.9384164222873901,504.5244140625
0.9970674486803519,505.5244140625
1.0557184750733137,505.5244140625
1.1143695014662758,504.5244140625
1.1730205278592376,504.5244140625
1.2316715542521994,504.5244140625
1.2903225806451615,505.5244140625
1.3489736070381233,504.5244140625
1.4076246334310851,305.5244140625
1.466275659824047,-172.4755859375
1.5249266862170088,-240.4755859375
1.5835777126099708,-459.4755859375
1.6422287390029326,-517.4755859375
1.7008797653958945,-517.4755859375
1.7595307917888565,-517.4755859375
1.8181818181818183,-517.4755859375
1.8768328445747802,-517.4755859375
1.935483870967742,-517.4755859375
1.9941348973607038,-412.4755859375
2.0527859237536656,439.5244140625
2.1114369501466275,504.5244140625
2.1700879765395897,504.5244140625
2.2287390029325516,505.5244140625
2.2873900293255134,504.5244140625
2.346041055718475,504.5244140625
2.404692082111437,504.5244140625
2.463343108504399,504.5244140625
2.5219941348973607,504.5244140625
2.580645161290323,297.5244140625
2.6392961876832848,-274.4755859375
2.6979472140762466,-328.4755859375
2.7565982404692084,-467.4755859375
2.8152492668621703,-517.4755859375
2.873900293255132,-517.4755859375
2.932551319648094,-517.4755859375
2.9912023460410557,-517.4755859375
3.0498533724340176,-517.4755859375
3.10850439882698,-517.4755859375
3.1671554252199416,-354.4755859375
3.2258064516129035,468.5244140625
3.2844574780058653,504.5244140625
3.343108504398827,504.5244140625
3.401759530791789,504.5244140625
3.4604105571847508,504.5244140625
3.519061583577713,504.5244140625
3.577712609970675,504.5244140625
3.6363636363636367,504.5244140625
3.6950146627565985,504.5244140625
3.7536656891495603,203.5244140625
3.812316715542522,-253.4755859375
3.870967741935484,-374.4755859375
3.929618768328446,-488.4755859375
3.9882697947214076,-517.4755859375
4.0469208211143695,-517.4755859375
4.105571847507331,-517.4755859375
4.164222873900293,-517.4755859375
4.222873900293255,-517.4755859375
4.281524926686218,-517.4755859375
4.3401759530791795,-319.4755859375
4.398826979472141,416.5244140625
4.457478005865103,504.5244140625
4.516129032258065,505.5244140625
4.574780058651027,505.5244140625
4.633431085043989,504.5244140625
4.69208211143695,504.5244140625
4.750733137829912,504.5244140625
4.809384164222874,504.5244140625
4.868035190615836,502.5244140625
4.926686217008798,176.5244140625
4.9853372434017595,-337.4755859375
5.043988269794721,-352.4755859375
5.102639296187683,-517.4755859375
5.161290322580646,-517.4755859375
5.219941348973608,-517.4755859375
5.2785923753665696,-517.4755859375
5.337243401759531,-517.4755859375
5.395894428152493,-517.4755859375
5.454545454545455,-517.4755859375
5.513196480938417,-289.4755859375
5.571847507331379,490.5244140625
5.6304985337243405,504.5244140625
5.689149560117302,504.5244140625
5.747800586510264,504.5244140625
5.806451612903226,504.5244140625
5.865102639296188,504.5244140625
5.92375366568915,504.5244140625
5.9824046920821115,504.5244140625
6.041055718475073,480.5244140625
6.099706744868035,197.5244140625
6.158357771260998,-318.4755859375
6.21700879765396,-343.4755859375
6.2756598240469215,-517.4755859375
6.334310850439883,-517.4755859375
6.392961876832845,-517.4755859375
6.451612903225807,-517.4755859375
6.510263929618769,-517.4755859375
6.568914956011731,-517.4755859375
6.627565982404692,-517.4755859375
6.686217008797654,-322.4755859375
6.744868035190616,504.5244140625
6.803519061583578,504.5244140625
6.86217008797654,504.5244140625
6.9208211143695015,504.5244140625
6.979472140762463,504.5244140625
7.038123167155426,504.5244140625
7.096774193548388,504.5244140625
7.15542521994135,504.5244140625
7.2140762463343115,501.5244140625
7.272727272727273,202.5244140625
7.331378299120235,-325.4755859375
7.390029325513197,-350.4755859375
7.448680351906159,-517.4755859375
7.507331378299121,-517.4755859375
7.5659824046920825,-517.4755859375
7.624633431085044,-517.4755859375
7.683284457478006,-517.4755859375
7.741935483870968,-517.4755859375
7.80058651026393,-517.4755859375
7.859237536656892,-310.4755859375
7.9178885630498534,488.5244140625
7.976539589442815,504.5244140625
8.035190615835777,504.5244140625
8.093841642228739,505.5244140625
8.1524926686217,504.5244140625
8.211143695014663,504.5244140625
8.269794721407624,504.5244140625
8.328445747800586,504.5244140625
8.387096774193548,505.5244140625
8.44574780058651,278.5244140625
8.504398826979473,-446.4755859375
8.563049853372435,-354.4755859375
8.621700879765397,-517.4755859375
8.680351906158359,-517.4755859375
8.73900293255132,-517.4755859375
8.797653958944283,-517.4755859375
8.856304985337244,-517.4755859375
8.914956011730206,-517.4755859375
8.973607038123168,-517.4755859375
9.03225806451613,-303.4755859375
9.090909090909092,469.5244140625
9.149560117302054,504.5244140625
9.208211143695015,504.5244140625
9.266862170087977,504.5244140625
9.325513196480939,504.5244140625
9.3841642228739,504.5244140625
9.442815249266863,504.5244140625
9.501466275659824,504.5244140625
9.560117302052786,414.5244140625
9.618768328445748,125.5244140625
9.67741935483871,-378.4755859375
9.736070381231672,-456.4755859375
9.794721407624634,-517.4755859375
9.853372434017595,-517.4755859375
9.912023460410557,-517.4755859375
9.970674486803519,-517.4755859375
10.029325513196481,-517.4755859375
10.087976539589443,-517.4755859375
10.146627565982405,-517.4755859375
10.205278592375366,-63.4755859375
10.263929618768328,504.5244140625
10.322580645161292,504.5244140625
10.381231671554254,504.5244140625
10.439882697947215,504.5244140625
10.498533724340177,504.5244140625
10.557184750733139,504.5244140625
10.615835777126101,504.5244140625
10.674486803519063,504.5244140625
10.733137829912025,419.5244140625
10.791788856304986,187.5244140625
10.850439882697948,-332.4755859375
10.90909090909091,-305.4755859375
10.967741935483872,-517.4755859375
11.026392961876834,-517.4755859375
11.085043988269796,-517.4755859375
11.143695014662757,-517.4755859375
11.20234604105572,-517.4755859375
11.260997067448681,-517.4755859375
11.319648093841643,-517.4755859375
11.378299120234605,-351.4755859375
11.436950146627566,372.5244140625
11.495601173020528,434.5244140625
11.55425219941349,504.5244140625
11.612903225806452,504.5244140625
11.671554252199414,504.5244140625
11.730205278592376,504.5244140625
11.788856304985337,504.5244140625
11.8475073313783,504.5244140625
11.906158357771261,504.5244140625
11.964809384164223,473.5244140625
12.023460410557185,-290.4755859375
12.082111436950147,-311.4755859375
12.140762463343108,-517.4755859375
12.19941348973607,-517.4755859375
12.258064516129034,-517.4755859375
12.316715542521996,-517.4755859375
12.375366568914957,-517.4755859375
12.43401759530792,-517.4755859375
12.492668621700881,-517.4755859375
12.551319648093843,-111.4755859375
12.609970674486805,455.5244140625
12.668621700879767,482.5244140625
12.727272727272728,504.5244140625
12.78592375366569,505.5244140625
12.844574780058652,504.5244140625
12.903225806451614,504.5244140625
12.961876832844576,504.5244140625
13.020527859237538,504.5244140625
13.0791788856305,381.5244140625
13.137829912023461,41.5244140625
13.196480938416423,-468.4755859375
13.255131964809385,-465.4755859375
13.313782991202347,-517.4755859375
13.372434017595308,-517.4755859375
13.43108504398827,-517.4755859375
13.489736070381232,-517.4755859375
13.548387096774194,-517.4755859375
13.607038123167156,-517.4755859375
13.665689149560118,-517.4755859375
13.72434017595308,-280.4755859375
13.782991202346041,441.5244140625
13.841642228739003,504.5244140625
13.900293255131965,504.5244140625
13.958944281524927,505.5244140625
14.017595307917889,504.5244140625
14.076246334310852,504.5244140625
14.134897360703814,504.5244140625
14.193548387096776,504.5244140625
14.252199413489738,349.5244140625
14.3108504398827,203.5244140625
14.369501466275661,-202.4755859375
14.428152492668623,-363.4755859375
14.486803519061585,-517.4755859375
14.545454545454547,-517.4755859375
14.604105571847509,-517.4755859375
14.66275659824047,-517.4755859375
14.721407624633432,-517.4755859375
14.780058651026394,-517.4755859375
14.838709677419356,-517.4755859375
14.897360703812318,-316.4755859375
14.95601173020528,439.5244140625
15.014662756598241,504.5244140625
15.073313782991203,504.5244140625
15.131964809384165,504.5244140625
15.190615835777127,504.5244140625
15.249266862170089,504.5244140625
15.30791788856305,504.5244140625
15.366568914956012,504.5244140625
15.425219941348974,423.5244140625
15.483870967741936,223.5244140625
15.542521994134898,-280.4755859375
15.60117302052786,-281.4755859375
15.659824046920821,-517.4755859375
15.718475073313783,-517.4755859375
15.777126099706745,-517.4755859375
15.835777126099707,-517.4755859375
15.894428152492669,-517.4755859375
15.95307917888563,-517.4755859375
16.011730205278592,-517.4755859375
16.070381231671554,-225.4755859375
16.129032258064516,448.5244140625
16.187683284457478,504.5244140625
16.24633431085044,504.5244140625
16.3049853372434,504.5244140625
16.363636363636363,504.5244140625
16.422287390029325,504.5244140625
16.480938416422287,504.5244140625
16.53958944281525,504.5244140625
16.59824046920821,373.5244140625
16.656891495601172,195.5244140625
16.715542521994134,-320.4755859375
16.774193548387096,-226.4755859375
16.832844574780058,-517.4755859375
16.89149560117302,-517.4755859375
16.950146627565985,-517.4755859375
17.008797653958947,-517.4755859375
17.06744868035191,-517.4755859375
17.12609970674487,-517.4755859375
17.184750733137832,-517.4755859375
17.243401759530794,-312.4755859375
17.302052785923756,381.5244140625
17.360703812316718,504.5244140625
17.41935483870968,504.5244140625
17.47800586510264,504.5244140625
17.536656891495603,504.5244140625
17.595307917888565,504.5244140625
17.653958944281527,504.5244140625
17.71260997067449,504.5244140625
17.77126099706745,385.5244140625
17.829912023460412,216.5244140625
17.888563049853374,-297.4755859375
17.947214076246336,-315.4755859375
18.005865102639298,-517.4755859375
18.06451612903226,-517.4755859375
18.12316715542522,-517.4755859375
18.181818181818183,-517.4755859375
18.240469208211145,-517.4755859375
18.299120234604107,-517.4755859375
18.35777126099707,-517.4755859375
18.41642228739003,-275.4755859375
18.475073313782993,501.5244140625
18.533724340175954,504.5244140625
18.592375366568916,504.5244140625
18.651026392961878,504.5244140625
18.70967741935484,504.5244140625
18.7683284457478,504.5244140625
18.826979472140764,504.5244140625
18.885630498533725,505.5244140625
18.944281524926687,394.5244140625
19.00293255131965,194.5244140625
19.06158357771261,-334.4755859375
19.120234604105573,-338.4755859375
19.178885630498534,-517.4755859375
19.237536656891496,-517.4755859375
19.296187683284458,-517.4755859375
19.35483870967742,-517.4755859375
19.41348973607038,-517.4755859375
19.472140762463344,-517.4755859375
19.530791788856305,-517.4755859375
19.589442815249267,-328.4755859375
19.64809384164223,400.5244140625
19.70674486803519,504.5244140625
19.765395894428153,504.5244140625
19.824046920821115,505.5244140625
19.882697947214076,504.5244140625
19.941348973607038,504.5244140625
20.0,504.5244140625
20.058651026392962,504.5244140625
20.117302052785924,484.5244140625
20.175953079178885,258.5244140625
20.234604105571847,-238.4755859375
20.29325513196481,-243.4755859375
20.35190615835777,-517.4755859375
20.410557184750733,-517.4755859375
20.469208211143695,-517.4755859375
20.527859237536656,-517.4755859375
20.58651026392962,-517.4755859375
20.645161290322584,-517.4755859375
20.703812316715545,-517.4755859375
20.762463343108507,-390.4755859375
20.82111436950147,343.5244140625
20.87976539589443,483.5244140625
20.938416422287393,504.5244140625
20.997067448680355,504.5244140625
21.055718475073316,504.5244140625
21.114369501466278,504.5244140625
21.17302052785924,504.5244140625
21.231671554252202,504.5244140625
21.290322580645164,358.5244140625
21.348973607038126,212.5244140625
21.407624633431087,-236.4755859375
21.46627565982405,-314.4755859375
21.52492668621701,-517.4755859375
21.583577712609973,-517.4755859375
21.642228739002935,-517.4755859375
21.700879765395896,-517.4755859375
21.75953079178886,-517.4755859375
21.81818181818182,-517.4755859375
21.876832844574782,-517.4755859375
21.935483870967744,-318.4755859375
21.994134897360706,361.5244140625
22.052785923753667,503.5244140625
22.11143695014663,504.5244140625
22.17008797653959,504.5244140625
22.228739002932553,504.5244140625
22.287390029325515,504.5244140625
22.346041055718477,504.5244140625
22.40469208211144,505.5244140625
22.4633431085044,407.5244140625
22.521994134897362,242.5244140625
22.580645161290324,-267.4755859375
22.639296187683286,-210.4755859375
22.697947214076247,-517.4755859375
22.75659824046921,-517.4755859375
22.81524926686217,-517.4755859375
22.873900293255133,-517.4755859375
22.932551319648095,-517.4755859375
22.991202346041057,-517.4755859375
23.04985337243402,-517.4755859375
23.10850439882698,-313.4755859375
23.167155425219942,413.5244140625
23.225806451612904,504.5244140625
23.284457478005866,504.5244140625
23.343108504398828,504.5244140625
23.40175953079179,504.5244140625
23.46041055718475,504.5244140625
23.519061583577713,504.5244140625
23.577712609970675,504.5244140625
23.636363636363637,340.5244140625
23.6950146627566,171.5244140625
23.75366568914956,-306.4755859375
23.812316715542522,-276.4755859375
23.870967741935484,-517.4755859375
23.929618768328446,-517.4755859375
23.988269794721408,-517.4755859375
24.04692082111437,-517.4755859375
24.10557184750733,-517.4755859375
24.164222873900293,-517.4755859375
24.222873900293255,-517.4755859375
24.281524926686217,-355.4755859375
24.34017595307918,452.5244140625
24.39882697947214,470.5244140625
24.457478005865106,504.5244140625
24.516129032258068,504.5244140625
24.57478005865103,504.5244140625
24.63343108504399,504.5244140625
24.692082111436953,504.5244140625
24.750733137829915,504.5244140625
24.809384164222877,421.5244140625
24.86803519061584,271.5244140625
24.9266862170088,-282.4755859375
24.985337243401762,-306.4755859375
25.043988269794724,-517.4755859375
25.102639296187686,-517.4755859375
25.161290322580648,-517.4755859375
25.21994134897361,-517.4755859375
25.27859237536657,-517.4755859375
25.337243401759533,-517.4755859375
25.395894428152495,-517.4755859375
25.454545454545457,-417.4755859375
25.51319648093842,329.5244140625
25.57184750733138,464.5244140625
25.630498533724342,504.5244140625
25.689149560117304,505.5244140625
25.747800586510266,504.5244140625
25.806451612903228,504.5244140625
25.86510263929619,504.5244140625
25.92375366568915,505.5244140625
25.982404692082113,480.5244140625
26.041055718475075,306.5244140625
26.099706744868037,-228.4755859375
26.158357771261,-234.4755859375
26.21700879765396,-517.4755859375
26.275659824046922,-517.4755859375
26.334310850439884,-517.4755859375
26.392961876832846,-517.4755859375
26.451612903225808,-517.4755859375
26.51026392961877,-517.4755859375
26.56891495601173,-517.4755859375
26.627565982404693,-359.4755859375
26.686217008797655,361.5244140625
26.744868035190617,480.5244140625
26.80351906158358,504.5244140625
26.86217008797654,504.5244140625
26.920821114369502,504.5244140625
26.979472140762464,504.5244140625
27.038123167155426,504.5244140625
27.096774193548388,504.5244140625
27.15542521994135,350.5244140625
27.21407624633431,211.5244140625
27.272727272727273,-250.4755859375
27.331378299120235,-339.4755859375
27.390029325513197,-517.4755859375
27.44868035190616,-517.4755859375
27.50733137829912,-517.4755859375
27.565982404692082,-517.4755859375
27.624633431085044,-517.4755859375
27.683284457478006,-517.4755859375
27.741935483870968,-517.4755859375
27.80058651026393,-401.4755859375
27.85923753665689,337.5244140625
27.917888563049853,459.5244140625
27.976539589442815,504.5244140625
28.035190615835777,504.5244140625
28.09384164222874,504.5244140625
28.152492668621704,504.5244140625
28.211143695014666,504.5244140625
28.269794721407628,504.5244140625
28.32844574780059,285.5244140625
28.38709677419355,234.5244140625
28.445747800586513,-238.4755859375
28.504398826979475,-212.4755859375
28.563049853372437,-517.4755859375
28.6217008797654,-517.4755859375
28.68035190615836,-517.4755859375
28.739002932551323,-517.4755859375
28.797653958944284,-517.4755859375
28.856304985337246,-517.4755859375
28.914956011730208,-517.4755859375
28.97360703812317,-215.4755859375
29.03225806451613,392.5244140625
29.090909090909093,504.5244140625
29.149560117302055,505.5244140625
29.208211143695017,505.5244140625
29.26686217008798,504.5244140625
29.32551319648094,504.5244140625
29.384164222873903,504.5244140625
29.442815249266864,504.5244140625
29.501466275659826,384.5244140625
29.560117302052788,230.5244140625
29.61876832844575,-280.4755859375
29.67741935483871,-264.4755859375
29.736070381231674,-517.4755859375
29.794721407624635,-517.4755859375
29.853372434017597,-517.4755859375
29.91202346041056,-517.4755859375
29.97067448680352,-517.4755859375
30.029325513196483,-517.4755859375
30.087976539589445,-517.4755859375
30.146627565982406,-361.4755859375
30.205278592375368,418.5244140625
30.26392961876833,436.5244140625
30.322580645161292,505.5244140625
30.381231671554254,504.5244140625
30.439882697947215,504.5244140625
30.498533724340177,504.5244140625
30.55718475073314,504.5244140625
30.6158357771261,504.5244140625
30.674486803519063,389.5244140625
30.733137829912025,230.5244140625
30.791788856304986,-288.4755859375
30.85043988269795,-266.4755859375
30.90909090909091,-517.4755859375
30.967741935483872,-517.4755859375
31.026392961876834,-517.4755859375
31.085043988269796,-517.4755859375
31.143695014662757,-517.4755859375
31.20234604105572,-517.4755859375
31.26099706744868,-517.4755859375
31.319648093841643,-349.4755859375
31.378299120234605,387.5244140625
31.436950146627566,471.5244140625
31.49560117302053,504.5244140625
31.55425219941349,505.5244140625
31.612903225806452,504.5244140625
31.671554252199414,504.5244140625
31.730205278592376,504.5244140625
31.788856304985337,504.5244140625
31.8475073313783,301.5244140625
31.90615835777126,275.5244140625
31.964809384164226,-308.4755859375
32.023460410557185,-330.4755859375
32.08211143695015,-517.4755859375
32.14076246334311,-517.4755859375
32.199413489736074,-517.4755859375
32.25806451612903,-517.4755859375
32.316715542522,-517.4755859375
32.375366568914956,-517.4755859375
32.43401759530792,-517.4755859375
32.49266862170088,-325.4755859375
32.551319648093845,362.5244140625
32.6099706744868,490.5244140625
32.66862170087977,504.5244140625
32.72727272727273,504.5244140625
32.78592375366569,504.5244140625
32.84457478005865,504.5244140625
32.903225806451616,504.5244140625
32.961876832844574,504.5244140625
33.02052785923754,331.5244140625
33.0791788856305,189.5244140625
33.13782991202346,-204.4755859375
33.19648093841642,-345.4755859375
33.25513196480939,-517.4755859375
33.313782991202345,-517.4755859375
33.37243401759531,-517.4755859375
33.43108504398827,-517.4755859375
33.489736070381234,-517.4755859375
33.54838709677419,-517.4755859375
33.60703812316716,-517.4755859375
33.665689149560116,-336.4755859375
33.72434017595308,352.5244140625
33.78299120234604,446.5244140625
33.841642228739005,504.5244140625
33.90029325513197,504.5244140625
33.95894428152493,504.5244140625
34.017595307917894,504.5244140625
34.07624633431085,504.5244140625
34.13489736070382,504.5244140625
34.193548387096776,350.5244140625
34.25219941348974,242.5244140625
34.3108504398827,-293.4755859375
34.369501466275665,-267.4755859375
34.42815249266862,-517.4755859375
34.48680351906159,-517.4755859375
34.54545454545455,-517.4755859375
34.60410557184751,-517.4755859375
34.66275659824047,-517.4755859375
34.721407624633436,-517.4755859375
34.780058651026394,-517.4755859375
34.83870967741936,-265.4755859375
34.89736070381232,405.5244140625
34.95601173020528,502.5244140625
35.01466275659824,504.5244140625
35.07331378299121,504.5244140625
35.131964809384165,504.5244140625
35.19061583577713,504.5244140625
35.24926686217009,504.5244140625
35.307917888563054,505.5244140625
35.36656891495601,374.5244140625
35.42521994134898,243.5244140625
35.483870967741936,-320.4755859375
35.5425219941349,-332.4755859375
35.60117302052786,-517.4755859375
35.659824046920825,-517.4755859375
35.71847507331378,-517.4755859375
35.77712609970675,-517.4755859375
35.83577712609971,-517.4755859375
35.89442815249267,-517.4755859375
35.95307917888563,-517.4755859375
36.011730205278596,-393.4755859375
36.070381231671554,395.5244140625
36.12903225806452,408.5244140625
36.18768328445748,504.5244140625
36.24633431085044,505.5244140625
36.3049853372434,504.5244140625
36.36363636363637,504.5244140625
36.422287390029325,504.5244140625
36.48093841642229,504.5244140625
36.53958944281525,322.5244140625
36.598240469208214,251.5244140625
36.65689149560117,-315.4755859375
36.71554252199414,-365.4755859375
36.774193548387096,-517.4755859375
36.83284457478006,-517.4755859375
36.89149560117302,-517.4755859375
36.950146627565985,-517.4755859375
37.00879765395894,-517.4755859375
37.06744868035191,-517.4755859375
37.12609970674487,-517.4755859375
37.18475073313783,-298.4755859375
37.24340175953079,443.5244140625
37.302052785923756,504.5244140625
37.360703812316714,504.5244140625
37.41935483870968,505.5244140625
37.47800586510264,504.5244140625
37.5366568914956,504.5244140625
37.59530791788857,504.5244140625
37.65395894428153,504.5244140625
37.71260997067449,381.5244140625
37.77126099706745,276.5244140625
37.829912023460416,-382.4755859375
37.888563049853374,-246.4755859375
37.94721407624634,-517.4755859375
38.0058651026393,-517.4755859375
38.06451612903226,-517.4755859375
38.12316715542522,-517.4755859375
38.18181818181819,-517.4755859375
38.240469208211145,-517.4755859375
38.29912023460411,-517.4755859375
38.35777126099707,-330.4755859375
38.416422287390034,373.5244140625
38.47507331378299,471.5244140625
38.53372434017596,504.5244140625
38.592375366568916,504.5244140625
38.65102639296188,504.5244140625
38.70967741935484,504.5244140625
38.768328445747805,504.5244140625
38.82697947214076,504.5244140625
38.88563049853373,319.5244140625
38.94428152492669,224.5244140625
39.00293255131965,-267.4755859375
39.06158357771261,-346.4755859375
39.120234604105576,-517.4755859375
39.178885630498534,-517.4755859375
39.2375366568915,-517.4755859375
39.29618768328446,-517.4755859375
39.35483870967742,-517.4755859375
39.41348973607038,-517.4755859375
39.47214076246335,-517.4755859375
39.530791788856305,-378.4755859375
39.58944281524927,356.5244140625
39.64809384164223,472.5244140625
39.706744868035194,504.5244140625
39.76539589442815,504.5244140625
39.82404692082112,504.5244140625
39.882697947214076,504.5244140625
39.94134897360704,504.5244140625
40.0,504.5244140625
40.058651026392965,333.5244140625
40.117302052785924,223.5244140625
40.17595307917889,-337.4755859375
40.23460410557185,-315.4755859375
40.29325513196481,-517.4755859375
40.35190615835777,-517.4755859375
40.410557184750736,-517.4755859375
40.469208211143695,-517.4755859375
40.52785923753666,-517.4755859375
40.58651026392962,-517.4755859375
40.645161290322584,-517.4755859375
40.70381231671554,-326.4755859375
40.76246334310851,384.5244140625
40.821114369501466,504.5244140625
40.87976539589443,504.5244140625
40.93841642228739,504.5244140625
40.997067448680355,504.5244140625
41.05571847507331,504.5244140625
41.11436950146628,504.5244140625
41.17302052785924,504.5244140625
41.2316715542522,343.5244140625
41.29032258064517,288.5244140625
41.348973607038126,-279.4755859375
41.40762463343109,-249.4755859375
41.46627565982405,-517.4755859375
41.524926686217015,-517.4755859375
41.58357771260997,-517.4755859375
41.64222873900294,-517.4755859375
41.7008797653959,-517.4755859375
41.75953079178886,-517.4755859375
41.81818181818182,-517.4755859375
41.876832844574785,-412.4755859375
41.935483870967744,408.5244140625
41.99413489736071,448.5244140625
42.05278592375367,504.5244140625
42.11143695014663,505.5244140625
42.17008797653959,504.5244140625
42.228739002932556,504.5244140625
42.287390029325515,504.5244140625
42.34604105571848,505.5244140625
42.40469208211144,350.5244140625
42.463343108504404,330.5244140625
42.52199413489736,-326.4755859375
42.58064516129033,-359.4755859375
42.639296187683286,-517.4755859375
42.69794721407625,-517.4755859375
42.75659824046921,-517.4755859375
42.815249266862175,-517.4755859375
42.87390029325513,-517.4755859375
42.9325513196481,-517.4755859375
42.99120234604106,-517.4755859375
43.04985337243402,-405.4755859375
43.10850439882698,340.5244140625
43.167155425219946,478.5244140625
43.225806451612904,504.5244140625
43.28445747800587,505.5244140625
43.34310850439883,504.5244140625
43.40175953079179,504.5244140625
43.46041055718475,504.5244140625
43.51906158357772,505.5244140625
43.577712609970675,404.5244140625
43.63636363636364,317.5244140625
43.6950146627566,-323.4755859375
43.753665689149564,-346.4755859375
43.81231671554252,-517.4755859375
43.87096774193549,-517.4755859375
43.929618768328446,-517.4755859375
43.98826979472141,-517.4755859375
44.04692082111437,-517.4755859375
44.105571847507335,-517.4755859375
44.16422287390029,-517.4755859375
44.22287390029326,-379.4755859375
44.28152492668622,381.5244140625
44.34017595307918,494.5244140625
44.39882697947214,504.5244140625
44.457478005865106,504.5244140625
44.516129032258064,504.5244140625
44.57478005865103,504.5244140625
44.63343108504399,504.5244140625
44.69208211143695,504.5244140625
44.75073313782991,380.5244140625
44.80938416422288,302.5244140625
44.868035190615835,-228.4755859375
44.9266862170088,-329.4755859375
44.98533724340176,-517.4755859375
45.043988269794724,-517.4755859375
45.10263929618769,-517.4755859375
45.16129032258065,-517.4755859375
45.21994134897361,-517.4755859375
45.27859237536657,-517.4755859375
45.33724340175954,-517.4755859375
45.395894428152495,-365.4755859375
45.45454545454546,372.5244140625
45.51319648093842,495.5244140625
45.571847507331384,504.5244140625
45.63049853372434,504.5244140625
45.68914956011731,504.5244140625
45.747800586510266,504.5244140625
45.80645161290323,504.5244140625
45.86510263929619,504.5244140625
45.923753665689155,354.5244140625
45.98240469208211,290.5244140625
46.04105571847508,-287.4755859375
46.09970674486804,-301.4755859375
46.158357771261,-517.4755859375
46.21700879765396,-517.4755859375
46.275659824046926,-517.4755859375
46.334310850439884,-517.4755859375
46.39296187683285,-517.4755859375
46.45161290322581,-517.4755859375
46.51026392961877,-517.4755859375
46.56891495601173,-378.4755859375
46.6275659824047,286.5244140625
46.686217008797655,501.5244140625
46.74486803519062,505.5244140625
46.80351906158358,505.5244140625
46.862170087976544,504.5244140625
46.9208211143695,504.5244140625
46.97947214076247,504.5244140625
47.038123167155426,504.5244140625
47.09677419354839,330.5244140625
47.15542521994135,295.5244140625
47.214076246334315,-307.4755859375
47.27272727272727,-289.4755859375
47.33137829912024,-517.4755859375
47.3900293255132,-517.4755859375
47.44868035190616,-517.4755859375
47.50733137829912,-517.4755859375
47.565982404692086,-517.4755859375
47.624633431085044,-517.4755859375
47.68328445747801,-517.4755859375
47.74193548387097,-440.4755859375
47.80058651026393,361.5244140625
47.85923753665689,406.5244140625
47.91788856304986,504.5244140625
47.976539589442815,504.5244140625
48.03519061583578,504.5244140625
48.09384164222874,504.5244140625
48.152492668621704,504.5244140625
48.21114369501466,504.5244140625
48.26979472140763,381.5244140625
48.328445747800586,299.5244140625
48.38709677419355,-296.4755859375
48.44574780058651,-318.4755859375
48.504398826979475,-517.4755859375
48.56304985337243,-517.4755859375
48.6217008797654,-517.4755859375
48.68035190615836,-517.4755859375
48.73900293255132,-517.4755859375
48.79765395894428,-517.4755859375
48.856304985337246,-517.4755859375
48.91495601173021,-407.4755859375
48.97360703812317,333.5244140625
49.032258064516135,466.5244140625
49.09090909090909,504.5244140625
49.14956011730206,505.5244140625
49.20821114369502,504.5244140625
49.26686217008798,504.5244140625
49.32551319648094,504.5244140625
49.384164222873906,504.5244140625
49.442815249266864,292.5244140625
49.50146627565983,246.5244140625
49.56011730205279,-281.4755859375
49.61876832844575,-370.4755859375
49.67741935483871,-517.4755859375
49.73607038123168,-517.4755859375
49.794721407624635,-517.4755859375
49.8533724340176,-517.4755859375
49.91202346041056,-517.4755859375
49.970674486803524,-517.4755859375
50.02932551319648,-517.4755859375
50.08797653958945,-358.4755859375
50.146627565982406,346.5244140625
50.20527859237537,472.5244140625
50.26392961876833,504.5244140625
50.322580645161295,504.5244140625
50.381231671554254,504.5244140625
50.43988269794722,504.5244140625
50.49853372434018,504.5244140625
50.55718475073314,504.5244140625
50.6158357771261,309.5244140625
50.674486803519066,245.5244140625
50.733137829912025,-272.4755859375
50.79178885630499,-360.4755859375
50.85043988269795,-517.4755859375
50.909090909090914,-517.4755859375
50.96774193548387,-517.4755859375
51.02639296187684,-517.4755859375
51.085043988269796,-517.4755859375
51.14369501466276,-517.4755859375
51.20234604105572,-517.4755859375
51.260997067448685,-352.4755859375
51.31964809384164,347.5244140625
51.37829912023461,458.5244140625
51.43695014662757,504.5244140625
51.49560117302053,504.5244140625
51.55425219941349,504.5244140625
51.612903225806456,504.5244140625
51.671554252199414,504.5244140625
51.73020527859238,504.5244140625
51.78885630498534,305.5244140625
51.8475073313783,272.5244140625
51.90615835777126,-289.4755859375
51.96480938416423,-293.4755859375
52.023460410557185,-517.4755859375
52.08211143695015,-517.4755859375
52.14076246334311,-517.4755859375
52.199413489736074,-517.4755859375
52.25806451612903,-517.4755859375
52.316715542522,-517.4755859375
52.375366568914956,-517.4755859375
52.43401759530792,-393.4755859375
52.49266862170088,333.5244140625
52.551319648093845,470.5244140625
52.60997067448681,504.5244140625
52.66862170087977,504.5244140625
52.727272727272734,504.5244140625
52.78592375366569,504.5244140625
52.84457478005866,504.5244140625
52.903225806451616,504.5244140625
52.96187683284458,285.5244140625
53.02052785923754,267.5244140625
53.079178885630505,-292.4755859375
53.13782991202346,-300.4755859375
53.19648093841643,-517.4755859375
53.25513196480939,-517.4755859375
53.31378299120235,-517.4755859375
53.37243401759531,-517.4755859375
53.431085043988276,-517.4755859375
53.489736070381234,-517.4755859375
53.5483870967742,-517.4755859375
53.60703812316716,-386.4755859375
53.66568914956012,250.5244140625
53.72434017595308,504.5244140625
53.78299120234605,504.5244140625
53.841642228739005,505.5244140625
53.90029325513197,504.5244140625
53.95894428152493,504.5244140625
54.017595307917894,504.5244140625
54.07624633431085,505.5244140625
54.13489736070382,337.5244140625
54.193548387096776,304.5244140625
54.25219941348974,-297.4755859375
54.3108504398827,-307.4755859375
54.369501466275665,-517.4755859375
54.42815249266862,-517.4755859375
54.48680351906159,-517.4755859375
54.54545454545455,-517.4755859375
54.60410557184751,-517.4755859375
54.66275659824047,-517.4755859375
54.721407624633436,-517.4755859375
54.780058651026394,-388.4755859375
54.83870967741936,351.5244140625
54.89736070381232,474.5244140625
54.95601173020528,504.5244140625
55.01466275659824,505.5244140625
55.07331378299121,504.5244140625
55.131964809384165,504.5244140625
55.19061583577713,504.5244140625
55.24926686217009,504.5244140625
55.307917888563054,288.5244140625
55.36656891495601,264.5244140625
55.42521994134898,-359.4755859375
55.483870967741936,-323.4755859375
55.5425219941349,-517.4755859375
55.60117302052786,-517.4755859375
55.659824046920825,-517.4755859375
55.71847507331378,-517.4755859375
55.77712609970675,-517.4755859375
55.83577712609971,-517.4755859375
55.89442815249267,-517.4755859375
55.95307917888563,-326.4755859375
56.011730205278596,353.5244140625
56.070381231671554,478.5244140625
56.12903225806452,504.5244140625
56.18768328445748,504.5244140625
56.24633431085044,504.5244140625
56.30498533724341,504.5244140625
56.36363636363637,504.5244140625
56.42228739002933,504.5244140625
56.48093841642229,245.5244140625
56.539589442815256,238.5244140625
56.598240469208214,-285.4755859375
56.65689149560118,-374.4755859375
56.71554252199414,-517.4755859375
56.7741935483871,-517.4755859375
56.83284457478006,-517.4755859375
56.89149560117303,-517.4755859375
56.950146627565985,-517.4755859375
57.00879765395895,-517.4755859375
57.06744868035191,-517.4755859375
57.126099706744874,-349.4755859375
57.18475073313783,353.5244140625
57.2434017595308,471.5244140625
57.302052785923756,504.5244140625
57.36070381231672,504.5244140625
57.41935483870968,504.5244140625
57.478005865102645,504.5244140625
57.5366568914956,504.5244140625
57.59530791788857,504.5244140625
57.65395894428153,264.5244140625
57.71260997067449,254.5244140625
57.77126099706745,-316.4755859375
57.829912023460416,-326.4755859375
57.888563049853374,-517.4755859375
57.94721407624634,-517.4755859375
58.0058651026393,-517.4755859375
58.06451612903226,-517.4755859375
58.12316715542522,-517.4755859375
58.18181818181819,-517.4755859375
58.240469208211145,-517.4755859375
58.29912023460411,-338.4755859375
58.35777126099707,342.5244140625
58.416422287390034,448.5244140625
58.47507331378299,505.5244140625
58.53372434017596,504.5244140625
58.592375366568916,504.5244140625
58.65102639296188,504.5244140625
58.70967741935484,504.5244140625
58.768328445747805,505.5244140625
58.82697947214076,301.5244140625
58.88563049853373,262.5244140625
58.94428152492669,-297.4755859375
59.00293255131965,-313.4755859375
59.06158357771261,-517.4755859375
59.120234604105576,-517.4755859375
59.178885630498534,-517.4755859375
59.2375366568915,-517.4755859375
59.29618768328446,-517.4755859375
59.35483870967742,-517.4755859375
59.41348973607038,-517.4755859375
59.47214076246335,-406.4755859375
59.530791788856305,384.5244140625
59.58944281524927,440.5244140625
59.64809384164223,505.5244140625
59.706744868035194,504.5244140625
59.76539589442815,504.5244140625
59.82404692082112,504.5244140625
59.882697947214076,504.5244140625
59.94134897360704,505.5244140625
60.0,257.5244140625
