Time,EMG
0.0,-25.87774086378738
0.000996710854181202,-17.87774086378738
0.001993421708362404,-15.87774086378738
0.002990132562543606,-8.87774086378738
0.003986843416724808,-7.8777408637873805
0.00498355427090601,4.1222591362126195
0.005980265125087212,3.1222591362126195
0.006976975979268414,10.12225913621262
0.007973686833449616,25.12225913621262
0.008970397687630818,24.12225913621262
0.00996710854181202,22.12225913621262
0.01096381939599322,9.12225913621262
0.011960530250174423,8.12225913621262
0.012957241104355626,8.12225913621262
0.013953951958536827,0.12225913621261952
0.014950662812718028,2.1222591362126195
0.01594737366689923,-8.87774086378738
0.016944084521080434,4.1222591362126195
0.017940795375261637,9.12225913621262
0.018937506229442836,-23.87774086378738
0.01993421708362404,-24.87774086378738
0.02093092793780524,-19.87774086378738
0.02192763879198644,-22.87774086378738
0.022924349646167644,-18.87774086378738
0.023921060500348847,-18.87774086378738
0.02491777135453005,-13.87774086378738
0.025914482208711252,6.1222591362126195
0.02691119306289245,20.12225913621262
0.027907903917073654,29.12225913621262
0.028904614771254857,31.12225913621262
0.029901325625436057,16.12225913621262
0.03089803647961726,6.1222591362126195
0.03189474733379846,17.12225913621262
0.032891458187979665,33.12225913621262
0.03388816904216087,19.12225913621262
0.03488487989634207,1.1222591362126195
0.03588159075052327,-7.8777408637873805
0.03687830160470447,-18.87774086378738
0.03787501245888567,-35.87774086378738
0.038871723313066875,-26.87774086378738
0.03986843416724808,-24.87774086378738
0.04086514502142928,-22.87774086378738
0.04186185587561048,-10.87774086378738
0.042858566729791686,-7.8777408637873805
0.04385527758397288,-13.87774086378738
0.044851988438154085,-6.8777408637873805
0.04584869929233529,-7.8777408637873805
0.04684541014651649,6.1222591362126195
0.04784212100069769,20.12225913621262
0.048838831854878896,14.12225913621262
0.0498355427090601,19.12225913621262
0.0508322535632413,17.12225913621262
0.051828964417422504,28.12225913621262
0.0528256752716037,32.12225913621262
0.0538223861257849,26.12225913621262
0.054819096979966106,14.12225913621262
0.05581580783414731,-8.87774086378738
0.05681251868832851,-9.87774086378738
0.057809229542509714,-17.87774086378738
0.05880594039669092,-30.87774086378738
0.05980265125087211,-33.87774086378738
0.060799362105053316,-24.87774086378738
0.06179607295923452,-23.87774086378738
0.06279278381341573,-16.87774086378738
0.06378949466759692,-15.87774086378738
0.06478620552177812,-10.87774086378738
0.06578291637595933,-3.8777408637873805
0.06677962723014053,11.12225913621262
0.06777633808432174,24.12225913621262
0.06877304893850293,28.12225913621262
0.06976975979268414,31.12225913621262
0.07076647064686534,29.12225913621262
0.07176318150104655,40.12225913621262
0.07275989235522774,34.12225913621262
0.07375660320940894,14.12225913621262
0.07475331406359015,-1.8777408637873805
0.07575002491777134,-4.8777408637873805
0.07674673577195255,-19.87774086378738
0.07774344662613375,-27.87774086378738
0.07874015748031496,-38.87774086378738
0.07973686833449616,-25.87774086378738
0.08073357918867735,-6.8777408637873805
0.08173029004285856,-6.8777408637873805
0.08272700089703976,-21.87774086378738
0.08372371175122097,-23.87774086378738
0.08472042260540216,-8.87774086378738
0.08571713345958337,-5.8777408637873805
0.08671384431376457,6.1222591362126195
0.08771055516794576,18.12225913621262
0.08870726602212697,24.12225913621262
0.08970397687630817,28.12225913621262
0.09070068773048938,24.12225913621262
0.09169739858467058,30.12225913621262
0.09269410943885178,37.12225913621262
0.09369082029303298,24.12225913621262
0.09468753114721419,5.1222591362126195
0.09568424200139539,0.12225913621261952
0.09668095285557658,-3.8777408637873805
0.09767766370975779,-13.87774086378738
0.09867437456393899,-28.87774086378738
0.0996710854181202,-35.87774086378738
0.1006677962723014,-31.87774086378738
0.1016645071264826,-25.87774086378738
0.1026612179806638,-20.87774086378738
0.10365792883484501,-17.87774086378738
0.1046546396890262,-12.87774086378738
0.1056513505432074,-1.8777408637873805
0.10664806139738861,20.12225913621262
0.1076447722515698,30.12225913621262
0.10864148310575102,30.12225913621262
0.10963819395993221,28.12225913621262
0.11063490481411342,22.12225913621262
0.11163161566829462,23.12225913621262
0.11262832652247581,29.12225913621262
0.11362503737665702,17.12225913621262
0.11462174823083822,-9.87774086378738
0.11561845908501943,-16.87774086378738
0.11661516993920062,-19.87774086378738
0.11761188079338183,-25.87774086378738
0.11860859164756303,-32.87774086378738
0.11960530250174423,-27.87774086378738
0.12060201335592544,-25.87774086378738
0.12159872421010663,-13.87774086378738
0.12259543506428784,-4.8777408637873805
0.12359214591846904,-1.8777408637873805
0.12458885677265025,2.1222591362126195
0.12558556762683146,6.1222591362126195
0.12658227848101264,17.12225913621262
0.12757898933519385,17.12225913621262
0.12857570018937506,16.12225913621262
0.12957241104355624,12.12225913621262
0.13056912189773745,3.1222591362126195
0.13156583275191866,12.12225913621262
0.13256254360609987,9.12225913621262
0.13355925446028105,12.12225913621262
0.13455596531446226,30.12225913621262
0.13555267616864347,31.12225913621262
0.13654938702282465,13.12225913621262
0.13754609787700586,-8.87774086378738
0.13854280873118707,-23.87774086378738
0.13953951958536828,-28.87774086378738
0.14053623043954946,-31.87774086378738
0.14153294129373067,-28.87774086378738
0.14252965214791188,-26.87774086378738
0.1435263630020931,-23.87774086378738
0.14452307385627428,-28.87774086378738
0.14551978471045549,-15.87774086378738
0.1465164955646367,5.1222591362126195
0.14751320641881788,17.12225913621262
0.1485099172729991,23.12225913621262
0.1495066281271803,30.12225913621262
0.1505033389813615,46.12225913621262
0.1515000498355427,30.12225913621262
0.1524967606897239,8.12225913621262
0.1534934715439051,13.12225913621262
0.1544901823980863,16.12225913621262
0.1554868932522675,0.12225913621261952
0.1564836041064487,-5.8777408637873805
0.15748031496062992,-12.87774086378738
0.1584770258148111,-32.87774086378738
0.1594737366689923,-39.87774086378738
0.16047044752317352,-21.87774086378738
0.1614671583773547,-24.87774086378738
0.1624638692315359,-27.87774086378738
0.16346058008571712,-2.8777408637873805
0.16445729093989833,6.1222591362126195
0.1654540017940795,17.12225913621262
0.16645071264826072,16.12225913621262
0.16744742350244193,11.12225913621262
0.16844413435662312,15.12225913621262
0.16944084521080433,20.12225913621262
0.17043755606498553,15.12225913621262
0.17143426691916674,12.12225913621262
0.17243097777334793,12.12225913621262
0.17342768862752914,2.1222591362126195
0.17442439948171035,5.1222591362126195
0.17542111033589153,6.1222591362126195
0.17641782119007274,-13.87774086378738
0.17741453204425395,-21.87774086378738
0.17841124289843516,-19.87774086378738
0.17940795375261634,-28.87774086378738
0.18040466460679755,-17.87774086378738
0.18140137546097876,-9.87774086378738
0.18239808631515997,-20.87774086378738
0.18339479716934115,-24.87774086378738
0.18439150802352236,-17.87774086378738
0.18538821887770357,3.1222591362126195
0.18638492973188475,16.12225913621262
0.18738164058606596,41.12225913621262
0.18837835144024717,44.12225913621262
0.18937506229442838,24.12225913621262
0.19037177314860956,14.12225913621262
0.19136848400279077,23.12225913621262
0.19236519485697198,24.12225913621262
0.19336190571115316,3.1222591362126195
0.19435861656533437,-5.8777408637873805
0.19535532741951558,-6.8777408637873805
0.1963520382736968,-18.87774086378738
0.19734874912787798,-20.87774086378738
0.19834545998205919,-28.87774086378738
0.1993421708362404,-29.87774086378738
0.20033888169042158,-23.87774086378738
0.2013355925446028,-25.87774086378738
0.202332303398784,-21.87774086378738
0.2033290142529652,-15.87774086378738
0.2043257251071464,-10.87774086378738
0.2053224359613276,9.12225913621262
0.2063191468155088,22.12225913621262
0.20731585766969002,24.12225913621262
0.2083125685238712,24.12225913621262
0.2093092793780524,23.12225913621262
0.21030599023223362,16.12225913621262
0.2113027010864148,12.12225913621262
0.212299411940596,12.12225913621262
0.21329612279477722,2.1222591362126195
0.21429283364895843,8.12225913621262
0.2152895445031396,21.12225913621262
0.21628625535732082,16.12225913621262
0.21728296621150203,-9.87774086378738
0.21827967706568321,-17.87774086378738
0.21927638791986442,-29.87774086378738
0.22027309877404563,-33.87774086378738
0.22126980962822684,-30.87774086378738
0.22226652048240803,-38.87774086378738
0.22326323133658924,-20.87774086378738
0.22425994219077044,23.12225913621262
0.22525665304495163,14.12225913621262
0.22625336389913284,16.12225913621262
0.22725007475331405,25.12225913621262
0.22824678560749526,21.12225913621262
0.22924349646167644,20.12225913621262
0.23024020731585765,16.12225913621262
0.23123691817003886,33.12225913621262
0.23223362902422004,37.12225913621262
0.23323033987840125,30.12225913621262
0.23422705073258246,13.12225913621262
0.23522376158676367,-3.8777408637873805
0.23622047244094485,-19.87774086378738
0.23721718329512606,-24.87774086378738
0.23821389414930727,-35.87774086378738
0.23921060500348845,-48.87774086378738
0.24020731585766966,-39.87774086378738
0.24120402671185087,-21.87774086378738
0.24220073756603208,-23.87774086378738
0.24319744842021326,-9.87774086378738
0.24419415927439447,4.1222591362126195
0.24519087012857568,4.1222591362126195
0.2461875809827569,23.12225913621262
0.24718429183693807,27.12225913621262
0.24818100269111928,22.12225913621262
0.2491777135453005,19.12225913621262
0.2501744243994817,25.12225913621262
0.2511711352536629,29.12225913621262
0.2521678461078441,20.12225913621262
0.2531645569620253,9.12225913621262
0.2541612678162065,1.1222591362126195
0.2551579786703877,-16.87774086378738
0.2561546895245689,-18.87774086378738
0.2571514003787501,-17.87774086378738
0.2581481112329313,-19.87774086378738
0.2591448220871125,-12.87774086378738
0.2601415329412937,-16.87774086378738
0.2611382437954749,-30.87774086378738
0.26213495464965614,-38.87774086378738
0.2631316655038373,-30.87774086378738
0.2641283763580185,-9.87774086378738
0.26512508721219974,27.12225913621262
0.2661217980663809,36.12225913621262
0.2671185089205621,24.12225913621262
0.26811521977474334,30.12225913621262
0.2691119306289245,33.12225913621262
0.2701086414831057,18.12225913621262
0.27110535233728694,11.12225913621262
0.2721020631914681,17.12225913621262
0.2730987740456493,20.12225913621262
0.27409548489983054,8.12225913621262
0.2750921957540117,-9.87774086378738
0.27608890660819296,-18.87774086378738
0.27708561746237415,-25.87774086378738
0.2780823283165553,-30.87774086378738
0.27907903917073656,-27.87774086378738
0.28007575002491775,-26.87774086378738
0.28107246087909893,-26.87774086378738
0.28206917173328017,-24.87774086378738
0.28306588258746135,-27.87774086378738
0.28406259344164253,3.1222591362126195
0.28505930429582377,17.12225913621262
0.28605601515000495,16.12225913621262
0.2870527260041862,19.12225913621262
0.28804943685836737,23.12225913621262
0.28904614771254855,28.12225913621262
0.2900428585667298,24.12225913621262
0.29103956942091097,18.12225913621262
0.29203628027509215,15.12225913621262
0.2930329911292734,16.12225913621262
0.29402970198345457,21.12225913621262
0.29502641283763575,0.12225913621261952
0.296023123691817,-10.87774086378738
0.2970198345459982,-18.87774086378738
0.29801654540017936,-20.87774086378738
0.2990132562543606,-27.87774086378738
0.3000099671085418,-28.87774086378738
0.301006677962723,-39.87774086378738
0.3020033888169042,-34.87774086378738
0.3030000996710854,-7.8777408637873805
0.3039968105252666,-1.8777408637873805
0.3049935213794478,-4.8777408637873805
0.305990232233629,11.12225913621262
0.3069869430878102,27.12225913621262
0.3079836539419914,25.12225913621262
0.3089803647961726,28.12225913621262
0.3099770756503538,38.12225913621262
0.310973786504535,34.12225913621262
0.3119704973587162,19.12225913621262
0.3129672082128974,7.1222591362126195
0.3139639190670786,1.1222591362126195
0.31496062992125984,-10.87774086378738
0.315957340775441,-23.87774086378738
0.3169540516296222,-30.87774086378738
0.31795076248380344,-36.87774086378738
0.3189474733379846,-23.87774086378738
0.3199441841921658,-28.87774086378738
0.32094089504634704,-8.87774086378738
0.3219376059005282,0.12225913621261952
0.3229343167547094,1.1222591362126195
0.32393102760889064,-9.87774086378738
0.3249277384630718,-2.8777408637873805
0.32592444931725306,26.12225913621262
0.32692116017143424,42.12225913621262
0.3279178710256154,40.12225913621262
0.32891458187979666,27.12225913621262
0.32991129273397785,16.12225913621262
0.330908003588159,7.1222591362126195
0.33190471444234027,14.12225913621262
0.33290142529652145,19.12225913621262
0.33389813615070263,7.1222591362126195
0.33489484700488387,-6.8777408637873805
0.33589155785906505,-14.87774086378738
0.33688826871324623,-22.87774086378738
0.33788497956742747,-42.87774086378738
0.33888169042160865,-43.87774086378738
0.3398784012757899,-41.87774086378738
0.34087511212997107,-18.87774086378738
0.34187182298415225,-1.8777408637873805
0.3428685338383335,5.1222591362126195
0.34386524469251467,21.12225913621262
0.34486195554669585,16.12225913621262
0.3458586664008771,20.12225913621262
0.3468553772550583,22.12225913621262
0.34785208810923945,19.12225913621262
0.3488487989634207,8.12225913621262
0.3498455098176019,10.12225913621262
0.35084222067178306,15.12225913621262
0.3518389315259643,16.12225913621262
0.3528356423801455,11.12225913621262
0.3538323532343267,27.12225913621262
0.3548290640885079,7.1222591362126195
0.3558257749426891,-15.87774086378738
0.3568224857968703,-19.87774086378738
0.3578191966510515,-35.87774086378738
0.3588159075052327,-33.87774086378738
0.3598126183594139,-30.87774086378738
0.3608093292135951,-11.87774086378738
0.3618060400677763,-8.87774086378738
0.3628027509219575,-10.87774086378738
0.3637994617761387,-9.87774086378738
0.36479617263031994,-10.87774086378738
0.3657928834845011,-2.8777408637873805
0.3667895943386823,2.1222591362126195
0.36778630519286354,24.12225913621262
0.3687830160470447,32.12225913621262
0.3697797269012259,39.12225913621262
0.37077643775540714,37.12225913621262
0.3717731486095883,40.12225913621262
0.3727698594637695,25.12225913621262
0.37376657031795074,22.12225913621262
0.3747632811721319,3.1222591362126195
0.3757599920263131,-22.87774086378738
0.37675670288049434,-46.87774086378738
0.3777534137346755,-40.87774086378738
0.37875012458885676,-35.87774086378738
0.37974683544303794,-25.87774086378738
0.3807435462972191,-27.87774086378738
0.38174025715140036,-26.87774086378738
0.38273696800558155,-13.87774086378738
0.38373367885976273,-11.87774086378738
0.38473038971394397,-2.8777408637873805
0.38572710056812515,24.12225913621262
0.38672381142230633,34.12225913621262
0.38772052227648757,24.12225913621262
0.38871723313066875,40.12225913621262
0.38971394398485,41.12225913621262
0.39071065483903117,20.12225913621262
0.39170736569321235,12.12225913621262
0.3927040765473936,8.12225913621262
0.39370078740157477,4.1222591362126195
0.39469749825575595,5.1222591362126195
0.3956942091099372,4.1222591362126195
0.39669091996411837,-9.87774086378738
0.39768763081829955,-35.87774086378738
0.3986843416724808,-41.87774086378738
0.399681052526662,-35.87774086378738
0.40067776338084315,-33.87774086378738
0.4016744742350244,-33.87774086378738
0.4026711850892056,-21.87774086378738
0.4036678959433868,1.1222591362126195
0.404664606797568,7.1222591362126195
0.4056613176517492,12.12225913621262
0.4066580285059304,23.12225913621262
0.4076547393601116,15.12225913621262
0.4086514502142928,29.12225913621262
0.409648161068474,36.12225913621262
0.4106448719226552,32.12225913621262
0.4116415827768364,30.12225913621262
0.4126382936310176,12.12225913621262
0.4136350044851988,1.1222591362126195
0.41463171533938004,-7.8777408637873805
0.4156284261935612,-14.87774086378738
0.4166251370477424,-19.87774086378738
0.41762184790192364,-27.87774086378738
0.4186185587561048,-28.87774086378738
0.419615269610286,-32.87774086378738
0.42061198046446724,-29.87774086378738
0.4216086913186484,-20.87774086378738
0.4226054021728296,-1.8777408637873805
0.42360211302701084,4.1222591362126195
0.424598823881192,2.1222591362126195
0.4255955347353732,20.12225913621262
0.42659224558955444,22.12225913621262
0.4275889564437356,22.12225913621262
0.42858566729791686,30.12225913621262
0.42958237815209804,28.12225913621262
0.4305790890062792,15.12225913621262
0.43157579986046046,0.12225913621261952
0.43257251071464164,0.12225913621261952
0.4335692215688228,3.1222591362126195
0.43456593242300406,3.1222591362126195
0.43556264327718525,-7.8777408637873805
0.43655935413136643,-17.87774086378738
0.43755606498554767,-27.87774086378738
0.43855277583972885,-33.87774086378738
0.43954948669391003,-36.87774086378738
0.44054619754809127,-33.87774086378738
0.44154290840227245,-34.87774086378738
0.4425396192564537,-16.87774086378738
0.44353633011063487,14.12225913621262
0.44453304096481605,20.12225913621262
0.4455297518189973,20.12225913621262
0.44652646267317847,31.12225913621262
0.44752317352735965,24.12225913621262
0.4485198843815409,17.12225913621262
0.44951659523572207,16.12225913621262
0.45051330608990325,16.12225913621262
0.4515100169440845,28.12225913621262
0.4525067277982657,18.12225913621262
0.4535034386524469,9.12225913621262
0.4545001495066281,-6.8777408637873805
0.4554968603608093,-14.87774086378738
0.4564935712149905,-12.87774086378738
0.4574902820691717,-21.87774086378738
0.4584869929233529,-30.87774086378738
0.4594837037775341,-34.87774086378738
0.4604804146317153,-28.87774086378738
0.4614771254858965,-19.87774086378738
0.4624738363400777,-13.87774086378738
0.4634705471942589,3.1222591362126195
0.4644672580484401,14.12225913621262
0.4654639689026213,17.12225913621262
0.4664606797568025,24.12225913621262
0.46745739061098374,20.12225913621262
0.4684541014651649,16.12225913621262
0.4694508123193461,21.12225913621262
0.47044752317352734,35.12225913621262
0.4714442340277085,32.12225913621262
0.4724409448818897,12.12225913621262
0.47343765573607094,-4.8777408637873805
0.4744343665902521,-8.87774086378738
0.4754310774444333,-12.87774086378738
0.47642778829861454,-13.87774086378738
0.4774244991527957,-26.87774086378738
0.4784212100069769,-36.87774086378738
0.47941792086115814,-19.87774086378738
0.4804146317153393,-19.87774086378738
0.48141134256952056,-14.87774086378738
0.48240805342370174,-4.8777408637873805
0.4834047642778829,1.1222591362126195
0.48440147513206416,-2.8777408637873805
0.48539818598624535,11.12225913621262
0.4863948968404265,21.12225913621262
0.48739160769460776,13.12225913621262
0.48838831854878895,20.12225913621262
0.48938502940297013,36.12225913621262
0.49038174025715137,34.12225913621262
0.49137845111133255,20.12225913621262
0.4923751619655138,5.1222591362126195
0.49337187281969497,-2.8777408637873805
0.49436858367387615,-9.87774086378738
0.4953652945280574,-14.87774086378738
0.49636200538223857,-8.87774086378738
0.49735871623641975,-23.87774086378738
0.498355427090601,-19.87774086378738
0.49935213794478217,-16.87774086378738
0.5003488487989634,-30.87774086378738
0.5013455596531445,-18.87774086378738
0.5023422705073258,-12.87774086378738
0.503338981361507,9.12225913621262
0.5043356922156882,17.12225913621262
0.5053324030698694,10.12225913621262
0.5063291139240506,12.12225913621262
0.5073258247782317,11.12225913621262
0.508322535632413,8.12225913621262
0.5093192464865942,14.12225913621262
0.5103159573407754,28.12225913621262
0.5113126681949566,31.12225913621262
0.5123093790491378,25.12225913621262
0.513306089903319,9.12225913621262
0.5143028007575002,-9.87774086378738
0.5152995116116814,-28.87774086378738
0.5162962224658626,-36.87774086378738
0.5172929333200438,-43.87774086378738
0.518289644174225,-41.87774086378738
0.5192863550284063,-16.87774086378738
0.5202830658825874,3.1222591362126195
0.5212797767367686,21.12225913621262
0.5222764875909498,9.12225913621262
0.523273198445131,10.12225913621262
0.5242699092993123,-0.8777408637873805
0.5252666201534935,-1.8777408637873805
0.5262633310076746,7.1222591362126195
0.5272600418618558,16.12225913621262
0.528256752716037,28.12225913621262
0.5292534635702182,19.12225913621262
0.5302501744243995,13.12225913621262
0.5312468852785807,21.12225913621262
0.5322435961327618,16.12225913621262
0.533240306986943,5.1222591362126195
0.5342370178411242,-3.8777408637873805
0.5352337286953054,-18.87774086378738
0.5362304395494867,-22.87774086378738
0.5372271504036679,-34.87774086378738
0.538223861257849,-31.87774086378738
0.5392205721120302,-22.87774086378738
0.5402172829662114,-16.87774086378738
0.5412139938203927,-9.87774086378738
0.5422107046745739,-9.87774086378738
0.5432074155287551,-3.8777408637873805
0.5442041263829362,-0.8777408637873805
0.5452008372371174,7.1222591362126195
0.5461975480912986,17.12225913621262
0.5471942589454799,24.12225913621262
0.5481909697996611,29.12225913621262
0.5491876806538423,29.12225913621262
0.5501843915080235,29.12225913621262
0.5511811023622046,31.12225913621262
0.5521778132163859,18.12225913621262
0.5531745240705671,-1.8777408637873805
0.5541712349247483,-16.87774086378738
0.5551679457789295,-23.87774086378738
0.5561646566331107,-26.87774086378738
0.5571613674872918,-39.87774086378738
0.5581580783414731,-38.87774086378738
0.5591547891956543,-25.87774086378738
0.5601515000498355,-14.87774086378738
0.5611482109040167,-12.87774086378738
0.5621449217581979,-12.87774086378738
0.5631416326123792,5.1222591362126195
0.5641383434665603,12.12225913621262
0.5651350543207415,24.12225913621262
0.5661317651749227,40.12225913621262
0.5671284760291039,26.12225913621262
0.5681251868832851,21.12225913621262
0.5691218977374664,21.12225913621262
0.5701186085916475,28.12225913621262
0.5711153194458287,28.12225913621262
0.5721120303000099,7.1222591362126195
0.5731087411541911,1.1222591362126195
0.5741054520083724,7.1222591362126195
0.5751021628625536,-10.87774086378738
0.5760988737167347,-24.87774086378738
0.5770955845709159,-27.87774086378738
0.5780922954250971,-18.87774086378738
0.5790890062792783,-30.87774086378738
0.5800857171334596,-37.87774086378738
0.5810824279876408,-28.87774086378738
0.5820791388418219,-14.87774086378738
0.5830758496960031,-19.87774086378738
0.5840725605501843,11.12225913621262
0.5850692714043655,8.12225913621262
0.5860659822585468,8.12225913621262
0.587062693112728,18.12225913621262
0.5880594039669091,23.12225913621262
0.5890561148210903,22.12225913621262
0.5900528256752715,25.12225913621262
0.5910495365294528,31.12225913621262
0.592046247383634,15.12225913621262
0.5930429582378152,2.1222591362126195
0.5940396690919963,1.1222591362126195
0.5950363799461775,-1.8777408637873805
0.5960330908003587,-9.87774086378738
0.59702980165454,-21.87774086378738
0.5980265125087212,-27.87774086378738
0.5990232233629024,-34.87774086378738
0.6000199342170836,-41.87774086378738
0.6010166450712647,-30.87774086378738
0.602013355925446,-23.87774086378738
0.6030100667796272,-3.8777408637873805
0.6040067776338084,11.12225913621262
0.6050034884879896,21.12225913621262
0.6060001993421708,33.12225913621262
0.6069969101963519,33.12225913621262
0.6079936210505332,29.12225913621262
0.6089903319047144,27.12225913621262
0.6099870427588956,29.12225913621262
0.6109837536130768,26.12225913621262
0.611980464467258,12.12225913621262
0.6129771753214392,1.1222591362126195
0.6139738861756204,-16.87774086378738
0.6149705970298016,-34.87774086378738
0.6159673078839828,-33.87774086378738
0.616964018738164,-27.87774086378738
0.6179607295923452,-31.87774086378738
0.6189574404465265,-15.87774086378738
0.6199541513007076,14.12225913621262
0.6209508621548888,20.12225913621262
0.62194757300907,-2.8777408637873805
0.6229442838632512,-6.8777408637873805
0.6239409947174324,1.1222591362126195
0.6249377055716137,3.1222591362126195
0.6259344164257948,16.12225913621262
0.626931127279976,20.12225913621262
0.6279278381341572,16.12225913621262
0.6289245489883384,25.12225913621262
0.6299212598425197,28.12225913621262
0.6309179706967009,26.12225913621262
0.631914681550882,9.12225913621262
0.6329113924050632,1.1222591362126195
0.6339081032592444,-1.8777408637873805
0.6349048141134256,-8.87774086378738
0.6359015249676069,-25.87774086378738
0.6368982358217881,-40.87774086378738
0.6378949466759692,-34.87774086378738
0.6388916575301504,-28.87774086378738
0.6398883683843316,-25.87774086378738
0.6408850792385129,-17.87774086378738
0.6418817900926941,-12.87774086378738
0.6428785009468753,1.1222591362126195
0.6438752118010564,8.12225913621262
0.6448719226552376,12.12225913621262
0.6458686335094188,16.12225913621262
0.6468653443636001,13.12225913621262
0.6478620552177813,28.12225913621262
0.6488587660719625,29.12225913621262
0.6498554769261436,31.12225913621262
0.6508521877803248,30.12225913621262
0.6518488986345061,19.12225913621262
0.6528456094886873,7.1222591362126195
0.6538423203428685,-5.8777408637873805
0.6548390311970497,-17.87774086378738
0.6558357420512309,-21.87774086378738
0.656832452905412,-27.87774086378738
0.6578291637595933,-28.87774086378738
0.6588258746137745,-30.87774086378738
0.6598225854679557,-23.87774086378738
0.6608192963221369,-23.87774086378738
0.661816007176318,-19.87774086378738
0.6628127180304992,5.1222591362126195
0.6638094288846805,8.12225913621262
0.6648061397388617,16.12225913621262
0.6658028505930429,24.12225913621262
0.6667995614472241,26.12225913621262
0.6677962723014053,32.12225913621262
0.6687929831555866,21.12225913621262
0.6697896940097677,19.12225913621262
0.6707864048639489,14.12225913621262
0.6717831157181301,17.12225913621262
0.6727798265723113,6.1222591362126195
0.6737765374264925,-2.8777408637873805
0.6747732482806738,-9.87774086378738
0.6757699591348549,-27.87774086378738
0.6767666699890361,-34.87774086378738
0.6777633808432173,-23.87774086378738
0.6787600916973985,-13.87774086378738
0.6797568025515798,-4.8777408637873805
0.680753513405761,-13.87774086378738
0.6817502242599421,-19.87774086378738
0.6827469351141233,-20.87774086378738
0.6837436459683045,6.1222591362126195
0.6847403568224857,12.12225913621262
0.685737067676667,23.12225913621262
0.6867337785308482,26.12225913621262
0.6877304893850293,21.12225913621262
0.6887272002392105,29.12225913621262
0.6897239110933917,29.12225913621262
0.690720621947573,19.12225913621262
0.6917173328017542,5.1222591362126195
0.6927140436559354,-3.8777408637873805
0.6937107545101165,-14.87774086378738
0.6947074653642977,-18.87774086378738
0.6957041762184789,-16.87774086378738
0.6967008870726602,-33.87774086378738
0.6976975979268414,-26.87774086378738
0.6986943087810226,-27.87774086378738
0.6996910196352037,-19.87774086378738
0.7006877304893849,-13.87774086378738
0.7016844413435661,5.1222591362126195
0.7026811521977474,-1.8777408637873805
0.7036778630519286,-7.8777408637873805
0.7046745739061098,7.1222591362126195
0.705671284760291,19.12225913621262
0.7066679956144721,27.12225913621262
0.7076647064686534,35.12225913621262
0.7086614173228346,35.12225913621262
0.7096581281770158,27.12225913621262
0.710654839031197,27.12225913621262
0.7116515498853782,12.12225913621262
0.7126482607395593,-4.8777408637873805
0.7136449715937406,-10.87774086378738
0.7146416824479218,-14.87774086378738
0.715638393302103,-24.87774086378738
0.7166351041562842,-35.87774086378738
0.7176318150104654,-25.87774086378738
0.7186285258646467,-28.87774086378738
0.7196252367188278,-39.87774086378738
0.720621947573009,-19.87774086378738
0.7216186584271902,-1.8777408637873805
0.7226153692813714,-1.8777408637873805
0.7236120801355526,8.12225913621262
0.7246087909897339,12.12225913621262
0.725605501843915,29.12225913621262
0.7266022126980962,32.12225913621262
0.7275989235522774,27.12225913621262
0.7285956344064586,18.12225913621262
0.7295923452606399,20.12225913621262
0.7305890561148211,30.12225913621262
0.7315857669690022,19.12225913621262
0.7325824778231834,-3.8777408637873805
0.7335791886773646,-8.87774086378738
0.7345758995315458,-4.8777408637873805
0.7355726103857271,-21.87774086378738
0.7365693212399083,-33.87774086378738
0.7375660320940894,-27.87774086378738
0.7385627429482706,-22.87774086378738
0.7395594538024518,-10.87774086378738
0.7405561646566331,-15.87774086378738
0.7415528755108143,-14.87774086378738
0.7425495863649955,-6.8777408637873805
0.7435462972191766,5.1222591362126195
0.7445430080733578,16.12225913621262
0.745539718927539,20.12225913621262
0.7465364297817203,21.12225913621262
0.7475331406359015,21.12225913621262
0.7485298514900827,22.12225913621262
0.7495265623442638,23.12225913621262
0.750523273198445,17.12225913621262
0.7515199840526262,8.12225913621262
0.7525166949068075,10.12225913621262
0.7535134057609887,3.1222591362126195
0.7545101166151699,-16.87774086378738
0.755506827469351,-32.87774086378738
0.7565035383235322,-27.87774086378738
0.7575002491777135,-27.87774086378738
0.7584969600318947,-28.87774086378738
0.7594936708860759,-17.87774086378738
0.7604903817402571,-10.87774086378738
0.7614870925944383,5.1222591362126195
0.7624838034486194,19.12225913621262
0.7634805143028007,4.1222591362126195
0.7644772251569819,1.1222591362126195
0.7654739360111631,8.12225913621262
0.7664706468653443,22.12225913621262
0.7674673577195255,25.12225913621262
0.7684640685737067,21.12225913621262
0.7694607794278879,25.12225913621262
0.7704574902820691,13.12225913621262
0.7714542011362503,20.12225913621262
0.7724509119904315,18.12225913621262
0.7734476228446127,-5.8777408637873805
0.774444333698794,-13.87774086378738
0.7754410445529751,-24.87774086378738
0.7764377554071563,-35.87774086378738
0.7774344662613375,-28.87774086378738
0.7784311771155187,-26.87774086378738
0.7794278879697,-27.87774086378738
0.7804245988238812,-14.87774086378738
0.7814213096780623,-1.8777408637873805
0.7824180205322435,-0.8777408637873805
0.7834147313864247,11.12225913621262
0.7844114422406059,15.12225913621262
0.7854081530947872,14.12225913621262
0.7864048639489684,15.12225913621262
0.7874015748031495,17.12225913621262
0.7883982856573307,21.12225913621262
0.7893949965115119,25.12225913621262
0.7903917073656931,12.12225913621262
0.7913884182198744,1.1222591362126195
0.7923851290740556,-1.8777408637873805
0.7933818399282367,6.1222591362126195
0.7943785507824179,6.1222591362126195
0.7953752616365991,-2.8777408637873805
0.7963719724907804,-9.87774086378738
0.7973686833449616,-32.87774086378738
0.7983653941991428,-35.87774086378738
0.799362105053324,-26.87774086378738
0.8003588159075051,-16.87774086378738
0.8013555267616863,-6.8777408637873805
0.8023522376158676,-1.8777408637873805
0.8033489484700488,-5.8777408637873805
0.80434565932423,7.1222591362126195
0.8053423701784111,20.12225913621262
0.8063390810325923,21.12225913621262
0.8073357918867736,19.12225913621262
0.8083325027409548,22.12225913621262
0.809329213595136,25.12225913621262
0.8103259244493172,30.12225913621262
0.8113226353034984,16.12225913621262
0.8123193461576795,4.1222591362126195
0.8133160570118608,-9.87774086378738
0.814312767866042,-14.87774086378738
0.8153094787202232,-19.87774086378738
0.8163061895744044,-21.87774086378738
0.8173029004285856,-14.87774086378738
0.8182996112827668,-17.87774086378738
0.819296322136948,-16.87774086378738
0.8202930329911292,-15.87774086378738
0.8212897438453104,-16.87774086378738
0.8222864546994916,-10.87774086378738
0.8232831655536728,-9.87774086378738
0.824279876407854,6.1222591362126195
0.8252765872620352,24.12225913621262
0.8262732981162164,27.12225913621262
0.8272700089703976,28.12225913621262
0.8282667198245788,28.12225913621262
0.8292634306787601,29.12225913621262
0.8302601415329413,26.12225913621262
0.8312568523871224,18.12225913621262
0.8322535632413036,2.1222591362126195
0.8332502740954848,-8.87774086378738
0.834246984949666,-17.87774086378738
0.8352436958038473,-23.87774086378738
0.8362404066580285,-31.87774086378738
0.8372371175122096,-31.87774086378738
0.8382338283663908,-26.87774086378738
0.839230539220572,-22.87774086378738
0.8402272500747532,-12.87774086378738
0.8412239609289345,-14.87774086378738
0.8422206717831157,-1.8777408637873805
0.8432173826372968,5.1222591362126195
0.844214093491478,15.12225913621262
0.8452108043456592,24.12225913621262
0.8462075151998405,24.12225913621262
0.8472042260540217,39.12225913621262
0.8482009369082029,40.12225913621262
0.849197647762384,33.12225913621262
0.8501943586165652,16.12225913621262
0.8511910694707464,4.1222591362126195
0.8521877803249277,-1.8777408637873805
0.8531844911791089,-3.8777408637873805
0.8541812020332901,-19.87774086378738
0.8551779128874712,-21.87774086378738
0.8561746237416524,-26.87774086378738
0.8571713345958337,-31.87774086378738
0.8581680454500149,-34.87774086378738
0.8591647563041961,-35.87774086378738
0.8601614671583773,-17.87774086378738
0.8611581780125585,-9.87774086378738
0.8621548888667396,0.12225913621261952
0.8631515997209209,7.1222591362126195
0.8641483105751021,14.12225913621262
0.8651450214292833,19.12225913621262
0.8661417322834645,23.12225913621262
0.8671384431376457,36.12225913621262
0.868135153991827,39.12225913621262
0.8691318648460081,27.12225913621262
0.8701285757001893,28.12225913621262
0.8711252865543705,16.12225913621262
0.8721219974085517,2.1222591362126195
0.8731187082627329,-1.8777408637873805
0.8741154191169141,-13.87774086378738
0.8751121299710953,-27.87774086378738
0.8761088408252765,-40.87774086378738
0.8771055516794577,-38.87774086378738
0.8781022625336389,-26.87774086378738
0.8790989733878201,-18.87774086378738
0.8800956842420014,-14.87774086378738
0.8810923950961825,-15.87774086378738
0.8820891059503637,-9.87774086378738
0.8830858168045449,-5.8777408637873805
0.8840825276587261,0.12225913621261952
0.8850792385129074,17.12225913621262
0.8860759493670886,37.12225913621262
0.8870726602212697,39.12225913621262
0.8880693710754509,32.12225913621262
0.8890660819296321,27.12225913621262
0.8900627927838133,25.12225913621262
0.8910595036379946,22.12225913621262
0.8920562144921758,8.12225913621262
0.8930529253463569,-1.8777408637873805
0.8940496362005381,-20.87774086378738
0.8950463470547193,-24.87774086378738
0.8960430579089006,-23.87774086378738
0.8970397687630818,-21.87774086378738
0.898036479617263,-27.87774086378738
0.8990331904714441,-23.87774086378738
0.9000299013256253,-29.87774086378738
0.9010266121798065,-14.87774086378738
0.9020233230339878,0.12225913621261952
0.903020033888169,3.1222591362126195
0.9040167447423502,8.12225913621262
0.9050134555965313,16.12225913621262
0.9060101664507125,23.12225913621262
0.9070068773048938,29.12225913621262
0.908003588159075,32.12225913621262
0.9090002990132562,30.12225913621262
0.9099970098674374,28.12225913621262
0.9109937207216185,19.12225913621262
0.9119904315757997,8.12225913621262
0.912987142429981,-3.8777408637873805
0.9139838532841622,-19.87774086378738
0.9149805641383434,-27.87774086378738
0.9159772749925246,-29.87774086378738
0.9169739858467058,-26.87774086378738
0.9179706967008869,-30.87774086378738
0.9189674075550682,-34.87774086378738
0.9199641184092494,-21.87774086378738
0.9209608292634306,-13.87774086378738
0.9219575401176118,-3.8777408637873805
0.922954250971793,0.12225913621261952
0.9239509618259742,15.12225913621262
0.9249476726801554,30.12225913621262
0.9259443835343366,24.12225913621262
0.9269410943885178,24.12225913621262
0.927937805242699,29.12225913621262
0.9289345160968802,7.1222591362126195
0.9299312269510615,-0.8777408637873805
0.9309279378052426,16.12225913621262
0.9319246486594238,24.12225913621262
0.932921359513605,16.12225913621262
0.9339180703677862,-1.8777408637873805
0.9349147812219675,-16.87774086378738
0.9359114920761487,-27.87774086378738
0.9369082029303298,-33.87774086378738
0.937904913784511,-34.87774086378738
0.9389016246386922,-35.87774086378738
0.9398983354928734,-20.87774086378738
0.9408950463470547,-8.87774086378738
0.9418917572012359,-1.8777408637873805
0.942888468055417,1.1222591362126195
0.9438851789095982,5.1222591362126195
0.9448818897637794,20.12225913621262
0.9458786006179607,18.12225913621262
0.9468753114721419,27.12225913621262
0.9478720223263231,32.12225913621262
0.9488687331805042,39.12225913621262
0.9498654440346854,44.12225913621262
0.9508621548888666,16.12225913621262
0.9518588657430479,-3.8777408637873805
0.9528555765972291,-2.8777408637873805
0.9538522874514103,-26.87774086378738
0.9548489983055914,-19.87774086378738
0.9558457091597726,-25.87774086378738
0.9568424200139538,-14.87774086378738
0.9578391308681351,-21.87774086378738
0.9588358417223163,-29.87774086378738
0.9598325525764975,-19.87774086378738
0.9608292634306786,-29.87774086378738
0.9618259742848598,-2.8777408637873805
0.9628226851390411,11.12225913621262
0.9638193959932223,18.12225913621262
0.9648161068474035,15.12225913621262
0.9658128177015847,26.12225913621262
0.9668095285557659,31.12225913621262
0.967806239409947,25.12225913621262
0.9688029502641283,28.12225913621262
0.9697996611183095,25.12225913621262
0.9707963719724907,13.12225913621262
0.9717930828266719,-2.8777408637873805
0.972789793680853,-9.87774086378738
0.9737865045350343,-23.87774086378738
0.9747832153892155,-31.87774086378738
0.9757799262433967,-37.87774086378738
0.9767766370975779,-15.87774086378738
0.9777733479517591,-13.87774086378738
0.9787700588059403,-25.87774086378738
0.9797667696601216,-14.87774086378738
0.9807634805143027,0.12225913621261952
0.9817601913684839,-6.8777408637873805
0.9827569022226651,6.1222591362126195
0.9837536130768463,14.12225913621262
0.9847503239310276,21.12225913621262
0.9857470347852088,28.12225913621262
0.9867437456393899,27.12225913621262
0.9877404564935711,21.12225913621262
0.9887371673477523,20.12225913621262
0.9897338782019335,18.12225913621262
0.9907305890561148,16.12225913621262
0.991727299910296,8.12225913621262
0.9927240107644771,1.1222591362126195
0.9937207216186583,-24.87774086378738
0.9947174324728395,-30.87774086378738
0.9957141433270208,-39.87774086378738
0.996710854181202,-33.87774086378738
0.9977075650353832,-27.87774086378738
0.9987042758895643,-20.87774086378738
0.9997009867437455,-15.87774086378738
1.0006976975979267,2.1222591362126195
1.001694408452108,5.1222591362126195
1.002691119306289,1.1222591362126195
1.0036878301604704,9.12225913621262
1.0046845410146517,30.12225913621262
1.0056812518688327,40.12225913621262
1.006677962723014,32.12225913621262
1.007674673577195,18.12225913621262
1.0086713844313764,17.12225913621262
1.0096680952855577,23.12225913621262
1.0106648061397387,14.12225913621262
1.01166151699392,-1.8777408637873805
1.0126582278481011,-12.87774086378738
1.0136549387022824,-9.87774086378738
1.0146516495564635,-14.87774086378738
1.0156483604106448,-25.87774086378738
1.016645071264826,-27.87774086378738
1.0176417821190071,-28.87774086378738
1.0186384929731884,-35.87774086378738
1.0196352038273695,-20.87774086378738
1.0206319146815508,-6.8777408637873805
1.021628625535732,8.12225913621262
1.0226253363899132,5.1222591362126195
1.0236220472440944,8.12225913621262
1.0246187580982755,16.12225913621262
1.0256154689524568,20.12225913621262
1.026612179806638,17.12225913621262
1.0276088906608192,9.12225913621262
1.0286056015150005,25.12225913621262
1.0296023123691815,38.12225913621262
1.0305990232233628,20.12225913621262
1.031595734077544,9.12225913621262
1.0325924449317252,-3.8777408637873805
1.0335891557859065,-12.87774086378738
1.0345858666400876,-17.87774086378738
1.0355825774942689,-28.87774086378738
1.03657928834845,-34.87774086378738
1.0375759992026312,-27.87774086378738
1.0385727100568125,-29.87774086378738
1.0395694209109936,-27.87774086378738
1.0405661317651749,-26.87774086378738
1.041562842619356,-23.87774086378738
1.0425595534735372,-6.8777408637873805
1.0435562643277185,28.12225913621262
1.0445529751818996,46.12225913621262
1.045549686036081,36.12225913621262
1.046546396890262,27.12225913621262
1.0475431077444433,26.12225913621262
1.0485398185986246,27.12225913621262
1.0495365294528056,31.12225913621262
1.050533240306987,18.12225913621262
1.051529951161168,9.12225913621262
1.0525266620153493,9.12225913621262
1.0535233728695304,-4.8777408637873805
1.0545200837237116,-31.87774086378738
1.055516794577893,-39.87774086378738
1.056513505432074,-41.87774086378738
1.0575102162862553,-27.87774086378738
1.0585069271404364,-31.87774086378738
1.0595036379946177,-17.87774086378738
1.060500348848799,-4.8777408637873805
1.06149705970298,4.1222591362126195
1.0624937705571613,7.1222591362126195
1.0634904814113424,7.1222591362126195
1.0644871922655237,16.12225913621262
1.065483903119705,11.12225913621262
1.066480613973886,27.12225913621262
1.0674773248280673,26.12225913621262
1.0684740356822484,26.12225913621262
1.0694707465364297,31.12225913621262
1.0704674573906108,20.12225913621262
1.071464168244792,1.1222591362126195
1.0724608790989734,2.1222591362126195
1.0734575899531544,-6.8777408637873805
1.0744543008073357,-27.87774086378738
1.0754510116615168,-46.87774086378738
1.076447722515698,-37.87774086378738
1.0774444333698794,-26.87774086378738
1.0784411442240605,-28.87774086378738
1.0794378550782417,-14.87774086378738
1.0804345659324228,-5.8777408637873805
1.0814312767866041,4.1222591362126195
1.0824279876407854,22.12225913621262
1.0834246984949665,19.12225913621262
1.0844214093491478,19.12225913621262
1.0854181202033288,18.12225913621262
1.0864148310575101,13.12225913621262
1.0874115419116914,24.12225913621262
1.0884082527658725,33.12225913621262
1.0894049636200538,32.12225913621262
1.0904016744742349,28.12225913621262
1.0913983853284162,5.1222591362126195
1.0923950961825972,-14.87774086378738
1.0933918070367785,-19.87774086378738
1.0943885178909598,-26.87774086378738
1.0953852287451409,-31.87774086378738
1.0963819395993222,-26.87774086378738
1.0973786504535032,-23.87774086378738
1.0983753613076845,-19.87774086378738
1.0993720721618658,-11.87774086378738
1.100368783016047,-19.87774086378738
1.1013654938702282,-2.8777408637873805
1.1023622047244093,5.1222591362126195
1.1033589155785906,12.12225913621262
1.1043556264327719,24.12225913621262
1.105352337286953,20.12225913621262
1.1063490481411342,19.12225913621262
1.1073457589953153,24.12225913621262
1.1083424698494966,29.12225913621262
1.1093391807036777,24.12225913621262
1.110335891557859,12.12225913621262
1.1113326024120402,3.1222591362126195
1.1123293132662213,-9.87774086378738
1.1133260241204026,-23.87774086378738
1.1143227349745837,-22.87774086378738
1.115319445828765,-24.87774086378738
1.1163161566829463,-30.87774086378738
1.1173128675371273,-19.87774086378738
1.1183095783913086,-19.87774086378738
1.1193062892454897,-12.87774086378738
1.120303000099671,-12.87774086378738
1.1212997109538523,-2.8777408637873805
1.1222964218080334,-1.8777408637873805
1.1232931326622146,4.1222591362126195
1.1242898435163957,17.12225913621262
1.125286554370577,24.12225913621262
1.1262832652247583,27.12225913621262
1.1272799760789394,30.12225913621262
1.1282766869331207,24.12225913621262
1.1292733977873017,23.12225913621262
1.130270108641483,6.1222591362126195
1.131266819495664,-5.8777408637873805
1.1322635303498454,-4.8777408637873805
1.1332602412040267,-12.87774086378738
1.1342569520582078,-16.87774086378738
1.135253662912389,-23.87774086378738
1.1362503737665701,-22.87774086378738
1.1372470846207514,-14.87774086378738
1.1382437954749327,-8.87774086378738
1.1392405063291138,-11.87774086378738
1.140237217183295,-6.8777408637873805
1.1412339280374761,-10.87774086378738
1.1422306388916574,-4.8777408637873805
1.1432273497458387,-0.8777408637873805
1.1442240606000198,13.12225913621262
1.145220771454201,12.12225913621262
1.1462174823083822,33.12225913621262
1.1472141931625635,38.12225913621262
1.1482109040167447,33.12225913621262
1.1492076148709258,24.12225913621262
1.1502043257251071,20.12225913621262
1.1512010365792882,30.12225913621262
1.1521977474334695,15.12225913621262
1.1531944582876505,-6.8777408637873805
1.1541911691418318,-28.87774086378738
1.1551878799960131,-42.87774086378738
1.1561845908501942,-55.87774086378738
1.1571813017043755,-39.87774086378738
1.1581780125585566,-0.8777408637873805
1.1591747234127379,7.1222591362126195
1.1601714342669192,0.12225913621261952
1.1611681451211002,-9.87774086378738
1.1621648559752815,-8.87774086378738
1.1631615668294626,1.1222591362126195
1.1641582776836439,19.12225913621262
1.1651549885378252,24.12225913621262
1.1661516993920062,21.12225913621262
1.1671484102461875,21.12225913621262
1.1681451211003686,22.12225913621262
1.16914183195455,21.12225913621262
1.170138542808731,0.12225913621261952
1.1711352536629123,-20.87774086378738
1.1721319645170936,3.1222591362126195
1.1731286753712746,4.1222591362126195
1.174125386225456,-2.8777408637873805
1.175122097079637,-26.87774086378738
1.1761188079338183,-34.87774086378738
1.1771155187879996,-27.87774086378738
1.1781122296421807,-19.87774086378738
1.179108940496362,-25.87774086378738
1.180105651350543,-14.87774086378738
1.1811023622047243,-8.87774086378738
1.1820990730589056,-3.8777408637873805
1.1830957839130867,15.12225913621262
1.184092494767268,24.12225913621262
1.185089205621449,27.12225913621262
1.1860859164756303,24.12225913621262
1.1870826273298116,17.12225913621262
1.1880793381839927,22.12225913621262
1.189076049038174,20.12225913621262
1.190072759892355,15.12225913621262
1.1910694707465364,9.12225913621262
1.1920661816007174,1.1222591362126195
1.1930628924548987,3.1222591362126195
1.19405960330908,-7.8777408637873805
1.195056314163261,-16.87774086378738
1.1960530250174424,-29.87774086378738
1.1970497358716234,-46.87774086378738
1.1980464467258047,-46.87774086378738
1.199043157579986,-20.87774086378738
1.200039868434167,-4.8777408637873805
1.2010365792883484,-2.8777408637873805
1.2020332901425295,-1.8777408637873805
1.2030300009967108,10.12225913621262
1.204026711850892,28.12225913621262
1.2050234227050731,29.12225913621262
1.2060201335592544,34.12225913621262
1.2070168444134355,30.12225913621262
1.2080135552676168,28.12225913621262
1.2090102661217978,18.12225913621262
1.2100069769759791,8.12225913621262
1.2110036878301604,2.1222591362126195
1.2120003986843415,-3.8777408637873805
1.2129971095385228,-15.87774086378738
1.2139938203927039,-24.87774086378738
1.2149905312468852,-26.87774086378738
1.2159872421010665,-20.87774086378738
1.2169839529552475,-23.87774086378738
1.2179806638094288,-20.87774086378738
1.21897737466361,-24.87774086378738
1.2199740855177912,-10.87774086378738
1.2209707963719725,8.12225913621262
1.2219675072261535,4.1222591362126195
1.2229642180803348,3.1222591362126195
1.223960928934516,29.12225913621262
1.2249576397886972,32.12225913621262
1.2259543506428785,34.12225913621262
1.2269510614970596,23.12225913621262
1.2279477723512409,10.12225913621262
1.228944483205422,10.12225913621262
1.2299411940596032,8.12225913621262
1.2309379049137843,4.1222591362126195
1.2319346157679656,-2.8777408637873805
1.2329313266221469,-10.87774086378738
1.233928037476328,-17.87774086378738
1.2349247483305092,-24.87774086378738
1.2359214591846903,-21.87774086378738
1.2369181700388716,-17.87774086378738
1.237914880893053,-19.87774086378738
1.238911591747234,-17.87774086378738
1.2399083026014153,-15.87774086378738
1.2409050134555963,-3.8777408637873805
1.2419017243097776,1.1222591362126195
1.242898435163959,9.12225913621262
1.24389514601814,18.12225913621262
1.2448918568723213,20.12225913621262
1.2458885677265024,24.12225913621262
1.2468852785806837,30.12225913621262
1.2478819894348647,25.12225913621262
1.248878700289046,19.12225913621262
1.2498754111432273,11.12225913621262
1.2508721219974084,1.1222591362126195
1.2518688328515897,-7.8777408637873805
1.2528655437057707,-12.87774086378738
1.253862254559952,-20.87774086378738
1.2548589654141333,-20.87774086378738
1.2558556762683144,-25.87774086378738
1.2568523871224957,-21.87774086378738
1.2578490979766768,-22.87774086378738
1.258845808830858,-23.87774086378738
1.2598425196850394,-14.87774086378738
1.2608392305392204,-3.8777408637873805
1.2618359413934017,14.12225913621262
1.2628326522475828,13.12225913621262
1.263829363101764,21.12225913621262
1.2648260739559454,27.12225913621262
1.2658227848101264,24.12225913621262
1.2668194956643077,19.12225913621262
1.2678162065184888,18.12225913621262
1.26881291737267,16.12225913621262
1.2698096282268512,8.12225913621262
1.2708063390810325,-1.8777408637873805
1.2718030499352138,-3.8777408637873805
1.2727997607893948,-3.8777408637873805
1.2737964716435761,-13.87774086378738
1.2747931824977572,-27.87774086378738
1.2757898933519385,-33.87774086378738
1.2767866042061198,-33.87774086378738
1.2777833150603009,-24.87774086378738
1.2787800259144821,-18.87774086378738
1.2797767367686632,-10.87774086378738
1.2807734476228445,0.12225913621261952
1.2817701584770258,6.1222591362126195
1.2827668693312069,3.1222591362126195
1.2837635801853882,22.12225913621262
1.2847602910395692,24.12225913621262
1.2857570018937505,28.12225913621262
1.2867537127479316,24.12225913621262
1.287750423602113,32.12225913621262
1.2887471344562942,31.12225913621262
1.2897438453104753,22.12225913621262
1.2907405561646565,1.1222591362126195
1.2917372670188376,-14.87774086378738
1.292733977873019,-18.87774086378738
1.2937306887272002,-15.87774086378738
1.2947273995813813,-26.87774086378738
1.2957241104355626,-22.87774086378738
1.2967208212897436,-21.87774086378738
1.297717532143925,-22.87774086378738
1.2987142429981062,-17.87774086378738
1.2997109538522873,-10.87774086378738
1.3007076647064686,-6.8777408637873805
1.3017043755606497,1.1222591362126195
1.302701086414831,5.1222591362126195
1.3036977972690122,20.12225913621262
1.3046945081231933,17.12225913621262
1.3056912189773746,18.12225913621262
1.3066879298315557,28.12225913621262
1.307684640685737,35.12225913621262
1.308681351539918,27.12225913621262
1.3096780623940993,6.1222591362126195
1.3106747732482806,-6.8777408637873805
1.3116714841024617,-14.87774086378738
1.312668194956643,-16.87774086378738
1.313664905810824,-10.87774086378738
1.3146616166650054,-20.87774086378738
1.3156583275191867,-32.87774086378738
1.3166550383733677,-30.87774086378738
1.317651749227549,-19.87774086378738
1.31864846008173,-13.87774086378738
1.3196451709359114,-8.87774086378738
1.3206418817900927,-3.8777408637873805
1.3216385926442737,-2.8777408637873805
1.322635303498455,6.1222591362126195
1.323632014352636,22.12225913621262
1.3246287252068174,29.12225913621262
1.3256254360609985,30.12225913621262
1.3266221469151798,26.12225913621262
1.327618857769361,17.12225913621262
1.3286155686235421,6.1222591362126195
1.3296122794777234,1.1222591362126195
1.3306089903319045,3.1222591362126195
1.3316057011860858,-3.8777408637873805
1.332602412040267,-8.87774086378738
1.3335991228944482,-12.87774086378738
1.3345958337486294,-10.87774086378738
1.3355925446028105,-12.87774086378738
1.3365892554569918,-21.87774086378738
1.337585966311173,-17.87774086378738
1.3385826771653542,-18.87774086378738
1.3395793880195355,-23.87774086378738
1.3405760988737165,-16.87774086378738
1.3415728097278978,-9.87774086378738
1.3425695205820791,1.1222591362126195
1.3435662314362602,6.1222591362126195
1.3445629422904415,17.12225913621262
1.3455596531446226,38.12225913621262
1.3465563639988039,24.12225913621262
1.347553074852985,36.12225913621262
1.3485497857071662,51.12225913621262
1.3495464965613475,51.12225913621262
1.3505432074155286,22.12225913621262
1.3515399182697099,-10.87774086378738
1.352536629123891,-31.87774086378738
1.3535333399780722,-34.87774086378738
1.3545300508322535,-27.87774086378738
1.3555267616864346,-26.87774086378738
1.356523472540616,-25.87774086378738
1.357520183394797,-22.87774086378738
1.3585168942489783,-22.87774086378738
1.3595136051031596,-19.87774086378738
1.3605103159573406,-18.87774086378738
1.361507026811522,-4.8777408637873805
1.362503737665703,9.12225913621262
1.3635004485198843,15.12225913621262
1.3644971593740653,48.12225913621262
1.3654938702282466,44.12225913621262
1.366490581082428,34.12225913621262
1.367487291936609,20.12225913621262
1.3684840027907903,38.12225913621262
1.3694807136449714,23.12225913621262
1.3704774244991527,-11.87774086378738
1.371474135353334,-27.87774086378738
1.372470846207515,-22.87774086378738
1.3734675570616963,-10.87774086378738
1.3744642679158774,-24.87774086378738
1.3754609787700587,-38.87774086378738
1.37645768962424,-28.87774086378738
1.377454400478421,-20.87774086378738
1.3784511113326023,-27.87774086378738
1.3794478221867834,-22.87774086378738
1.3804445330409647,-12.87774086378738
1.381441243895146,1.1222591362126195
1.382437954749327,8.12225913621262
1.3834346656035084,29.12225913621262
1.3844313764576894,45.12225913621262
1.3854280873118707,56.12225913621262
1.3864247981660518,36.12225913621262
1.387421509020233,24.12225913621262
1.3884182198744144,24.12225913621262
1.3894149307285955,10.12225913621262
1.3904116415827767,0.12225913621261952
1.3914083524369578,-9.87774086378738
1.3924050632911391,-11.87774086378738
1.3934017741453204,-25.87774086378738
1.3943984849995015,-37.87774086378738
1.3953951958536828,-37.87774086378738
1.3963919067078638,-27.87774086378738
1.3973886175620451,-27.87774086378738
1.3983853284162264,-20.87774086378738
1.3993820392704075,-12.87774086378738
1.4003787501245888,9.12225913621262
1.4013754609787699,6.1222591362126195
1.4023721718329512,12.12225913621262
1.4033688826871322,17.12225913621262
1.4043655935413135,31.12225913621262
1.4053623043954948,38.12225913621262
1.4063590152496759,29.12225913621262
1.4073557261038572,25.12225913621262
1.4083524369580382,21.12225913621262
1.4093491478122195,14.12225913621262
1.4103458586664008,-2.8777408637873805
1.411342569520582,-15.87774086378738
1.4123392803747632,-20.87774086378738
1.4133359912289443,-25.87774086378738
1.4143327020831256,-29.87774086378738
1.4153294129373069,-17.87774086378738
1.416326123791488,-21.87774086378738
1.4173228346456692,-36.87774086378738
1.4183195454998503,-31.87774086378738
1.4193162563540316,-9.87774086378738
1.4203129672082129,1.1222591362126195
1.421309678062394,12.12225913621262
1.4223063889165752,32.12225913621262
1.4233030997707563,28.12225913621262
1.4242998106249376,24.12225913621262
1.4252965214791187,26.12225913621262
1.4262932323333,36.12225913621262
1.4272899431874813,29.12225913621262
1.4282866540416623,33.12225913621262
1.4292833648958436,17.12225913621262
1.4302800757500247,-15.87774086378738
1.431276786604206,-17.87774086378738
1.4322734974583873,-10.87774086378738
1.4332702083125684,-8.87774086378738
1.4342669191667496,-25.87774086378738
1.4352636300209307,-39.87774086378738
1.436260340875112,-42.87774086378738
1.4372570517292933,-46.87774086378738
1.4382537625834744,-13.87774086378738
1.4392504734376557,-1.8777408637873805
1.4402471842918367,-3.8777408637873805
1.441243895146018,8.12225913621262
1.4422406060001993,29.12225913621262
1.4432373168543804,25.12225913621262
1.4442340277085617,18.12225913621262
1.4452307385627428,34.12225913621262
1.446227449416924,28.12225913621262
1.4472241602711051,38.12225913621262
1.4482208711252864,34.12225913621262
1.4492175819794677,0.12225913621261952
1.4502142928336488,-22.87774086378738
1.45121100368783,-29.87774086378738
1.4522077145420111,-30.87774086378738
1.4532044253961924,-14.87774086378738
1.4542011362503737,-6.8777408637873805
1.4551978471045548,-17.87774086378738
1.456194557958736,-34.87774086378738
1.4571912688129172,-15.87774086378738
1.4581879796670985,-5.8777408637873805
1.4591846905212797,-2.8777408637873805
1.4601814013754608,5.1222591362126195
1.4611781122296421,16.12225913621262
1.4621748230838232,18.12225913621262
1.4631715339380045,24.12225913621262
1.4641682447921855,25.12225913621262
1.4651649556463668,36.12225913621262
1.4661616665005481,31.12225913621262
1.4671583773547292,29.12225913621262
1.4681550882089105,17.12225913621262
1.4691517990630916,1.1222591362126195
1.4701485099172729,-10.87774086378738
1.4711452207714542,-11.87774086378738
1.4721419316256352,-23.87774086378738
1.4731386424798165,-32.87774086378738
1.4741353533339976,-26.87774086378738
1.4751320641881789,-17.87774086378738
1.4761287750423602,-27.87774086378738
1.4771254858965412,-26.87774086378738
1.4781221967507225,-11.87774086378738
1.4791189076049036,-11.87774086378738
1.480115618459085,-1.8777408637873805
1.4811123293132662,12.12225913621262
1.4821090401674473,17.12225913621262
1.4831057510216286,24.12225913621262
1.4841024618758096,39.12225913621262
1.485099172729991,32.12225913621262
1.486095883584172,20.12225913621262
1.4870925944383533,26.12225913621262
1.4880893052925346,22.12225913621262
1.4890860161467157,12.12225913621262
1.490082727000897,-2.8777408637873805
1.491079437855078,-8.87774086378738
1.4920761487092593,-13.87774086378738
1.4930728595634406,-30.87774086378738
1.4940695704176217,-39.87774086378738
1.495066281271803,-33.87774086378738
1.496062992125984,-23.87774086378738
1.4970597029801653,-15.87774086378738
1.4980564138343466,-23.87774086378738
1.4990531246885277,-9.87774086378738
1.500049835542709,4.1222591362126195
1.50104654639689,19.12225913621262
1.5020432572510714,19.12225913621262
1.5030399681052524,19.12225913621262
1.5040366789594337,23.12225913621262
1.505033389813615,26.12225913621262
1.506030100667796,23.12225913621262
1.5070268115219774,20.12225913621262
1.5080235223761584,12.12225913621262
1.5090202332303397,4.1222591362126195
1.510016944084521,4.1222591362126195
1.511013654938702,-2.8777408637873805
1.5120103657928834,-10.87774086378738
1.5130070766470645,-21.87774086378738
1.5140037875012458,-23.87774086378738
1.515000498355427,-29.87774086378738
1.5159972092096081,-30.87774086378738
1.5169939200637894,-24.87774086378738
1.5179906309179705,-23.87774086378738
1.5189873417721518,-7.8777408637873805
1.519984052626333,5.1222591362126195
1.5209807634805141,-1.8777408637873805
1.5219774743346954,3.1222591362126195
1.5229741851888765,7.1222591362126195
1.5239708960430578,10.12225913621262
1.5249676068972389,26.12225913621262
1.5259643177514202,31.12225913621262
1.5269610286056015,25.12225913621262
1.5279577394597825,16.12225913621262
1.5289544503139638,9.12225913621262
1.529951161168145,1.1222591362126195
1.5309478720223262,-9.87774086378738
1.5319445828765075,-14.87774086378738
1.5329412937306885,-18.87774086378738
1.5339380045848698,-19.87774086378738
1.534934715439051,-23.87774086378738
1.5359314262932322,-22.87774086378738
1.5369281371474135,-11.87774086378738
1.5379248480015946,-4.8777408637873805
1.5389215588557759,-14.87774086378738
1.539918269709957,-11.87774086378738
1.5409149805641382,11.12225913621262
1.5419116914183193,15.12225913621262
1.5429084022725006,13.12225913621262
1.5439051131266819,10.12225913621262
1.544901823980863,4.1222591362126195
1.5458985348350442,12.12225913621262
1.5468952456892253,32.12225913621262
1.5478919565434066,28.12225913621262
1.548888667397588,22.12225913621262
1.549885378251769,9.12225913621262
1.5508820891059503,8.12225913621262
1.5518787999601313,-4.8777408637873805
1.5528755108143126,-12.87774086378738
1.553872221668494,-13.87774086378738
1.554868932522675,-9.87774086378738
1.5558656433768563,-15.87774086378738
1.5568623542310374,-30.87774086378738
1.5578590650852187,-33.87774086378738
1.5588557759394,-27.87774086378738
1.559852486793581,-12.87774086378738
1.5608491976477623,0.12225913621261952
1.5618459085019434,2.1222591362126195
1.5628426193561247,10.12225913621262
1.5638393302103057,21.12225913621262
1.564836041064487,28.12225913621262
1.5658327519186683,21.12225913621262
1.5668294627728494,21.12225913621262
1.5678261736270307,20.12225913621262
1.5688228844812118,19.12225913621262
1.569819595335393,20.12225913621262
1.5708163061895744,12.12225913621262
1.5718130170437554,0.12225913621261952
1.5728097278979367,-24.87774086378738
1.5738064387521178,-33.87774086378738
1.574803149606299,-28.87774086378738
1.5757998604604804,-28.87774086378738
1.5767965713146614,-23.87774086378738
1.5777932821688427,-19.87774086378738
1.5787899930230238,-10.87774086378738
1.579786703877205,13.12225913621262
1.5807834147313862,8.12225913621262
1.5817801255855675,9.12225913621262
1.5827768364397488,5.1222591362126195
1.5837735472939298,4.1222591362126195
1.5847702581481111,22.12225913621262
1.5857669690022922,30.12225913621262
1.5867636798564735,34.12225913621262
1.5877603907106548,26.12225913621262
1.5887571015648358,17.12225913621262
1.5897538124190171,12.12225913621262
1.5907505232731982,-7.8777408637873805
1.5917472341273795,-25.87774086378738
1.5927439449815608,-18.87774086378738
1.5937406558357419,-22.87774086378738
1.5947373666899232,-26.87774086378738
1.5957340775441042,-23.87774086378738
1.5967307883982855,-22.87774086378738
1.5977274992524668,-15.87774086378738
1.598724210106648,-25.87774086378738
1.5997209209608292,-16.87774086378738
1.6007176318150103,-8.87774086378738
1.6017143426691915,8.12225913621262
1.6027110535233726,13.12225913621262
1.603707764377554,27.12225913621262
1.6047044752317352,51.12225913621262
1.6057011860859163,45.12225913621262
1.6066978969400976,29.12225913621262
1.6076946077942786,33.12225913621262
1.60869131864846,12.12225913621262
1.6096880295026412,0.12225913621261952
1.6106847403568223,1.1222591362126195
1.6116814512110036,-8.87774086378738
1.6126781620651847,-23.87774086378738
1.613674872919366,-34.87774086378738
1.6146715837735472,-32.87774086378738
1.6156682946277283,-43.87774086378738
1.6166650054819096,-31.87774086378738
1.6176617163360907,-14.87774086378738
1.618658427190272,-0.8777408637873805
1.619655138044453,4.1222591362126195
1.6206518488986343,2.1222591362126195
1.6216485597528156,20.12225913621262
1.6226452706069967,27.12225913621262
1.623641981461178,23.12225913621262
1.624638692315359,25.12225913621262
1.6256354031695404,14.12225913621262
1.6266321140237217,11.12225913621262
1.6276288248779027,20.12225913621262
1.628625535732084,7.1222591362126195
1.629622246586265,4.1222591362126195
1.6306189574404464,5.1222591362126195
1.6316156682946277,-9.87774086378738
1.6326123791488087,-17.87774086378738
1.63360909000299,-18.87774086378738
1.634605800857171,-24.87774086378738
1.6356025117113524,-24.87774086378738
1.6365992225655337,-23.87774086378738
1.6375959334197148,-20.87774086378738
1.638592644273896,-16.87774086378738
1.6395893551280771,-10.87774086378738
1.6405860659822584,12.12225913621262
1.6415827768364395,18.12225913621262
1.6425794876906208,26.12225913621262
1.643576198544802,27.12225913621262
1.6445729093989832,20.12225913621262
1.6455696202531644,19.12225913621262
1.6465663311073455,26.12225913621262
1.6475630419615268,22.12225913621262
1.648559752815708,19.12225913621262
1.6495564636698892,4.1222591362126195
1.6505531745240705,-8.87774086378738
1.6515498853782515,-7.8777408637873805
1.6525465962324328,-16.87774086378738
1.6535433070866141,-19.87774086378738
1.6545400179407952,-17.87774086378738
1.6555367287949765,-24.87774086378738
1.6565334396491576,-25.87774086378738
1.6575301505033389,-15.87774086378738
1.6585268613575201,-7.8777408637873805
1.6595235722117012,5.1222591362126195
1.6605202830658825,4.1222591362126195
1.6615169939200636,9.12225913621262
1.6625137047742449,16.12225913621262
1.663510415628426,17.12225913621262
1.6645071264826072,15.12225913621262
1.6655038373367885,35.12225913621262
1.6665005481909696,35.12225913621262
1.667497259045151,36.12225913621262
1.668493969899332,15.12225913621262
1.6694906807535133,-2.8777408637873805
1.6704873916076945,0.12225913621261952
1.6714841024618756,-1.8777408637873805
1.672480813316057,-11.87774086378738
1.673477524170238,-29.87774086378738
1.6744742350244193,-37.87774086378738
1.6754709458786006,-41.87774086378738
1.6764676567327816,-37.87774086378738
1.677464367586963,-28.87774086378738
1.678461078441144,-8.87774086378738
1.6794577892953253,8.12225913621262
1.6804545001495064,16.12225913621262
1.6814512110036877,-1.8777408637873805
1.682447921857869,-24.87774086378738
1.68344463271205,9.12225913621262
1.6844413435662313,27.12225913621262
1.6854380544204124,37.12225913621262
1.6864347652745937,36.12225913621262
1.687431476128775,31.12225913621262
1.688428186982956,0.12225913621261952
1.6894248978371373,-10.87774086378738
1.6904216086913184,4.1222591362126195
1.6914183195454997,1.1222591362126195
1.692415030399681,-15.87774086378738
1.693411741253862,-34.87774086378738
1.6944084521080434,-27.87774086378738
1.6954051629622244,-22.87774086378738
1.6964018738164057,-14.87774086378738
1.697398584670587,-22.87774086378738
1.698395295524768,-23.87774086378738
1.6993920063789494,-9.87774086378738
1.7003887172331305,-7.8777408637873805
1.7013854280873117,17.12225913621262
1.7023821389414928,29.12225913621262
1.703378849795674,17.12225913621262
1.7043755606498554,30.12225913621262
1.7053722715040365,34.12225913621262
1.7063689823582178,32.12225913621262
1.7073656932123988,18.12225913621262
1.7083624040665801,8.12225913621262
1.7093591149207614,3.1222591362126195
1.7103558257749425,-9.87774086378738
1.7113525366291238,-17.87774086378738
1.7123492474833049,-19.87774086378738
1.7133459583374862,-15.87774086378738
1.7143426691916674,-19.87774086378738
1.7153393800458485,-21.87774086378738
1.7163360909000298,-18.87774086378738
1.7173328017542109,-25.87774086378738
1.7183295126083922,-27.87774086378738
1.7193262234625732,-5.8777408637873805
1.7203229343167545,14.12225913621262
1.7213196451709358,23.12225913621262
1.722316356025117,27.12225913621262
1.7233130668792982,22.12225913621262
1.7243097777334793,17.12225913621262
1.7253064885876606,10.12225913621262
1.7263031994418419,-0.8777408637873805
1.727299910296023,20.12225913621262
1.7282966211502042,20.12225913621262
1.7292933320043853,20.12225913621262
1.7302900428585666,9.12225913621262
1.7312867537127479,5.1222591362126195
1.732283464566929,-7.8777408637873805
1.7332801754211102,-25.87774086378738
1.7342768862752913,-23.87774086378738
1.7352735971294726,-27.87774086378738
1.736270307983654,-31.87774086378738
1.737267018837835,-31.87774086378738
1.7382637296920163,-25.87774086378738
1.7392604405461973,-13.87774086378738
1.7402571514003786,1.1222591362126195
1.7412538622545597,25.12225913621262
1.742250573108741,35.12225913621262
1.7432472839629223,28.12225913621262
1.7442439948171033,31.12225913621262
1.7452407056712846,37.12225913621262
1.7462374165254657,28.12225913621262
1.747234127379647,30.12225913621262
1.7482308382338283,20.12225913621262
1.7492275490880094,-2.8777408637873805
1.7502242599421907,-13.87774086378738
1.7512209707963717,-21.87774086378738
1.752217681650553,-28.87774086378738
1.7532143925047343,-38.87774086378738
1.7542111033589154,-34.87774086378738
1.7552078142130967,-27.87774086378738
1.7562045250672778,-28.87774086378738
1.757201235921459,-15.87774086378738
1.7581979467756401,-10.87774086378738
1.7591946576298214,16.12225913621262
1.7601913684840027,18.12225913621262
1.7611880793381838,9.12225913621262
1.762184790192365,16.12225913621262
1.7631815010465461,29.12225913621262
1.7641782119007274,36.12225913621262
1.7651749227549087,27.12225913621262
1.7661716336090898,21.12225913621262
1.767168344463271,20.12225913621262
1.7681650553174522,6.1222591362126195
1.7691617661716335,5.1222591362126195
1.7701584770258147,-0.8777408637873805
1.7711551878799958,-11.87774086378738
1.7721518987341771,-26.87774086378738
1.7731486095883582,-39.87774086378738
1.7741453204425395,-31.87774086378738
1.7751420312967208,-29.87774086378738
1.7761387421509018,-24.87774086378738
1.7771354530050831,-2.8777408637873805
1.7781321638592642,6.1222591362126195
1.7791288747134455,11.12225913621262
1.7801255855676266,4.1222591362126195
1.7811222964218079,11.12225913621262
1.7821190072759892,35.12225913621262
1.7831157181301702,43.12225913621262
1.7841124289843515,37.12225913621262
1.7851091398385326,33.12225913621262
1.7861058506927139,16.12225913621262
1.7871025615468952,20.12225913621262
1.7880992724010762,8.12225913621262
1.7890959832552575,-11.87774086378738
1.7900926941094386,-21.87774086378738
1.79108940496362,-31.87774086378738
1.7920861158178012,-17.87774086378738
1.7930828266719823,-23.87774086378738
1.7940795375261636,-25.87774086378738
1.7950762483803446,-36.87774086378738
1.796072959234526,-46.87774086378738
1.797069670088707,-18.87774086378738
1.7980663809428883,16.12225913621262
1.7990630917970696,29.12225913621262
1.8000598026512507,5.1222591362126195
1.801056513505432,8.12225913621262
1.802053224359613,13.12225913621262
1.8030499352137943,26.12225913621262
1.8040466460679756,27.12225913621262
1.8050433569221567,10.12225913621262
1.806040067776338,13.12225913621262
1.807036778630519,21.12225913621262
1.8080334894847003,23.12225913621262
1.8090302003388816,3.1222591362126195
1.8100269111930627,-19.87774086378738
1.811023622047244,-30.87774086378738
1.812020332901425,-42.87774086378738
1.8130170437556064,-51.87774086378738
1.8140137546097876,-28.87774086378738
1.8150104654639687,-9.87774086378738
1.81600717631815,-0.8777408637873805
1.817003887172331,-2.8777408637873805
1.8180005980265124,5.1222591362126195
1.8189973088806934,11.12225913621262
1.8199940197348747,1.1222591362126195
1.820990730589056,1.1222591362126195
1.821987441443237,12.12225913621262
1.8229841522974184,8.12225913621262
1.8239808631515995,17.12225913621262
1.8249775740057808,29.12225913621262
1.825974284859962,44.12225913621262
1.8269709957141431,35.12225913621262
1.8279677065683244,8.12225913621262
1.8289644174225055,-7.8777408637873805
1.8299611282766868,-2.8777408637873805
1.830957839130868,-8.87774086378738
1.8319545499850491,-24.87774086378738
1.8329512608392304,-36.87774086378738
1.8339479716934115,-28.87774086378738
1.8349446825475928,-25.87774086378738
1.8359413934017739,-4.8777408637873805
1.8369381042559552,5.1222591362126195
1.8379348151101365,3.1222591362126195
1.8389315259643175,-7.8777408637873805
1.8399282368184988,-5.8777408637873805
1.84092494767268,-1.8777408637873805
1.8419216585268612,4.1222591362126195
1.8429183693810425,12.12225913621262
1.8439150802352235,31.12225913621262
1.8449117910894048,29.12225913621262
1.845908501943586,19.12225913621262
1.8469052127977672,12.12225913621262
1.8479019236519485,11.12225913621262
1.8488986345061296,2.1222591362126195
1.8498953453603109,-6.8777408637873805
1.850892056214492,-17.87774086378738
1.8518887670686732,-14.87774086378738
1.8528854779228545,6.1222591362126195
1.8538821887770356,-10.87774086378738
1.8548788996312169,-21.87774086378738
1.855875610485398,-19.87774086378738
1.8568723213395792,-17.87774086378738
1.8578690321937603,-22.87774086378738
1.8588657430479416,-14.87774086378738
1.859862453902123,-4.8777408637873805
1.860859164756304,15.12225913621262
1.8618558756104853,17.12225913621262
1.8628525864646663,20.12225913621262
1.8638492973188476,33.12225913621262
1.864846008173029,32.12225913621262
1.86584271902721,23.12225913621262
1.8668394298813913,28.12225913621262
1.8678361407355724,15.12225913621262
1.8688328515897537,-5.8777408637873805
1.869829562443935,-3.8777408637873805
1.870826273298116,-0.8777408637873805
1.8718229841522973,-14.87774086378738
1.8728196950064784,-31.87774086378738
1.8738164058606597,-39.87774086378738
1.8748131167148407,-34.87774086378738
1.875809827569022,-35.87774086378738
1.8768065384232033,-21.87774086378738
1.8778032492773844,-11.87774086378738
1.8787999601315657,9.12225913621262
1.8797966709857468,12.12225913621262
1.880793381839928,16.12225913621262
1.8817900926941094,33.12225913621262
1.8827868035482904,27.12225913621262
1.8837835144024717,21.12225913621262
1.8847802252566528,22.12225913621262
1.885776936110834,31.12225913621262
1.8867736469650154,19.12225913621262
1.8877703578191964,7.1222591362126195
1.8887670686733777,-4.8777408637873805
1.8897637795275588,-4.8777408637873805
1.89076049038174,-16.87774086378738
1.8917572012359214,-26.87774086378738
1.8927539120901025,-48.87774086378738
1.8937506229442838,-46.87774086378738
1.8947473337984648,2.1222591362126195
1.8957440446526461,12.12225913621262
1.8967407555068272,-14.87774086378738
1.8977374663610085,-15.87774086378738
1.8987341772151898,-6.8777408637873805
1.8997308880693708,-7.8777408637873805
1.9007275989235521,-2.8777408637873805
1.9017243097777332,16.12225913621262
1.9027210206319145,26.12225913621262
1.9037177314860958,21.12225913621262
1.9047144423402769,13.12225913621262
1.9057111531944582,18.12225913621262
1.9067078640486392,15.12225913621262
1.9077045749028205,6.1222591362126195
1.9087012857570018,-5.8777408637873805
1.909697996611183,-5.8777408637873805
1.9106947074653642,-11.87774086378738
1.9116914183195453,-18.87774086378738
1.9126881291737265,-32.87774086378738
1.9136848400279076,-43.87774086378738
1.914681550882089,-36.87774086378738
1.9156782617362702,-29.87774086378738
1.9166749725904513,-28.87774086378738
1.9176716834446326,-12.87774086378738
1.9186683942988136,4.1222591362126195
1.919665105152995,20.12225913621262
1.9206618160071762,41.12225913621262
1.9216585268613573,46.12225913621262
1.9226552377155386,29.12225913621262
1.9236519485697197,16.12225913621262
1.924648659423901,16.12225913621262
1.9256453702780822,13.12225913621262
1.9266420811322633,6.1222591362126195
1.9276387919864446,17.12225913621262
1.9286355028406257,26.12225913621262
1.929632213694807,2.1222591362126195
1.9306289245489883,-16.87774086378738
1.9316256354031693,-29.87774086378738
1.9326223462573506,-35.87774086378738
1.9336190571115317,-41.87774086378738
1.934615767965713,-16.87774086378738
1.935612478819894,-1.8777408637873805
1.9366091896740754,-2.8777408637873805
1.9376059005282567,-6.8777408637873805
1.9386026113824377,-7.8777408637873805
1.939599322236619,1.1222591362126195
1.9405960330908,5.1222591362126195
1.9415927439449814,17.12225913621262
1.9425894547991627,17.12225913621262
1.9435861656533437,12.12225913621262
1.944582876507525,17.12225913621262
1.945579587361706,9.12225913621262
1.9465762982158874,11.12225913621262
1.9475730090700687,12.12225913621262
1.9485697199242498,11.12225913621262
1.949566430778431,25.12225913621262
1.9505631416326121,10.12225913621262
1.9515598524867934,-10.87774086378738
1.9525565633409747,-29.87774086378738
1.9535532741951558,-39.87774086378738
1.954549985049337,-37.87774086378738
1.9555466959035182,-35.87774086378738
1.9565434067576994,-20.87774086378738
1.9575401176118805,-19.87774086378738
1.9585368284660618,-16.87774086378738
1.959533539320243,-2.8777408637873805
1.9605302501744242,29.12225913621262
1.9615269610286055,42.12225913621262
1.9625236718827865,43.12225913621262
1.9635203827369678,28.12225913621262
1.9645170935911491,11.12225913621262
1.9655138044453302,14.12225913621262
1.9665105152995115,12.12225913621262
1.9675072261536926,12.12225913621262
1.9685039370078738,0.12225913621261952
1.9695006478620551,-3.8777408637873805
1.9704973587162362,5.1222591362126195
1.9714940695704175,-8.87774086378738
1.9724907804245986,-23.87774086378738
1.9734874912787799,-20.87774086378738
1.974484202132961,-23.87774086378738
1.9754809129871422,-28.87774086378738
1.9764776238413235,-29.87774086378738
1.9774743346955046,-27.87774086378738
1.978471045549686,-15.87774086378738
1.979467756403867,-11.87774086378738
1.9804644672580483,8.12225913621262
1.9814611781122295,33.12225913621262
1.9824578889664106,36.12225913621262
1.983454599820592,27.12225913621262
1.984451310674773,30.12225913621262
1.9854480215289543,23.12225913621262
1.9864447323831356,21.12225913621262
1.9874414432373166,24.12225913621262
1.988438154091498,15.12225913621262
1.989434864945679,-4.8777408637873805
1.9904315757998603,-11.87774086378738
1.9914282866540416,-22.87774086378738
1.9924249975082227,-30.87774086378738
1.993421708362404,-35.87774086378738
1.994418419216585,-28.87774086378738
1.9954151300707663,-25.87774086378738
1.9964118409249474,-4.8777408637873805
1.9974085517791287,0.12225913621261952
1.99840526263331,3.1222591362126195
1.999401973487491,-3.8777408637873805
2.0003986843416723,-4.8777408637873805
2.0013953951958534,0.12225913621261952
2.0023921060500345,11.12225913621262
2.003388816904216,48.12225913621262
2.004385527758397,39.12225913621262
2.005382238612578,18.12225913621262
2.0063789494667597,8.12225913621262
2.0073756603209407,14.12225913621262
2.008372371175122,29.12225913621262
2.0093690820293033,20.12225913621262
2.0103657928834844,-12.87774086378738
2.0113625037376655,-24.87774086378738
2.0123592145918465,-18.87774086378738
2.013355925446028,-17.87774086378738
2.014352636300209,-19.87774086378738
2.01534934715439,-15.87774086378738
2.0163460580085717,-14.87774086378738
2.0173427688627528,-18.87774086378738
2.018339479716934,-6.8777408637873805
2.0193361905711154,-2.8777408637873805
2.0203329014252964,-2.8777408637873805
2.0213296122794775,4.1222591362126195
2.0223263231336586,24.12225913621262
2.02332303398784,42.12225913621262
2.024319744842021,34.12225913621262
2.0253164556962022,24.12225913621262
2.0263131665503837,15.12225913621262
2.027309877404565,0.12225913621261952
2.028306588258746,-4.8777408637873805
2.029303299112927,-3.8777408637873805
2.0303000099671085,-8.87774086378738
2.0312967208212895,-14.87774086378738
2.0322934316754706,-19.87774086378738
2.033290142529652,-28.87774086378738
2.034286853383833,-38.87774086378738
2.0352835642380143,-30.87774086378738
2.036280275092196,-6.8777408637873805
2.037276985946377,-15.87774086378738
2.038273696800558,-5.8777408637873805
2.039270407654739,23.12225913621262
2.0402671185089205,29.12225913621262
2.0412638293631016,19.12225913621262
2.0422605402172826,14.12225913621262
2.043257251071464,33.12225913621262
2.0442539619256452,19.12225913621262
2.0452506727798263,12.12225913621262
2.0462473836340074,20.12225913621262
2.047244094488189,12.12225913621262
2.04824080534237,2.1222591362126195
2.049237516196551,-2.8777408637873805
2.0502342270507325,-12.87774086378738
2.0512309379049136,-12.87774086378738
2.0522276487590947,-25.87774086378738
2.053224359613276,-27.87774086378738
2.0542210704674573,-24.87774086378738
2.0552177813216383,-34.87774086378738
2.0562144921758194,-38.87774086378738
2.057211203030001,-36.87774086378738
2.058207913884182,-26.87774086378738
2.059204624738363,11.12225913621262
2.0602013355925446,42.12225913621262
2.0611980464467257,50.12225913621262
2.0621947573009067,45.12225913621262
2.063191468155088,35.12225913621262
2.0641881790092693,29.12225913621262
2.0651848898634504,18.12225913621262
2.0661816007176315,10.12225913621262
2.067178311571813,11.12225913621262
2.068175022425994,1.1222591362126195
2.069171733280175,-1.8777408637873805
2.0701684441343566,-18.87774086378738
2.0711651549885377,-23.87774086378738
2.0721618658427188,-22.87774086378738
2.0731585766969,-24.87774086378738
2.0741552875510814,-39.87774086378738
2.0751519984052624,-36.87774086378738
2.0761487092594435,-26.87774086378738
2.077145420113625,-11.87774086378738
2.078142130967806,-6.8777408637873805
2.079138841821987,5.1222591362126195
2.0801355526761687,16.12225913621262
2.0811322635303497,21.12225913621262
2.082128974384531,24.12225913621262
2.083125685238712,30.12225913621262
2.0841223960928934,30.12225913621262
2.0851191069470745,30.12225913621262
2.0861158178012555,30.12225913621262
2.087112528655437,22.12225913621262
2.088109239509618,5.1222591362126195
2.089105950363799,6.1222591362126195
2.0901026612179803,-14.87774086378738
2.091099372072162,-21.87774086378738
2.092096082926343,-34.87774086378738
2.093092793780524,-50.87774086378738
2.0940895046347054,-34.87774086378738
2.0950862154888865,-17.87774086378738
2.0960829263430676,-10.87774086378738
2.097079637197249,-7.8777408637873805
2.09807634805143,1.1222591362126195
2.0990730589056112,9.12225913621262
2.1000697697597923,20.12225913621262
2.101066480613974,23.12225913621262
2.102063191468155,17.12225913621262
2.103059902322336,13.12225913621262
2.1040566131765175,12.12225913621262
2.1050533240306986,14.12225913621262
2.1060500348848796,13.12225913621262
2.1070467457390607,11.12225913621262
2.108043456593242,4.1222591362126195
2.1090401674474233,9.12225913621262
2.1100368783016044,5.1222591362126195
2.111033589155786,2.1222591362126195
2.112030300009967,-13.87774086378738
2.113027010864148,-23.87774086378738
2.1140237217183295,-35.87774086378738
2.1150204325725106,-33.87774086378738
2.1160171434266917,-22.87774086378738
2.1170138542808727,-12.87774086378738
2.1180105651350543,-2.8777408637873805
2.1190072759892353,-6.8777408637873805
2.1200039868434164,7.1222591362126195
2.121000697697598,33.12225913621262
2.121997408551779,40.12225913621262
2.12299411940596,32.12225913621262
2.123990830260141,27.12225913621262
2.1249875411143226,24.12225913621262
2.1259842519685037,20.12225913621262
2.126980962822685,17.12225913621262
2.1279776736768663,8.12225913621262
2.1289743845310474,-2.8777408637873805
2.1299710953852284,-17.87774086378738
2.13096780623941,-38.87774086378738
2.131964517093591,-41.87774086378738
2.132961227947772,-29.87774086378738
2.133957938801953,-16.87774086378738
2.1349546496561347,-20.87774086378738
2.1359513605103158,-23.87774086378738
2.136948071364497,-18.87774086378738
2.1379447822186783,-2.8777408637873805
2.1389414930728594,7.1222591362126195
2.1399382039270405,10.12225913621262
2.1409349147812216,23.12225913621262
2.141931625635403,23.12225913621262
2.142928336489584,19.12225913621262
2.143925047343765,15.12225913621262
2.1449217581979467,24.12225913621262
2.145918469052128,20.12225913621262
2.146915179906309,33.12225913621262
2.1479118907604904,28.12225913621262
2.1489086016146715,-5.8777408637873805
2.1499053124688525,-16.87774086378738
2.1509020233230336,-17.87774086378738
2.151898734177215,-23.87774086378738
2.152895445031396,-35.87774086378738
2.1538921558855773,-26.87774086378738
2.1548888667397588,-26.87774086378738
2.15588557759394,-11.87774086378738
2.156882288448121,-6.8777408637873805
2.1578789993023024,-9.87774086378738
2.1588757101564835,0.12225913621261952
2.1598724210106646,17.12225913621262
2.1608691318648456,16.12225913621262
2.161865842719027,7.1222591362126195
2.1628625535732082,31.12225913621262
2.1638592644273893,36.12225913621262
2.164855975281571,43.12225913621262
2.165852686135752,25.12225913621262
2.166849396989933,1.1222591362126195
2.167846107844114,-13.87774086378738
2.1688428186982955,-17.87774086378738
2.1698395295524766,-26.87774086378738
2.1708362404066577,-8.87774086378738
2.171832951260839,-3.8777408637873805
2.1728296621150203,-13.87774086378738
2.1738263729692013,-26.87774086378738
2.174823083823383,-39.87774086378738
2.175819794677564,-36.87774086378738
2.176816505531745,-23.87774086378738
2.177813216385926,1.1222591362126195
2.1788099272401076,14.12225913621262
2.1798066380942887,29.12225913621262
2.1808033489484697,45.12225913621262
2.1818000598026512,39.12225913621262
2.1827967706568323,14.12225913621262
2.1837934815110134,11.12225913621262
2.1847901923651945,16.12225913621262
2.185786903219376,20.12225913621262
2.186783614073557,13.12225913621262
2.187780324927738,9.12225913621262
2.1887770357819196,-1.8777408637873805
2.1897737466361007,-18.87774086378738
2.1907704574902818,-29.87774086378738
2.1917671683444633,-40.87774086378738
2.1927638791986444,-26.87774086378738
2.1937605900528254,-14.87774086378738
2.1947573009070065,-16.87774086378738
2.195754011761188,-13.87774086378738
2.196750722615369,-6.8777408637873805
2.19774743346955,-4.8777408637873805
2.1987441443237317,-4.8777408637873805
2.1997408551779127,10.12225913621262
2.200737566032094,35.12225913621262
2.201734276886275,26.12225913621262
2.2027309877404564,33.12225913621262
2.2037276985946375,27.12225913621262
2.2047244094488185,7.1222591362126195
2.205721120303,6.1222591362126195
2.206717831157181,4.1222591362126195
2.207714542011362,-1.8777408637873805
2.2087112528655437,11.12225913621262
2.2097079637197248,3.1222591362126195
2.210704674573906,-6.8777408637873805
2.211701385428087,-21.87774086378738
2.2126980962822684,-39.87774086378738
2.2136948071364495,-35.87774086378738
2.2146915179906306,-26.87774086378738
2.215688228844812,-30.87774086378738
2.216684939698993,-24.87774086378738
2.2176816505531742,5.1222591362126195
2.2186783614073553,24.12225913621262
2.219675072261537,26.12225913621262
2.220671783115718,14.12225913621262
2.221668493969899,20.12225913621262
2.2226652048240805,33.12225913621262
2.2236619156782615,28.12225913621262
2.2246586265324426,33.12225913621262
2.225655337386624,27.12225913621262
2.226652048240805,16.12225913621262
2.2276487590949863,-2.8777408637873805
2.2286454699491673,-4.8777408637873805
2.229642180803349,-13.87774086378738
2.23063889165753,-23.87774086378738
2.231635602511711,-26.87774086378738
2.2326323133658925,-25.87774086378738
2.2336290242200736,-23.87774086378738
2.2346257350742547,-33.87774086378738
2.235622445928436,-28.87774086378738
2.2366191567826172,-10.87774086378738
2.2376158676367983,9.12225913621262
2.2386125784909794,5.1222591362126195
2.239609289345161,17.12225913621262
2.240606000199342,18.12225913621262
2.241602711053523,14.12225913621262
2.2425994219077046,16.12225913621262
2.2435961327618856,23.12225913621262
2.2445928436160667,41.12225913621262
2.2455895544702478,12.12225913621262
2.2465862653244293,-6.8777408637873805
2.2475829761786104,11.12225913621262
2.2485796870327914,22.12225913621262
2.249576397886973,-1.8777408637873805
2.250573108741154,7.1222591362126195
2.251569819595335,2.1222591362126195
2.2525665304495166,-18.87774086378738
2.2535632413036977,-54.87774086378738
2.2545599521578787,-50.87774086378738
2.25555666301206,-14.87774086378738
2.2565533738662413,15.12225913621262
2.2575500847204224,17.12225913621262
2.2585467955746035,3.1222591362126195
2.259543506428785,-5.8777408637873805
2.260540217282966,20.12225913621262
2.261536928137147,33.12225913621262
2.262533638991328,25.12225913621262
2.2635303498455097,14.12225913621262
2.264527060699691,14.12225913621262
2.265523771553872,17.12225913621262
2.2665204824080534,12.12225913621262
2.2675171932622344,-2.8777408637873805
2.2685139041164155,-10.87774086378738
2.269510614970597,-20.87774086378738
2.270507325824778,-28.87774086378738
2.271504036678959,-34.87774086378738
2.2725007475331402,10.12225913621262
2.2734974583873218,1.1222591362126195
2.274494169241503,-26.87774086378738
2.275490880095684,-32.87774086378738
2.2764875909498654,-29.87774086378738
2.2774843018040465,-19.87774086378738
2.2784810126582276,-1.8777408637873805
2.2794777235124086,12.12225913621262
2.28047443436659,20.12225913621262
2.281471145220771,15.12225913621262
2.2824678560749523,20.12225913621262
2.283464566929134,5.1222591362126195
2.284461277783315,22.12225913621262
2.285457988637496,30.12225913621262
2.2864546994916775,36.12225913621262
2.2874514103458585,42.12225913621262
2.2884481212000396,20.12225913621262
2.2894448320542207,-6.8777408637873805
2.290441542908402,-28.87774086378738
2.2914382537625833,-45.87774086378738
2.2924349646167643,-46.87774086378738
2.293431675470946,-49.87774086378738
2.294428386325127,-41.87774086378738
2.295425097179308,-23.87774086378738
2.2964218080334895,-4.8777408637873805
2.2974185188876706,4.1222591362126195
2.2984152297418516,11.12225913621262
2.2994119405960327,10.12225913621262
2.3004086514502142,16.12225913621262
2.3014053623043953,9.12225913621262
2.3024020731585764,19.12225913621262
2.303398784012758,36.12225913621262
2.304395494866939,31.12225913621262
2.30539220572112,22.12225913621262
2.306388916575301,20.12225913621262
2.3073856274294826,15.12225913621262
2.3083823382836637,7.1222591362126195
2.3093790491378448,-4.8777408637873805
2.3103757599920263,-18.87774086378738
2.3113724708462073,-28.87774086378738
2.3123691817003884,-25.87774086378738
2.31336589255457,-30.87774086378738
2.314362603408751,-36.87774086378738
2.315359314262932,-29.87774086378738
2.316356025117113,-12.87774086378738
2.3173527359712947,-4.8777408637873805
2.3183494468254757,-10.87774086378738
2.319346157679657,7.1222591362126195
2.3203428685338383,22.12225913621262
2.3213395793880194,20.12225913621262
2.3223362902422005,18.12225913621262
2.3233330010963815,26.12225913621262
2.324329711950563,40.12225913621262
2.325326422804744,32.12225913621262
2.326323133658925,7.1222591362126195
2.3273198445131067,-19.87774086378738
2.3283165553672878,-22.87774086378738
2.329313266221469,6.1222591362126195
2.3303099770756504,8.12225913621262
2.3313066879298314,-3.8777408637873805
2.3323033987840125,-15.87774086378738
2.3333001096381936,-22.87774086378738
2.334296820492375,-22.87774086378738
2.335293531346556,-17.87774086378738
2.336290242200737,-19.87774086378738
2.3372869530549187,-7.8777408637873805
2.3382836639091,0.12225913621261952
2.339280374763281,9.12225913621262
2.340277085617462,15.12225913621262
2.3412737964716435,22.12225913621262
2.3422705073258245,24.12225913621262
2.3432672181800056,18.12225913621262
2.344263929034187,27.12225913621262
2.345260639888368,25.12225913621262
2.3462573507425493,1.1222591362126195
2.347254061596731,0.12225913621261952
2.348250772450912,-4.8777408637873805
2.349247483305093,-13.87774086378738
2.350244194159274,-19.87774086378738
2.3512409050134555,-24.87774086378738
2.3522376158676366,-39.87774086378738
2.3532343267218176,-39.87774086378738
2.354231037575999,-24.87774086378738
2.3552277484301802,-7.8777408637873805
2.3562244592843613,-5.8777408637873805
2.3572211701385424,-2.8777408637873805
2.358217880992724,9.12225913621262
2.359214591846905,15.12225913621262
2.360211302701086,21.12225913621262
2.3612080135552675,27.12225913621262
2.3622047244094486,39.12225913621262
2.3632014352636297,36.12225913621262
2.364198146117811,28.12225913621262
2.3651948569719923,14.12225913621262
2.3661915678261733,-3.8777408637873805
2.3671882786803544,-3.8777408637873805
2.368184989534536,9.12225913621262
2.369181700388717,4.1222591362126195
2.370178411242898,-25.87774086378738
2.3711751220970796,-31.87774086378738
2.3721718329512607,-34.87774086378738
2.3731685438054417,-28.87774086378738
2.3741652546596232,-21.87774086378738
2.3751619655138043,-23.87774086378738
2.3761586763679854,-9.87774086378738
2.3771553872221665,9.12225913621262
2.378152098076348,16.12225913621262
2.379148808930529,12.12225913621262
2.38014551978471,15.12225913621262
2.3811422306388916,12.12225913621262
2.3821389414930727,18.12225913621262
2.3831356523472538,21.12225913621262
2.384132363201435,24.12225913621262
2.3851290740556164,20.12225913621262
2.3861257849097974,13.12225913621262
2.3871224957639785,12.12225913621262
2.38811920661816,-10.87774086378738
2.389115917472341,-16.87774086378738
2.390112628326522,-10.87774086378738
2.3911093391807037,-15.87774086378738
2.3921060500348847,-32.87774086378738
2.393102760889066,-10.87774086378738
2.394099471743247,-5.8777408637873805
2.3950961825974284,-16.87774086378738
2.3960928934516095,-14.87774086378738
2.3970896043057905,3.1222591362126195
2.398086315159972,2.1222591362126195
2.399083026014153,8.12225913621262
2.400079736868334,26.12225913621262
2.4010764477225153,12.12225913621262
2.402073158576697,6.1222591362126195
2.403069869430878,10.12225913621262
2.404066580285059,25.12225913621262
2.4050632911392404,30.12225913621262
2.4060600019934215,27.12225913621262
2.4070567128476026,15.12225913621262
2.408053423701784,-3.8777408637873805
2.409050134555965,-25.87774086378738
2.4100468454101462,-25.87774086378738
2.4110435562643273,-37.87774086378738
2.412040267118509,-43.87774086378738
2.41303697797269,-39.87774086378738
2.414033688826871,-38.87774086378738
2.4150303996810525,-32.87774086378738
2.4160271105352336,-21.87774086378738
2.4170238213894146,-10.87774086378738
2.4180205322435957,8.12225913621262
2.419017243097777,12.12225913621262
2.4200139539519583,19.12225913621262
2.4210106648061394,25.12225913621262
2.422007375660321,36.12225913621262
2.423004086514502,42.12225913621262
2.424000797368683,35.12225913621262
2.4249975082228645,20.12225913621262
2.4259942190770456,-2.8777408637873805
2.4269909299312267,3.1222591362126195
2.4279876407854077,-17.87774086378738
2.4289843516395893,-27.87774086378738
2.4299810624937703,-25.87774086378738
2.4309777733479514,-26.87774086378738
2.431974484202133,-22.87774086378738
2.432971195056314,-19.87774086378738
2.433967905910495,-15.87774086378738
2.434964616764676,-17.87774086378738
2.4359613276188576,2.1222591362126195
2.4369580384730387,10.12225913621262
2.43795474932722,-1.8777408637873805
2.4389514601814013,3.1222591362126195
2.4399481710355824,17.12225913621262
2.4409448818897634,32.12225913621262
2.441941592743945,35.12225913621262
2.442938303598126,29.12225913621262
2.443935014452307,26.12225913621262
2.444931725306488,20.12225913621262
2.4459284361606697,13.12225913621262
2.4469251470148508,4.1222591362126195
2.447921857869032,5.1222591362126195
2.4489185687232133,-15.87774086378738
2.4499152795773944,-23.87774086378738
2.4509119904315755,-23.87774086378738
2.451908701285757,-30.87774086378738
2.452905412139938,-33.87774086378738
2.453902122994119,-35.87774086378738
2.4548988338483,-28.87774086378738
2.4558955447024817,-5.8777408637873805
2.456892255556663,10.12225913621262
2.457888966410844,10.12225913621262
2.4588856772650254,24.12225913621262
2.4598823881192065,27.12225913621262
2.4608790989733875,19.12225913621262
2.4618758098275686,21.12225913621262
2.46287252068175,29.12225913621262
2.463869231535931,29.12225913621262
2.4648659423901123,30.12225913621262
2.4658626532442938,19.12225913621262
2.466859364098475,-2.8777408637873805
2.467856074952656,-11.87774086378738
2.4688527858068374,-19.87774086378738
2.4698494966610185,-22.87774086378738
2.4708462075151996,-32.87774086378738
2.4718429183693806,-34.87774086378738
2.472839629223562,-26.87774086378738
2.4738363400777432,-21.87774086378738
2.4748330509319243,-19.87774086378738
2.475829761786106,-8.87774086378738
2.476826472640287,8.12225913621262
2.477823183494468,20.12225913621262
2.478819894348649,17.12225913621262
2.4798166052028305,14.12225913621262
2.4808133160570116,23.12225913621262
2.4818100269111927,29.12225913621262
2.482806737765374,38.12225913621262
2.4838034486195553,42.12225913621262
2.4848001594737363,31.12225913621262
2.485796870327918,5.1222591362126195
2.486793581182099,-0.8777408637873805
2.48779029203628,0.12225913621261952
2.488787002890461,-17.87774086378738
2.4897837137446426,-28.87774086378738
2.4907804245988237,-36.87774086378738
2.4917771354530047,-44.87774086378738
2.4927738463071862,-39.87774086378738
2.4937705571613673,-14.87774086378738
2.4947672680155484,-7.8777408637873805
2.4957639788697294,-12.87774086378738
2.496760689723911,-12.87774086378738
2.497757400578092,-3.8777408637873805
2.498754111432273,8.12225913621262
2.4997508222864546,24.12225913621262
2.5007475331406357,28.12225913621262
2.5017442439948168,29.12225913621262
2.5027409548489983,35.12225913621262
2.5037376657031793,30.12225913621262
2.5047343765573604,15.12225913621262
2.5057310874115415,7.1222591362126195
2.506727798265723,5.1222591362126195
2.507724509119904,9.12225913621262
2.508721219974085,0.12225913621261952
2.5097179308282667,-19.87774086378738
2.5107146416824477,-39.87774086378738
2.511711352536629,-40.87774086378738
2.51270806339081,-27.87774086378738
2.5137047742449914,-19.87774086378738
2.5147014850991725,-15.87774086378738
2.5156981959533535,-9.87774086378738
2.516694906807535,-4.8777408637873805
2.517691617661716,-4.8777408637873805
2.518688328515897,5.1222591362126195
2.5196850393700787,8.12225913621262
2.5206817502242598,20.12225913621262
2.521678461078441,43.12225913621262
2.522675171932622,53.12225913621262
2.5236718827868034,46.12225913621262
2.5246685936409845,31.12225913621262
2.5256653044951656,17.12225913621262
2.526662015349347,0.12225913621261952
2.527658726203528,-17.87774086378738
2.5286554370577092,-31.87774086378738
2.5296521479118907,-28.87774086378738
2.530648858766072,-28.87774086378738
2.531645569620253,-39.87774086378738
2.532642280474434,-32.87774086378738
2.5336389913286155,-14.87774086378738
2.5346357021827965,-24.87774086378738
2.5356324130369776,-0.8777408637873805
2.536629123891159,12.12225913621262
2.53762583474534,11.12225913621262
2.5386225455995213,20.12225913621262
2.5396192564537023,16.12225913621262
2.540615967307884,12.12225913621262
2.541612678162065,19.12225913621262
2.542609389016246,29.12225913621262
2.5436060998704275,30.12225913621262
2.5446028107246086,28.12225913621262
2.5455995215787897,20.12225913621262
2.546596232432971,5.1222591362126195
2.5475929432871522,-2.8777408637873805
2.5485896541413333,-24.87774086378738
2.5495863649955144,-35.87774086378738
2.550583075849696,-35.87774086378738
2.551579786703877,-28.87774086378738
2.552576497558058,-22.87774086378738
2.5535732084122396,-30.87774086378738
2.5545699192664206,-39.87774086378738
2.5555666301206017,-10.87774086378738
2.5565633409747828,33.12225913621262
2.5575600518289643,27.12225913621262
2.5585567626831454,19.12225913621262
2.5595534735373264,17.12225913621262
2.560550184391508,24.12225913621262
2.561546895245689,30.12225913621262
2.56254360609987,21.12225913621262
2.5635403169540516,19.12225913621262
2.5645370278082327,14.12225913621262
2.5655337386624137,7.1222591362126195
2.566530449516595,-6.8777408637873805
2.5675271603707763,-15.87774086378738
2.5685238712249574,5.1222591362126195
2.5695205820791385,-11.87774086378738
2.57051729293332,-19.87774086378738
2.571514003787501,-28.87774086378738
2.572510714641682,-38.87774086378738
2.573507425495863,-35.87774086378738
2.5745041363500447,-23.87774086378738
2.575500847204226,-11.87774086378738
2.576497558058407,-4.8777408637873805
2.5774942689125884,4.1222591362126195
2.5784909797667694,12.12225913621262
2.5794876906209505,26.12225913621262
2.580484401475132,32.12225913621262
2.581481112329313,19.12225913621262
2.582477823183494,27.12225913621262
2.5834745340376752,40.12225913621262
2.5844712448918568,31.12225913621262
2.585467955746038,16.12225913621262
2.586464666600219,12.12225913621262
2.5874613774544004,1.1222591362126195
2.5884580883085815,-3.8777408637873805
2.5894547991627626,-20.87774086378738
2.590451510016944,-35.87774086378738
2.591448220871125,-40.87774086378738
2.592444931725306,-33.87774086378738
2.5934416425794873,-27.87774086378738
2.594438353433669,-7.8777408637873805
2.59543506428785,-2.8777408637873805
2.596431775142031,-7.8777408637873805
2.5974284859962125,-22.87774086378738
2.5984251968503935,-19.87774086378738
2.5994219077045746,11.12225913621262
2.6004186185587557,36.12225913621262
2.601415329412937,41.12225913621262
2.6024120402671183,42.12225913621262
2.6034087511212993,51.12225913621262
2.604405461975481,36.12225913621262
2.605402172829662,14.12225913621262
2.606398883683843,-4.8777408637873805
2.6073955945380245,-6.8777408637873805
2.6083923053922056,-19.87774086378738
2.6093890162463866,-32.87774086378738
2.6103857271005677,-47.87774086378738
2.6113824379547492,-43.87774086378738
2.6123791488089303,-34.87774086378738
2.6133758596631114,-13.87774086378738
2.614372570517293,-7.8777408637873805
2.615369281371474,-6.8777408637873805
2.616365992225655,0.12225913621261952
2.617362703079836,0.12225913621261952
2.6183594139340176,7.1222591362126195
2.6193561247881987,12.12225913621262
2.6203528356423798,30.12225913621262
2.6213495464965613,38.12225913621262
2.6223462573507423,33.12225913621262
2.6233429682049234,23.12225913621262
2.624339679059105,24.12225913621262
2.625336389913286,38.12225913621262
2.626333100767467,27.12225913621262
2.627329811621648,-2.8777408637873805
2.6283265224758297,-19.87774086378738
2.6293232333300107,-33.87774086378738
2.630319944184192,-35.87774086378738
2.6313166550383733,-34.87774086378738
2.6323133658925544,-27.87774086378738
2.6333100767467355,-34.87774086378738
2.6343067876009165,-19.87774086378738
2.635303498455098,3.1222591362126195
2.636300209309279,9.12225913621262
2.63729692016346,3.1222591362126195
2.6382936310176417,13.12225913621262
2.6392903418718228,23.12225913621262
2.640287052726004,16.12225913621262
2.6412837635801854,22.12225913621262
2.6422804744343664,28.12225913621262
2.6432771852885475,27.12225913621262
2.6442738961427286,12.12225913621262
2.64527060699691,-3.8777408637873805
2.646267317851091,-9.87774086378738
2.647264028705272,-8.87774086378738
2.6482607395594537,-3.8777408637873805
2.649257450413635,10.12225913621262
2.650254161267816,-6.8777408637873805
2.651250872121997,-29.87774086378738
2.6522475829761785,-40.87774086378738
2.6532442938303595,-47.87774086378738
2.6542410046845406,-39.87774086378738
2.655237715538722,0.12225913621261952
2.656234426392903,17.12225913621262
2.6572311372470843,-0.8777408637873805
2.6582278481012658,37.12225913621262
2.659224558955447,43.12225913621262
2.660221269809628,23.12225913621262
2.661217980663809,2.1222591362126195
2.6622146915179905,6.1222591362126195
2.6632114023721716,28.12225913621262
2.6642081132263526,36.12225913621262
2.665204824080534,28.12225913621262
2.6662015349347152,19.12225913621262
2.6671982457888963,12.12225913621262
2.668194956643078,-10.87774086378738
2.669191667497259,-32.87774086378738
2.67018837835144,-43.87774086378738
2.671185089205621,-45.87774086378738
2.6721818000598025,-39.87774086378738
2.6731785109139836,-34.87774086378738
2.6741752217681647,-26.87774086378738
2.675171932622346,-7.8777408637873805
2.6761686434765273,8.12225913621262
2.6771653543307083,6.1222591362126195
2.6781620651848894,6.1222591362126195
2.679158776039071,16.12225913621262
2.680155486893252,19.12225913621262
2.681152197747433,19.12225913621262
2.6821489086016146,19.12225913621262
2.6831456194557957,44.12225913621262
2.6841423303099767,45.12225913621262
2.6851390411641582,17.12225913621262
2.6861357520183393,5.1222591362126195
2.6871324628725204,-0.8777408637873805
2.6881291737267015,-10.87774086378738
2.689125884580883,-33.87774086378738
2.690122595435064,-43.87774086378738
2.691119306289245,-32.87774086378738
2.6921160171434266,-19.87774086378738
2.6931127279976077,-19.87774086378738
2.6941094388517888,-21.87774086378738
2.69510614970597,-4.8777408637873805
2.6961028605601514,9.12225913621262
2.6970995714143324,-4.8777408637873805
2.6980962822685135,8.12225913621262
2.699092993122695,36.12225913621262
2.700089703976876,29.12225913621262
2.701086414831057,25.12225913621262
2.7020831256852387,29.12225913621262
2.7030798365394197,27.12225913621262
2.704076547393601,13.12225913621262
2.705073258247782,12.12225913621262
2.7060699691019634,1.1222591362126195
2.7070666799561445,-7.8777408637873805
2.7080633908103255,-19.87774086378738
2.709060101664507,-23.87774086378738
2.710056812518688,-29.87774086378738
2.711053523372869,-25.87774086378738
2.7120502342270503,-22.87774086378738
2.713046945081232,-33.87774086378738
2.714043655935413,-26.87774086378738
2.715040366789594,-0.8777408637873805
2.7160370776437754,14.12225913621262
2.7170337884979565,21.12225913621262
2.7180304993521376,22.12225913621262
2.719027210206319,18.12225913621262
2.7200239210605,7.1222591362126195
2.7210206319146812,12.12225913621262
2.7220173427688623,28.12225913621262
2.723014053623044,52.12225913621262
2.724010764477225,40.12225913621262
2.725007475331406,11.12225913621262
2.7260041861855875,-5.8777408637873805
2.7270008970397686,-10.87774086378738
2.7279976078939496,-25.87774086378738
2.7289943187481307,-19.87774086378738
2.729991029602312,-26.87774086378738
2.7309877404564933,-24.87774086378738
2.7319844513106744,-22.87774086378738
2.732981162164856,-30.87774086378738
2.733977873019037,-11.87774086378738
2.734974583873218,-7.8777408637873805
2.7359712947273995,-6.8777408637873805
2.7369680055815806,-4.8777408637873805
2.7379647164357617,12.12225913621262
2.7389614272899427,12.12225913621262
2.7399581381441243,36.12225913621262
2.7409548489983053,49.12225913621262
2.7419515598524864,31.12225913621262
2.742948270706668,11.12225913621262
2.743944981560849,25.12225913621262
2.74494169241503,19.12225913621262
2.7459384032692116,4.1222591362126195
2.7469351141233926,-4.8777408637873805
2.7479318249775737,-17.87774086378738
2.748928535831755,-15.87774086378738
2.7499252466859363,-20.87774086378738
2.7509219575401174,-21.87774086378738
2.7519186683942984,-14.87774086378738
2.75291537924848,-18.87774086378738
2.753912090102661,-16.87774086378738
2.754908800956842,-25.87774086378738
2.755905511811023,-6.8777408637873805
2.7569022226652047,9.12225913621262
2.7578989335193858,12.12225913621262
2.758895644373567,12.12225913621262
2.7598923552277483,33.12225913621262
2.7608890660819294,40.12225913621262
2.7618857769361105,24.12225913621262
2.762882487790292,23.12225913621262
2.763879198644473,29.12225913621262
2.764875909498654,15.12225913621262
2.765872620352835,-1.8777408637873805
2.7668693312070167,-7.8777408637873805
2.767866042061198,-22.87774086378738
2.768862752915379,-23.87774086378738
2.7698594637695604,-34.87774086378738
2.7708561746237415,-34.87774086378738
2.7718528854779225,-28.87774086378738
2.7728495963321036,-26.87774086378738
2.773846307186285,-26.87774086378738
2.774843018040466,-10.87774086378738
2.7758397288946473,6.1222591362126195
2.7768364397488288,14.12225913621262
2.77783315060301,2.1222591362126195
2.778829861457191,8.12225913621262
2.7798265723113724,34.12225913621262
2.7808232831655535,28.12225913621262
2.7818199940197346,29.12225913621262
2.7828167048739156,33.12225913621262
2.783813415728097,34.12225913621262
2.7848101265822782,16.12225913621262
2.7858068374364593,5.1222591362126195
2.786803548290641,-0.8777408637873805
2.787800259144822,-19.87774086378738
2.788796969999003,-29.87774086378738
2.789793680853184,-25.87774086378738
2.7907903917073655,-26.87774086378738
2.7917871025615466,-28.87774086378738
2.7927838134157277,-30.87774086378738
2.793780524269909,-31.87774086378738
2.7947772351240903,-24.87774086378738
2.7957739459782713,-13.87774086378738
2.796770656832453,-3.8777408637873805
2.797767367686634,20.12225913621262
2.798764078540815,25.12225913621262
2.799760789394996,17.12225913621262
2.8007575002491776,22.12225913621262
2.8017542111033586,26.12225913621262
2.8027509219575397,26.12225913621262
2.8037476328117212,22.12225913621262
2.8047443436659023,13.12225913621262
2.8057410545200834,-7.8777408637873805
2.8067377653742644,-2.8777408637873805
2.807734476228446,-17.87774086378738
2.808731187082627,-19.87774086378738
2.809727897936808,-9.87774086378738
2.8107246087909896,-0.8777408637873805
2.8117213196451707,-16.87774086378738
2.8127180304993518,-34.87774086378738
2.8137147413535333,-43.87774086378738
2.8147114522077143,-36.87774086378738
2.8157081630618954,-19.87774086378738
2.8167048739160765,2.1222591362126195
2.817701584770258,19.12225913621262
2.818698295624439,32.12225913621262
2.81969500647862,54.12225913621262
2.8206917173328017,31.12225913621262
2.8216884281869827,22.12225913621262
2.822685139041164,24.12225913621262
2.8236818498953453,19.12225913621262
2.8246785607495264,12.12225913621262
2.8256752716037075,3.1222591362126195
2.8266719824578885,-3.8777408637873805
2.82766869331207,-6.8777408637873805
2.828665404166251,-17.87774086378738
2.829662115020432,-31.87774086378738
2.8306588258746137,-26.87774086378738
2.8316555367287948,-36.87774086378738
2.832652247582976,-38.87774086378738
2.833648958437157,-23.87774086378738
2.8346456692913384,-1.8777408637873805
2.8356423801455195,8.12225913621262
2.8366390909997006,15.12225913621262
2.837635801853882,26.12225913621262
2.838632512708063,23.12225913621262
2.8396292235622442,30.12225913621262
2.8406259344164257,32.12225913621262
2.841622645270607,22.12225913621262
2.842619356124788,19.12225913621262
2.843616066978969,17.12225913621262
2.8446127778331505,11.12225913621262
2.8456094886873315,-14.87774086378738
2.8466061995415126,-1.8777408637873805
2.847602910395694,6.1222591362126195
2.848599621249875,-11.87774086378738
2.8495963321040563,-33.87774086378738
2.8505930429582373,-38.87774086378738
2.851589753812419,-30.87774086378738
2.8525864646666,-30.87774086378738
2.853583175520781,-28.87774086378738
2.8545798863749625,-15.87774086378738
2.8555765972291436,-3.8777408637873805
2.8565733080833247,3.1222591362126195
2.857570018937506,10.12225913621262
2.8585667297916872,24.12225913621262
2.8595634406458683,38.12225913621262
2.8605601515000494,24.12225913621262
2.861556862354231,17.12225913621262
2.862553573208412,11.12225913621262
2.863550284062593,11.12225913621262
2.8645469949167746,12.12225913621262
2.8655437057709556,2.1222591362126195
2.8665404166251367,-6.8777408637873805
2.8675371274793178,-18.87774086378738
2.8685338383334993,-23.87774086378738
2.8695305491876804,-30.87774086378738
2.8705272600418614,-27.87774086378738
2.871523970896043,-35.87774086378738
2.872520681750224,-24.87774086378738
2.873517392604405,-1.8777408637873805
2.8745141034585866,-11.87774086378738
2.8755108143127677,-19.87774086378738
2.8765075251669487,13.12225913621262
2.87750423602113,22.12225913621262
2.8785009468753113,24.12225913621262
2.8794976577294924,19.12225913621262
2.8804943685836735,20.12225913621262
2.881491079437855,18.12225913621262
2.882487790292036,25.12225913621262
2.883484501146217,25.12225913621262
2.8844812120003986,8.12225913621262
2.8854779228545797,-3.8777408637873805
2.886474633708761,-2.8777408637873805
2.887471344562942,-5.8777408637873805
2.8884680554171234,-24.87774086378738
2.8894647662713044,-42.87774086378738
2.8904614771254855,-35.87774086378738
2.891458187979667,-22.87774086378738
2.892454898833848,-26.87774086378738
2.893451609688029,-17.87774086378738
2.8944483205422102,0.12225913621261952
2.8954450313963918,0.12225913621261952
2.896441742250573,-12.87774086378738
2.897438453104754,2.1222591362126195
2.8984351639589354,19.12225913621262
2.8994318748131165,25.12225913621262
2.9004285856672976,64.12225913621262
2.901425296521479,54.12225913621262
2.90242200737566,28.12225913621262
2.903418718229841,24.12225913621262
2.9044154290840223,20.12225913621262
2.905412139938204,-2.8777408637873805
2.906408850792385,-7.8777408637873805
2.907405561646566,-20.87774086378738
2.9084022725007475,-30.87774086378738
2.9093989833549285,-17.87774086378738
2.9103956942091096,-13.87774086378738
2.9113924050632907,-23.87774086378738
2.912389115917472,-28.87774086378738
2.9133858267716533,-34.87774086378738
2.9143825376258343,-14.87774086378738
2.915379248480016,-6.8777408637873805
2.916375959334197,-3.8777408637873805
2.917372670188378,2.1222591362126195
2.9183693810425595,18.12225913621262
2.9193660918967406,24.12225913621262
2.9203628027509216,35.12225913621262
2.9213595136051027,45.12225913621262
2.9223562244592842,50.12225913621262
2.9233529353134653,30.12225913621262
2.9243496461676464,12.12225913621262
2.925346357021828,-1.8777408637873805
2.926343067876009,-12.87774086378738
2.92733977873019,-23.87774086378738
2.928336489584371,-24.87774086378738
2.9293332004385526,-30.87774086378738
2.9303299112927337,-32.87774086378738
2.9313266221469148,-25.87774086378738
2.9323233330010963,-28.87774086378738
2.9333200438552773,-31.87774086378738
2.9343167547094584,-30.87774086378738
2.93531346556364,-3.8777408637873805
2.936310176417821,21.12225913621262
2.937306887272002,35.12225913621262
2.938303598126183,30.12225913621262
2.9393003089803647,29.12225913621262
2.9402970198345457,38.12225913621262
2.941293730688727,38.12225913621262
2.9422904415429083,33.12225913621262
2.9432871523970894,17.12225913621262
2.9442838632512704,1.1222591362126195
2.9452805741054515,2.1222591362126195
2.946277284959633,-4.8777408637873805
2.947273995813814,-17.87774086378738
2.948270706667995,-22.87774086378738
2.9492674175221767,-23.87774086378738
2.9502641283763578,-32.87774086378738
2.951260839230539,-32.87774086378738
2.9522575500847204,-42.87774086378738
2.9532542609389014,-26.87774086378738
2.9542509717930825,-9.87774086378738
2.9552476826472636,12.12225913621262
2.956244393501445,9.12225913621262
2.957241104355626,8.12225913621262
2.958237815209807,24.12225913621262
2.9592345260639887,28.12225913621262
2.96023123691817,24.12225913621262
2.961227947772351,18.12225913621262
2.9622246586265324,23.12225913621262
2.9632213694807135,21.12225913621262
2.9642180803348945,3.1222591362126195
2.9652147911890756,3.1222591362126195
2.966211502043257,3.1222591362126195
2.967208212897438,-8.87774086378738
2.9682049237516193,8.12225913621262
2.9692016346058008,0.12225913621261952
2.970198345459982,-27.87774086378738
2.971195056314163,-26.87774086378738
2.972191767168344,-29.87774086378738
2.9731884780225255,-25.87774086378738
2.9741851888767066,-17.87774086378738
2.9751818997308876,-1.8777408637873805
2.976178610585069,-0.8777408637873805
2.9771753214392502,7.1222591362126195
2.9781720322934313,25.12225913621262
2.979168743147613,23.12225913621262
2.980165454001794,20.12225913621262
2.981162164855975,24.12225913621262
2.982158875710156,22.12225913621262
2.9831555865643375,19.12225913621262
2.9841522974185186,11.12225913621262
2.9851490082726997,4.1222591362126195
2.986145719126881,3.1222591362126195
2.9871424299810623,-10.87774086378738
2.9881391408352433,-18.87774086378738
2.9891358516894244,-28.87774086378738
2.990132562543606,-30.87774086378738
2.991129273397787,-31.87774086378738
2.992125984251968,-27.87774086378738
2.9931226951061496,-24.87774086378738
2.9941194059603307,-26.87774086378738
2.9951161168145117,7.1222591362126195
2.9961128276686932,18.12225913621262
2.9971095385228743,17.12225913621262
2.9981062493770554,39.12225913621262
2.9991029602312365,47.12225913621262
3.000099671085418,29.12225913621262
3.001096381939599,16.12225913621262
3.00209309279378,10.12225913621262
3.0030898036479616,8.12225913621262
3.0040865145021427,1.1222591362126195
3.0050832253563238,3.1222591362126195
3.006079936210505,17.12225913621262
3.0070766470646864,1.1222591362126195
3.0080733579188674,-22.87774086378738
3.0090700687730485,-30.87774086378738
3.01006677962723,-33.87774086378738
3.011063490481411,-28.87774086378738
3.012060201335592,-19.87774086378738
3.0130569121897737,-22.87774086378738
3.0140536230439547,-26.87774086378738
3.015050333898136,-14.87774086378738
3.016047044752317,6.1222591362126195
3.0170437556064984,19.12225913621262
3.0180404664606795,31.12225913621262
3.0190371773148605,25.12225913621262
3.020033888169042,15.12225913621262
3.021030599023223,18.12225913621262
3.022027309877404,39.12225913621262
3.0230240207315853,28.12225913621262
3.024020731585767,0.12225913621261952
3.025017442439948,-6.8777408637873805
3.026014153294129,-19.87774086378738
3.0270108641483104,-2.8777408637873805
3.0280075750024915,-9.87774086378738
3.0290042858566726,-25.87774086378738
3.030000996710854,-14.87774086378738
3.030997707565035,-9.87774086378738
3.0319944184192162,-12.87774086378738
3.0329911292733973,-20.87774086378738
3.033987840127579,-17.87774086378738
3.03498455098176,-6.8777408637873805
3.035981261835941,-3.8777408637873805
3.0369779726901225,7.1222591362126195
3.0379746835443036,19.12225913621262
3.0389713943984846,17.12225913621262
3.039968105252666,12.12225913621262
3.040964816106847,16.12225913621262
3.0419615269610283,28.12225913621262
3.0429582378152094,36.12225913621262
3.043954948669391,21.12225913621262
3.044951659523572,-6.8777408637873805
3.045948370377753,-8.87774086378738
3.0469450812319345,-3.8777408637873805
3.0479417920861156,-11.87774086378738
3.0489385029402967,-19.87774086378738
3.0499352137944777,-26.87774086378738
3.0509319246486593,-27.87774086378738
3.0519286355028403,-17.87774086378738
3.0529253463570214,-22.87774086378738
3.053922057211203,-14.87774086378738
3.054918768065384,1.1222591362126195
3.055915478919565,11.12225913621262
3.0569121897737466,14.12225913621262
3.0579089006279276,18.12225913621262
3.0589056114821087,31.12225913621262
3.05990232233629,36.12225913621262
3.0608990331904713,11.12225913621262
3.0618957440446524,8.12225913621262
3.0628924548988334,17.12225913621262
3.063889165753015,4.1222591362126195
3.064885876607196,-2.8777408637873805
3.065882587461377,-4.8777408637873805
3.066879298315558,-14.87774086378738
3.0678760091697397,-19.87774086378738
3.0688727200239208,-29.87774086378738
3.069869430878102,-42.87774086378738
3.0708661417322833,-10.87774086378738
3.0718628525864644,-10.87774086378738
3.0728595634406455,-7.8777408637873805
3.073856274294827,-10.87774086378738
3.074852985149008,8.12225913621262
3.075849696003189,1.1222591362126195
3.07684640685737,8.12225913621262
3.0778431177115517,10.12225913621262
3.078839828565733,7.1222591362126195
3.079836539419914,17.12225913621262
3.0808332502740954,21.12225913621262
3.0818299611282765,34.12225913621262
3.0828266719824575,31.12225913621262
3.0838233828366386,22.12225913621262
3.08482009369082,25.12225913621262
3.085816804545001,8.12225913621262
3.0868135153991823,-20.87774086378738
3.0878102262533638,-21.87774086378738
3.088806937107545,-19.87774086378738
3.089803647961726,-36.87774086378738
3.0908003588159074,-27.87774086378738
3.0917970696700885,-23.87774086378738
3.0927937805242696,-28.87774086378738
3.0937904913784506,-32.87774086378738
3.094787202232632,-25.87774086378738
3.095783913086813,-0.8777408637873805
3.0967806239409943,16.12225913621262
3.097777334795176,42.12225913621262
3.098774045649357,43.12225913621262
3.099770756503538,52.12225913621262
3.1007674673577195,16.12225913621262
3.1017641782119005,14.12225913621262
3.1027608890660816,34.12225913621262
3.1037575999202627,20.12225913621262
3.104754310774444,7.1222591362126195
3.1057510216286253,-2.8777408637873805
3.1067477324828063,-18.87774086378738
3.107744443336988,-33.87774086378738
3.108741154191169,-15.87774086378738
3.10973786504535,-9.87774086378738
3.110734575899531,-18.87774086378738
3.1117312867537126,-23.87774086378738
3.1127279976078936,-19.87774086378738
3.1137247084620747,-17.87774086378738
3.1147214193162562,-12.87774086378738
3.1157181301704373,-6.8777408637873805
3.1167148410246184,14.12225913621262
3.1177115518788,11.12225913621262
3.118708262732981,14.12225913621262
3.119704973587162,9.12225913621262
3.120701684441343,21.12225913621262
3.1216983952955246,32.12225913621262
3.1226951061497057,38.12225913621262
3.1236918170038868,21.12225913621262
3.1246885278580683,5.1222591362126195
3.1256852387122493,1.1222591362126195
3.1266819495664304,-10.87774086378738
3.1276786604206115,-21.87774086378738
3.128675371274793,-19.87774086378738
3.129672082128974,-22.87774086378738
3.130668792983155,-28.87774086378738
3.1316655038373367,-17.87774086378738
3.1326622146915177,-14.87774086378738
3.133658925545699,-28.87774086378738
3.1346556363998803,-1.8777408637873805
3.1356523472540614,16.12225913621262
3.1366490581082425,19.12225913621262
3.1376457689624235,23.12225913621262
3.138642479816605,20.12225913621262
3.139639190670786,24.12225913621262
3.140635901524967,31.12225913621262
3.1416326123791487,20.12225913621262
3.1426293232333298,2.1222591362126195
3.143626034087511,-10.87774086378738
3.144622744941692,-19.87774086378738
3.1456194557958734,1.1222591362126195
3.1466161666500545,26.12225913621262
3.1476128775042356,3.1222591362126195
3.148609588358417,-27.87774086378738
3.149606299212598,-30.87774086378738
3.1506030100667792,-40.87774086378738
3.1515997209209607,-33.87774086378738
3.152596431775142,-20.87774086378738
3.153593142629323,-17.87774086378738
3.154589853483504,-7.8777408637873805
3.1555865643376855,6.1222591362126195
3.1565832751918665,11.12225913621262
3.1575799860460476,14.12225913621262
3.158576696900229,19.12225913621262
3.15957340775441,38.12225913621262
3.1605701186085913,45.12225913621262
3.1615668294627723,48.12225913621262
3.162563540316954,30.12225913621262
3.163560251171135,13.12225913621262
3.164556962025316,-4.8777408637873805
3.1655536728794975,-12.87774086378738
3.1665503837336786,-22.87774086378738
3.1675470945878597,-38.87774086378738
3.168543805442041,-37.87774086378738
3.1695405162962222,-27.87774086378738
3.1705372271504033,-16.87774086378738
3.1715339380045844,-20.87774086378738
3.172530648858766,-24.87774086378738
3.173527359712947,-21.87774086378738
3.174524070567128,-10.87774086378738
3.1755207814213096,8.12225913621262
3.1765174922754906,24.12225913621262
3.1775142031296717,37.12225913621262
3.178510913983853,36.12225913621262
3.1795076248380343,30.12225913621262
3.1805043356922154,33.12225913621262
3.1815010465463964,28.12225913621262
3.182497757400578,17.12225913621262
3.183494468254759,0.12225913621261952
3.18449117910894,6.1222591362126195
3.1854878899631216,7.1222591362126195
3.1864846008173027,-12.87774086378738
3.1874813116714837,-28.87774086378738
3.188478022525665,-30.87774086378738
3.1894747333798463,-29.87774086378738
3.1904714442340274,-37.87774086378738
3.1914681550882085,-36.87774086378738
