Time,EMG
0.0,-18.821295681063134
0.000996710854181202,-12.821295681063134
0.001993421708362404,-4.821295681063134
0.002990132562543606,3.178704318936866
0.003986843416724808,6.178704318936866
0.00498355427090601,-0.821295681063134
0.005980265125087212,-7.821295681063134
0.006976975979268414,-2.821295681063134
0.007973686833449616,11.178704318936866
0.008970397687630818,17.178704318936866
0.00996710854181202,24.178704318936866
0.01096381939599322,24.178704318936866
0.011960530250174423,17.178704318936866
0.012957241104355626,0.178704318936866
0.013953951958536827,4.178704318936866
0.014950662812718028,8.178704318936866
0.01594737366689923,-10.821295681063134
0.016944084521080434,-19.821295681063134
0.017940795375261637,-15.821295681063134
0.018937506229442836,-11.821295681063134
0.01993421708362404,-18.821295681063134
0.02093092793780524,-21.821295681063134
0.02192763879198644,-18.821295681063134
0.022924349646167644,-10.821295681063134
0.023921060500348847,4.178704318936866
0.02491777135453005,6.178704318936866
0.025914482208711252,13.178704318936866
0.02691119306289245,15.178704318936866
0.027907903917073654,12.178704318936866
0.028904614771254857,4.178704318936866
0.029901325625436057,6.178704318936866
0.03089803647961726,4.178704318936866
0.03189474733379846,3.178704318936866
0.032891458187979665,11.178704318936866
0.03388816904216087,16.178704318936866
0.03488487989634207,16.178704318936866
0.03588159075052327,7.178704318936866
0.03687830160470447,-6.821295681063134
0.03787501245888567,-2.821295681063134
0.038871723313066875,-7.821295681063134
0.03986843416724808,-9.821295681063134
0.04086514502142928,-11.821295681063134
0.04186185587561048,-4.821295681063134
0.042858566729791686,-0.821295681063134
0.04385527758397288,6.178704318936866
0.044851988438154085,11.178704318936866
0.04584869929233529,9.178704318936866
0.04684541014651649,7.178704318936866
0.04784212100069769,-2.821295681063134
0.048838831854878896,-2.821295681063134
0.0498355427090601,-6.821295681063134
0.0508322535632413,-8.821295681063134
0.051828964417422504,-7.821295681063134
0.0528256752716037,-1.821295681063134
0.0538223861257849,8.178704318936866
0.054819096979966106,4.178704318936866
0.05581580783414731,0.178704318936866
0.05681251868832851,-10.821295681063134
0.057809229542509714,-6.821295681063134
0.05880594039669092,5.178704318936866
0.05980265125087211,-2.821295681063134
0.060799362105053316,-0.821295681063134
0.06179607295923452,-1.821295681063134
0.06279278381341573,-4.821295681063134
0.06378949466759692,0.178704318936866
0.06478620552177812,2.178704318936866
0.06578291637595933,5.178704318936866
0.06677962723014053,1.178704318936866
0.06777633808432174,7.178704318936866
0.06877304893850293,-1.821295681063134
0.06976975979268414,-4.821295681063134
0.07076647064686534,-14.821295681063134
0.07176318150104655,-3.821295681063134
0.07275989235522774,5.178704318936866
0.07375660320940894,12.178704318936866
0.07475331406359015,17.178704318936866
0.07575002491777134,17.178704318936866
0.07674673577195255,4.178704318936866
0.07774344662613375,-4.821295681063134
0.07874015748031496,-6.821295681063134
0.07973686833449616,-5.821295681063134
0.08073357918867735,1.178704318936866
0.08173029004285856,1.178704318936866
0.08272700089703976,-4.821295681063134
0.08372371175122097,-2.821295681063134
0.08472042260540216,-14.821295681063134
0.08571713345958337,-18.821295681063134
0.08671384431376457,-10.821295681063134
0.08771055516794576,-2.821295681063134
0.08870726602212697,0.178704318936866
0.08970397687630817,-5.821295681063134
0.09070068773048938,-1.821295681063134
0.09169739858467058,17.178704318936866
0.09269410943885178,9.178704318936866
0.09369082029303298,11.178704318936866
0.09468753114721419,14.178704318936866
0.09568424200139539,14.178704318936866
0.09668095285557658,3.178704318936866
0.09767766370975779,-12.821295681063134
0.09867437456393899,-25.821295681063134
0.0996710854181202,-30.821295681063134
0.1006677962723014,-23.821295681063134
0.1016645071264826,-9.821295681063134
0.1026612179806638,-3.821295681063134
0.10365792883484501,-7.821295681063134
0.1046546396890262,3.178704318936866
0.1056513505432074,7.178704318936866
0.10664806139738861,22.178704318936866
0.1076447722515698,27.178704318936866
0.10864148310575102,30.178704318936866
0.10963819395993221,29.178704318936866
0.11063490481411342,22.178704318936866
0.11163161566829462,20.178704318936866
0.11262832652247581,16.178704318936866
0.11362503737665702,5.178704318936866
0.11462174823083822,-1.821295681063134
0.11561845908501943,6.178704318936866
0.11661516993920062,7.178704318936866
0.11761188079338183,-2.821295681063134
0.11860859164756303,-4.821295681063134
0.11960530250174423,-6.821295681063134
0.12060201335592544,-8.821295681063134
0.12159872421010663,-13.821295681063134
0.12259543506428784,-6.821295681063134
0.12359214591846904,-2.821295681063134
0.12458885677265025,-2.821295681063134
0.12558556762683146,-14.821295681063134
0.12658227848101264,-17.821295681063134
0.12757898933519385,-16.821295681063134
0.12857570018937506,-10.821295681063134
0.12957241104355624,3.178704318936866
0.13056912189773745,11.178704318936866
0.13156583275191866,8.178704318936866
0.13256254360609987,16.178704318936866
0.13355925446028105,13.178704318936866
0.13455596531446226,5.178704318936866
0.13555267616864347,6.178704318936866
0.13654938702282465,3.178704318936866
0.13754609787700586,4.178704318936866
0.13854280873118707,-7.821295681063134
0.13953951958536828,-24.821295681063134
0.14053623043954946,-32.821295681063134
0.14153294129373067,-25.821295681063134
0.14252965214791188,-13.821295681063134
0.1435263630020931,-6.821295681063134
0.14452307385627428,5.178704318936866
0.14551978471045549,19.178704318936866
0.1465164955646367,16.178704318936866
0.14751320641881788,11.178704318936866
0.1485099172729991,2.178704318936866
0.1495066281271803,0.178704318936866
0.1505033389813615,-1.821295681063134
0.1515000498355427,-4.821295681063134
0.1524967606897239,-3.821295681063134
0.1534934715439051,-10.821295681063134
0.1544901823980863,-6.821295681063134
0.1554868932522675,-7.821295681063134
0.1564836041064487,-13.821295681063134
0.15748031496062992,-14.821295681063134
0.1584770258148111,-15.821295681063134
0.1594737366689923,-6.821295681063134
0.16047044752317352,-4.821295681063134
0.1614671583773547,10.178704318936866
0.1624638692315359,20.178704318936866
0.16346058008571712,16.178704318936866
0.16445729093989833,9.178704318936866
0.1654540017940795,5.178704318936866
0.16645071264826072,13.178704318936866
0.16744742350244193,16.178704318936866
0.16844413435662312,24.178704318936866
0.16944084521080433,16.178704318936866
0.17043755606498553,23.178704318936866
0.17143426691916674,14.178704318936866
0.17243097777334793,13.178704318936866
0.17342768862752914,-0.821295681063134
0.17442439948171035,-16.821295681063134
0.17542111033589153,-26.821295681063134
0.17641782119007274,-20.821295681063134
0.17741453204425395,-24.821295681063134
0.17841124289843516,-12.821295681063134
0.17940795375261634,-0.821295681063134
0.18040466460679755,2.178704318936866
0.18140137546097876,10.178704318936866
0.18239808631515997,18.178704318936866
0.18339479716934115,13.178704318936866
0.18439150802352236,-3.821295681063134
0.18538821887770357,-5.821295681063134
0.18638492973188475,-12.821295681063134
0.18738164058606596,-10.821295681063134
0.18837835144024717,-2.821295681063134
0.18937506229442838,-4.821295681063134
0.19037177314860956,2.178704318936866
0.19136848400279077,1.178704318936866
0.19236519485697198,3.178704318936866
0.19336190571115316,-9.821295681063134
0.19435861656533437,-10.821295681063134
0.19535532741951558,0.178704318936866
0.1963520382736968,8.178704318936866
0.19734874912787798,13.178704318936866
0.19834545998205919,1.178704318936866
0.1993421708362404,-6.821295681063134
0.20033888169042158,-12.821295681063134
0.2013355925446028,-9.821295681063134
0.202332303398784,-4.821295681063134
0.2033290142529652,-3.821295681063134
0.2043257251071464,-11.821295681063134
0.2053224359613276,-12.821295681063134
0.2063191468155088,-3.821295681063134
0.20731585766969002,8.178704318936866
0.2083125685238712,11.178704318936866
0.2093092793780524,8.178704318936866
0.21030599023223362,24.178704318936866
0.2113027010864148,32.178704318936866
0.212299411940596,24.178704318936866
0.21329612279477722,17.178704318936866
0.21429283364895843,13.178704318936866
0.2152895445031396,9.178704318936866
0.21628625535732082,-2.821295681063134
0.21728296621150203,-16.821295681063134
0.21827967706568321,-12.821295681063134
0.21927638791986442,-9.821295681063134
0.22027309877404563,-10.821295681063134
0.22126980962822684,4.178704318936866
0.22226652048240803,-1.821295681063134
0.22326323133658924,-2.821295681063134
0.22425994219077044,-4.821295681063134
0.22525665304495163,-14.821295681063134
0.22625336389913284,-19.821295681063134
0.22725007475331405,-19.821295681063134
0.22824678560749526,-13.821295681063134
0.22924349646167644,-10.821295681063134
0.23024020731585765,-1.821295681063134
0.23123691817003886,0.178704318936866
0.23223362902422004,11.178704318936866
0.23323033987840125,12.178704318936866
0.23422705073258246,24.178704318936866
0.23522376158676367,17.178704318936866
0.23622047244094485,10.178704318936866
0.23721718329512606,5.178704318936866
0.23821389414930727,0.178704318936866
0.23921060500348845,-8.821295681063134
0.24020731585766966,-17.821295681063134
0.24120402671185087,-17.821295681063134
0.24220073756603208,-19.821295681063134
0.24319744842021326,-15.821295681063134
0.24419415927439447,-7.821295681063134
0.24519087012857568,14.178704318936866
0.2461875809827569,28.178704318936866
0.24718429183693807,33.178704318936866
0.24818100269111928,26.178704318936866
0.2491777135453005,16.178704318936866
0.2501744243994817,9.178704318936866
0.2511711352536629,-2.821295681063134
0.2521678461078441,-4.821295681063134
0.2531645569620253,-9.821295681063134
0.2541612678162065,-13.821295681063134
0.2551579786703877,-12.821295681063134
0.2561546895245689,-9.821295681063134
0.2571514003787501,-5.821295681063134
0.2581481112329313,-14.821295681063134
0.2591448220871125,-9.821295681063134
0.2601415329412937,-15.821295681063134
0.2611382437954749,-19.821295681063134
0.26213495464965614,-2.821295681063134
0.2631316655038373,12.178704318936866
0.2641283763580185,11.178704318936866
0.26512508721219974,12.178704318936866
0.2661217980663809,17.178704318936866
0.2671185089205621,15.178704318936866
0.26811521977474334,19.178704318936866
0.2691119306289245,16.178704318936866
0.2701086414831057,21.178704318936866
0.27110535233728694,22.178704318936866
0.2721020631914681,20.178704318936866
0.2730987740456493,-2.821295681063134
0.27409548489983054,-10.821295681063134
0.2750921957540117,-16.821295681063134
0.27608890660819296,-19.821295681063134
0.27708561746237415,-30.821295681063134
0.2780823283165553,-28.821295681063134
0.27907903917073656,-28.821295681063134
0.28007575002491775,-23.821295681063134
0.28107246087909893,-11.821295681063134
0.28206917173328017,0.178704318936866
0.28306588258746135,-1.821295681063134
0.28406259344164253,-1.821295681063134
0.28505930429582377,-1.821295681063134
0.28605601515000495,6.178704318936866
0.2870527260041862,13.178704318936866
0.28804943685836737,18.178704318936866
0.28904614771254855,11.178704318936866
0.2900428585667298,4.178704318936866
0.29103956942091097,7.178704318936866
0.29203628027509215,7.178704318936866
0.2930329911292734,6.178704318936866
0.29402970198345457,18.178704318936866
0.29502641283763575,16.178704318936866
0.296023123691817,14.178704318936866
0.2970198345459982,4.178704318936866
0.29801654540017936,-6.821295681063134
0.2990132562543606,-14.821295681063134
0.3000099671085418,-18.821295681063134
0.301006677962723,-15.821295681063134
0.3020033888169042,-20.821295681063134
0.3030000996710854,-19.821295681063134
0.3039968105252666,-10.821295681063134
0.3049935213794478,4.178704318936866
0.305990232233629,8.178704318936866
0.3069869430878102,7.178704318936866
0.3079836539419914,0.178704318936866
0.3089803647961726,8.178704318936866
0.3099770756503538,21.178704318936866
0.310973786504535,19.178704318936866
0.3119704973587162,18.178704318936866
0.3129672082128974,10.178704318936866
0.3139639190670786,0.178704318936866
0.31496062992125984,-0.821295681063134
0.315957340775441,-2.821295681063134
0.3169540516296222,-4.821295681063134
0.31795076248380344,-10.821295681063134
0.3189474733379846,-9.821295681063134
0.3199441841921658,1.178704318936866
0.32094089504634704,-3.821295681063134
0.3219376059005282,-6.821295681063134
0.3229343167547094,-14.821295681063134
0.32393102760889064,-11.821295681063134
0.3249277384630718,-1.821295681063134
0.32592444931725306,7.178704318936866
0.32692116017143424,13.178704318936866
0.3279178710256154,13.178704318936866
0.32891458187979666,23.178704318936866
0.32991129273397785,24.178704318936866
0.330908003588159,20.178704318936866
0.33190471444234027,7.178704318936866
0.33290142529652145,-5.821295681063134
0.33389813615070263,-13.821295681063134
0.33489484700488387,-18.821295681063134
0.33589155785906505,-25.821295681063134
0.33688826871324623,-33.821295681063134
0.33788497956742747,-17.821295681063134
0.33888169042160865,-8.821295681063134
0.3398784012757899,-12.821295681063134
0.34087511212997107,-12.821295681063134
0.34187182298415225,-9.821295681063134
0.3428685338383335,2.178704318936866
0.34386524469251467,9.178704318936866
0.34486195554669585,17.178704318936866
0.3458586664008771,13.178704318936866
0.3468553772550583,14.178704318936866
0.34785208810923945,12.178704318936866
0.3488487989634207,6.178704318936866
0.3498455098176019,-1.821295681063134
0.35084222067178306,3.178704318936866
0.3518389315259643,10.178704318936866
0.3528356423801455,8.178704318936866
0.3538323532343267,5.178704318936866
0.3548290640885079,7.178704318936866
0.3558257749426891,6.178704318936866
0.3568224857968703,2.178704318936866
0.3578191966510515,-12.821295681063134
0.3588159075052327,-21.821295681063134
0.3598126183594139,-24.821295681063134
0.3608093292135951,-16.821295681063134
0.3618060400677763,-10.821295681063134
0.3628027509219575,5.178704318936866
0.3637994617761387,10.178704318936866
0.36479617263031994,10.178704318936866
0.3657928834845011,1.178704318936866
0.3667895943386823,-10.821295681063134
0.36778630519286354,-10.821295681063134
0.3687830160470447,-4.821295681063134
0.3697797269012259,5.178704318936866
0.37077643775540714,15.178704318936866
0.3717731486095883,12.178704318936866
0.3727698594637695,19.178704318936866
0.37376657031795074,20.178704318936866
0.3747632811721319,26.178704318936866
0.3757599920263131,20.178704318936866
0.37675670288049434,16.178704318936866
0.3777534137346755,-2.821295681063134
0.37875012458885676,-10.821295681063134
0.37974683544303794,-17.821295681063134
0.3807435462972191,-16.821295681063134
0.38174025715140036,-14.821295681063134
0.38273696800558155,-18.821295681063134
0.38373367885976273,-19.821295681063134
0.38473038971394397,-18.821295681063134
0.38572710056812515,-8.821295681063134
0.38672381142230633,-6.821295681063134
0.38772052227648757,2.178704318936866
0.38871723313066875,-2.821295681063134
0.38971394398485,19.178704318936866
0.39071065483903117,24.178704318936866
0.39170736569321235,12.178704318936866
0.3927040765473936,-0.821295681063134
0.39370078740157477,3.178704318936866
0.39469749825575595,1.178704318936866
0.3956942091099372,-8.821295681063134
0.39669091996411837,-11.821295681063134
0.39768763081829955,-4.821295681063134
0.3986843416724808,-3.821295681063134
0.399681052526662,2.178704318936866
0.40067776338084315,5.178704318936866
0.4016744742350244,-2.821295681063134
0.4026711850892056,0.178704318936866
0.4036678959433868,3.178704318936866
0.404664606797568,-6.821295681063134
0.4056613176517492,-7.821295681063134
0.4066580285059304,-2.821295681063134
0.4076547393601116,1.178704318936866
0.4086514502142928,11.178704318936866
0.409648161068474,19.178704318936866
0.4106448719226552,8.178704318936866
0.4116415827768364,2.178704318936866
0.4126382936310176,-2.821295681063134
0.4136350044851988,-6.821295681063134
0.41463171533938004,-4.821295681063134
0.4156284261935612,-1.821295681063134
0.4166251370477424,1.178704318936866
0.41762184790192364,3.178704318936866
0.4186185587561048,6.178704318936866
0.419615269610286,9.178704318936866
0.42061198046446724,5.178704318936866
0.4216086913186484,-3.821295681063134
0.4226054021728296,-11.821295681063134
0.42360211302701084,-12.821295681063134
0.424598823881192,-9.821295681063134
0.4255955347353732,-4.821295681063134
0.42659224558955444,2.178704318936866
0.4275889564437356,-1.821295681063134
0.42858566729791686,5.178704318936866
0.42958237815209804,7.178704318936866
0.4305790890062792,7.178704318936866
0.43157579986046046,-8.821295681063134
0.43257251071464164,-3.821295681063134
0.4335692215688228,3.178704318936866
0.43456593242300406,4.178704318936866
0.43556264327718525,7.178704318936866
0.43655935413136643,10.178704318936866
0.43755606498554767,16.178704318936866
0.43855277583972885,11.178704318936866
0.43954948669391003,-1.821295681063134
0.44054619754809127,-4.821295681063134
0.44154290840227245,-0.821295681063134
0.4425396192564537,5.178704318936866
0.44353633011063487,-6.821295681063134
0.44453304096481605,-15.821295681063134
0.4455297518189973,-17.821295681063134
0.44652646267317847,-8.821295681063134
0.44752317352735965,0.178704318936866
0.4485198843815409,8.178704318936866
0.44951659523572207,13.178704318936866
0.45051330608990325,12.178704318936866
0.4515100169440845,15.178704318936866
0.4525067277982657,7.178704318936866
0.4535034386524469,1.178704318936866
0.4545001495066281,-7.821295681063134
0.4554968603608093,-26.821295681063134
0.4564935712149905,-34.821295681063134
0.4574902820691717,-31.821295681063134
0.4584869929233529,-26.821295681063134
0.4594837037775341,-9.821295681063134
0.4604804146317153,-7.821295681063134
0.4614771254858965,-7.821295681063134
0.4624738363400777,8.178704318936866
0.4634705471942589,16.178704318936866
0.4644672580484401,29.178704318936866
0.4654639689026213,31.178704318936866
0.4664606797568025,21.178704318936866
0.46745739061098374,20.178704318936866
0.4684541014651649,20.178704318936866
0.4694508123193461,12.178704318936866
0.47044752317352734,2.178704318936866
0.4714442340277085,-7.821295681063134
0.4724409448818897,-9.821295681063134
0.47343765573607094,-7.821295681063134
0.4744343665902521,1.178704318936866
0.4754310774444333,1.178704318936866
0.47642778829861454,-0.821295681063134
0.4774244991527957,-8.821295681063134
0.4784212100069769,-9.821295681063134
0.47941792086115814,-12.821295681063134
0.4804146317153393,-10.821295681063134
0.48141134256952056,6.178704318936866
0.48240805342370174,9.178704318936866
0.4834047642778829,4.178704318936866
0.48440147513206416,1.178704318936866
0.48539818598624535,12.178704318936866
0.4863948968404265,2.178704318936866
0.48739160769460776,-2.821295681063134
0.48838831854878895,-2.821295681063134
0.48938502940297013,7.178704318936866
0.49038174025715137,7.178704318936866
0.49137845111133255,7.178704318936866
0.4923751619655138,0.178704318936866
0.49337187281969497,-2.821295681063134
0.49436858367387615,-5.821295681063134
0.4953652945280574,-1.821295681063134
0.49636200538223857,9.178704318936866
0.49735871623641975,4.178704318936866
0.498355427090601,6.178704318936866
0.49935213794478217,-4.821295681063134
0.5003488487989634,-9.821295681063134
0.5013455596531445,1.178704318936866
0.5023422705073258,2.178704318936866
0.503338981361507,7.178704318936866
0.5043356922156882,1.178704318936866
0.5053324030698694,-9.821295681063134
0.5063291139240506,-19.821295681063134
0.5073258247782317,-23.821295681063134
0.508322535632413,-17.821295681063134
0.5093192464865942,-7.821295681063134
0.5103159573407754,-4.821295681063134
0.5113126681949566,-8.821295681063134
0.5123093790491378,4.178704318936866
0.513306089903319,5.178704318936866
0.5143028007575002,13.178704318936866
0.5152995116116814,19.178704318936866
0.5162962224658626,21.178704318936866
0.5172929333200438,11.178704318936866
0.518289644174225,-7.821295681063134
0.5192863550284063,-25.821295681063134
0.5202830658825874,-23.821295681063134
0.5212797767367686,-20.821295681063134
0.5222764875909498,-16.821295681063134
0.523273198445131,-9.821295681063134
0.5242699092993123,6.178704318936866
0.5252666201534935,12.178704318936866
0.5262633310076746,19.178704318936866
0.5272600418618558,16.178704318936866
0.528256752716037,14.178704318936866
0.5292534635702182,12.178704318936866
0.5302501744243995,17.178704318936866
0.5312468852785807,12.178704318936866
0.5322435961327618,0.178704318936866
0.533240306986943,-4.821295681063134
0.5342370178411242,5.178704318936866
0.5352337286953054,-2.821295681063134
0.5362304395494867,-12.821295681063134
0.5372271504036679,-8.821295681063134
0.538223861257849,-10.821295681063134
0.5392205721120302,-15.821295681063134
0.5402172829662114,-9.821295681063134
0.5412139938203927,6.178704318936866
0.5422107046745739,12.178704318936866
0.5432074155287551,4.178704318936866
0.5442041263829362,1.178704318936866
0.5452008372371174,3.178704318936866
0.5461975480912986,3.178704318936866
0.5471942589454799,15.178704318936866
0.5481909697996611,20.178704318936866
0.5491876806538423,24.178704318936866
0.5501843915080235,22.178704318936866
0.5511811023622046,8.178704318936866
0.5521778132163859,0.178704318936866
0.5531745240705671,-0.821295681063134
0.5541712349247483,-17.821295681063134
0.5551679457789295,-23.821295681063134
0.5561646566331107,-24.821295681063134
0.5571613674872918,-20.821295681063134
0.5581580783414731,-18.821295681063134
0.5591547891956543,-18.821295681063134
0.5601515000498355,-5.821295681063134
0.5611482109040167,2.178704318936866
0.5621449217581979,22.178704318936866
0.5631416326123792,12.178704318936866
0.5641383434665603,5.178704318936866
0.5651350543207415,6.178704318936866
0.5661317651749227,1.178704318936866
0.5671284760291039,1.178704318936866
0.5681251868832851,-5.821295681063134
0.5691218977374664,-10.821295681063134
0.5701186085916475,-10.821295681063134
0.5711153194458287,-1.821295681063134
0.5721120303000099,-0.821295681063134
0.5731087411541911,-1.821295681063134
0.5741054520083724,-1.821295681063134
0.5751021628625536,-6.821295681063134
0.5760988737167347,-14.821295681063134
0.5770955845709159,-9.821295681063134
0.5780922954250971,-3.821295681063134
0.5790890062792783,3.178704318936866
0.5800857171334596,5.178704318936866
0.5810824279876408,-0.821295681063134
0.5820791388418219,0.178704318936866
0.5830758496960031,9.178704318936866
0.5840725605501843,-0.821295681063134
0.5850692714043655,2.178704318936866
0.5860659822585468,14.178704318936866
0.587062693112728,21.178704318936866
0.5880594039669091,14.178704318936866
0.5890561148210903,11.178704318936866
0.5900528256752715,-0.821295681063134
0.5910495365294528,-0.821295681063134
0.592046247383634,5.178704318936866
0.5930429582378152,2.178704318936866
0.5940396690919963,-0.821295681063134
0.5950363799461775,-3.821295681063134
0.5960330908003587,-17.821295681063134
0.59702980165454,-20.821295681063134
0.5980265125087212,-19.821295681063134
0.5990232233629024,-17.821295681063134
0.6000199342170836,-9.821295681063134
0.6010166450712647,2.178704318936866
0.602013355925446,4.178704318936866
0.6030100667796272,8.178704318936866
0.6040067776338084,12.178704318936866
0.6050034884879896,22.178704318936866
0.6060001993421708,21.178704318936866
0.6069969101963519,18.178704318936866
0.6079936210505332,10.178704318936866
0.6089903319047144,8.178704318936866
0.6099870427588956,3.178704318936866
0.6109837536130768,15.178704318936866
0.611980464467258,18.178704318936866
0.6129771753214392,11.178704318936866
0.6139738861756204,12.178704318936866
0.6149705970298016,12.178704318936866
0.6159673078839828,1.178704318936866
0.616964018738164,-11.821295681063134
0.6179607295923452,-23.821295681063134
0.6189574404465265,-29.821295681063134
0.6199541513007076,-30.821295681063134
0.6209508621548888,-25.821295681063134
0.62194757300907,-26.821295681063134
0.6229442838632512,-13.821295681063134
0.6239409947174324,-9.821295681063134
0.6249377055716137,-0.821295681063134
0.6259344164257948,-10.821295681063134
0.626931127279976,-7.821295681063134
0.6279278381341572,-2.821295681063134
0.6289245489883384,-4.821295681063134
0.6299212598425197,5.178704318936866
0.6309179706967009,14.178704318936866
0.631914681550882,17.178704318936866
0.6329113924050632,24.178704318936866
0.6339081032592444,27.178704318936866
0.6349048141134256,14.178704318936866
0.6359015249676069,0.178704318936866
0.6368982358217881,0.178704318936866
0.6378949466759692,-4.821295681063134
0.6388916575301504,-4.821295681063134
0.6398883683843316,-2.821295681063134
0.6408850792385129,-6.821295681063134
0.6418817900926941,-4.821295681063134
0.6428785009468753,-7.821295681063134
0.6438752118010564,1.178704318936866
0.6448719226552376,7.178704318936866
0.6458686335094188,3.178704318936866
0.6468653443636001,6.178704318936866
0.6478620552177813,12.178704318936866
0.6488587660719625,13.178704318936866
0.6498554769261436,13.178704318936866
0.6508521877803248,6.178704318936866
0.6518488986345061,3.178704318936866
0.6528456094886873,-0.821295681063134
0.6538423203428685,-6.821295681063134
0.6548390311970497,-18.821295681063134
0.6558357420512309,-4.821295681063134
0.656832452905412,4.178704318936866
0.6578291637595933,0.178704318936866
0.6588258746137745,3.178704318936866
0.6598225854679557,-1.821295681063134
0.6608192963221369,-9.821295681063134
0.661816007176318,-14.821295681063134
0.6628127180304992,-8.821295681063134
0.6638094288846805,-1.821295681063134
0.6648061397388617,9.178704318936866
0.6658028505930429,6.178704318936866
0.6667995614472241,-6.821295681063134
0.6677962723014053,8.178704318936866
0.6687929831555866,18.178704318936866
0.6697896940097677,11.178704318936866
0.6707864048639489,17.178704318936866
0.6717831157181301,-2.821295681063134
0.6727798265723113,-15.821295681063134
0.6737765374264925,-23.821295681063134
0.6747732482806738,-29.821295681063134
0.6757699591348549,-25.821295681063134
0.6767666699890361,-21.821295681063134
0.6777633808432173,-12.821295681063134
0.6787600916973985,-5.821295681063134
0.6797568025515798,5.178704318936866
0.680753513405761,16.178704318936866
0.6817502242599421,24.178704318936866
0.6827469351141233,32.178704318936866
0.6837436459683045,30.178704318936866
0.6847403568224857,20.178704318936866
0.685737067676667,11.178704318936866
0.6867337785308482,2.178704318936866
0.6877304893850293,3.178704318936866
0.6887272002392105,4.178704318936866
0.6897239110933917,6.178704318936866
0.690720621947573,7.178704318936866
0.6917173328017542,4.178704318936866
0.6927140436559354,-4.821295681063134
0.6937107545101165,-8.821295681063134
0.6947074653642977,-19.821295681063134
0.6957041762184789,-21.821295681063134
0.6967008870726602,-21.821295681063134
0.6976975979268414,-9.821295681063134
0.6986943087810226,2.178704318936866
0.6996910196352037,-1.821295681063134
0.7006877304893849,-2.821295681063134
0.7016844413435661,-0.821295681063134
0.7026811521977474,-4.821295681063134
0.7036778630519286,-3.821295681063134
0.7046745739061098,2.178704318936866
0.705671284760291,6.178704318936866
0.7066679956144721,18.178704318936866
0.7076647064686534,20.178704318936866
0.7086614173228346,22.178704318936866
0.7096581281770158,21.178704318936866
0.710654839031197,16.178704318936866
0.7116515498853782,-0.821295681063134
0.7126482607395593,-11.821295681063134
0.7136449715937406,-15.821295681063134
0.7146416824479218,-10.821295681063134
0.715638393302103,-10.821295681063134
0.7166351041562842,-14.821295681063134
0.7176318150104654,-12.821295681063134
0.7186285258646467,-2.821295681063134
0.7196252367188278,2.178704318936866
0.720621947573009,-14.821295681063134
0.7216186584271902,-12.821295681063134
0.7226153692813714,-6.821295681063134
0.7236120801355526,14.178704318936866
0.7246087909897339,20.178704318936866
0.725605501843915,19.178704318936866
0.7266022126980962,20.178704318936866
0.7275989235522774,15.178704318936866
0.7285956344064586,14.178704318936866
0.7295923452606399,13.178704318936866
0.7305890561148211,2.178704318936866
0.7315857669690022,-6.821295681063134
0.7325824778231834,-4.821295681063134
0.7335791886773646,-15.821295681063134
0.7345758995315458,-22.821295681063134
0.7355726103857271,-9.821295681063134
0.7365693212399083,-0.821295681063134
0.7375660320940894,-8.821295681063134
0.7385627429482706,-14.821295681063134
0.7395594538024518,-10.821295681063134
0.7405561646566331,-12.821295681063134
0.7415528755108143,-14.821295681063134
0.7425495863649955,-14.821295681063134
0.7435462972191766,-19.821295681063134
0.7445430080733578,-5.821295681063134
0.745539718927539,1.178704318936866
0.7465364297817203,4.178704318936866
0.7475331406359015,17.178704318936866
0.7485298514900827,13.178704318936866
0.7495265623442638,19.178704318936866
0.750523273198445,20.178704318936866
0.7515199840526262,9.178704318936866
0.7525166949068075,4.178704318936866
0.7535134057609887,6.178704318936866
0.7545101166151699,3.178704318936866
0.755506827469351,-3.821295681063134
0.7565035383235322,-7.821295681063134
0.7575002491777135,-14.821295681063134
0.7584969600318947,-9.821295681063134
0.7594936708860759,-6.821295681063134
0.7604903817402571,-4.821295681063134
0.7614870925944383,0.178704318936866
0.7624838034486194,-2.821295681063134
0.7634805143028007,-10.821295681063134
0.7644772251569819,2.178704318936866
0.7654739360111631,10.178704318936866
0.7664706468653443,15.178704318936866
0.7674673577195255,11.178704318936866
0.7684640685737067,17.178704318936866
0.7694607794278879,19.178704318936866
0.7704574902820691,24.178704318936866
0.7714542011362503,8.178704318936866
0.7724509119904315,-9.821295681063134
0.7734476228446127,-8.821295681063134
0.774444333698794,-15.821295681063134
0.7754410445529751,-20.821295681063134
0.7764377554071563,-30.821295681063134
0.7774344662613375,-23.821295681063134
0.7784311771155187,-12.821295681063134
0.7794278879697,-2.821295681063134
0.7804245988238812,3.178704318936866
0.7814213096780623,5.178704318936866
0.7824180205322435,-0.821295681063134
0.7834147313864247,-2.821295681063134
0.7844114422406059,-4.821295681063134
0.7854081530947872,-9.821295681063134
0.7864048639489684,-2.821295681063134
0.7874015748031495,3.178704318936866
0.7883982856573307,4.178704318936866
0.7893949965115119,14.178704318936866
0.7903917073656931,19.178704318936866
0.7913884182198744,-0.821295681063134
0.7923851290740556,-7.821295681063134
0.7933818399282367,-2.821295681063134
0.7943785507824179,0.178704318936866
0.7953752616365991,8.178704318936866
0.7963719724907804,18.178704318936866
0.7973686833449616,9.178704318936866
0.7983653941991428,17.178704318936866
0.799362105053324,13.178704318936866
0.8003588159075051,12.178704318936866
0.8013555267616863,6.178704318936866
0.8023522376158676,-4.821295681063134
0.8033489484700488,-13.821295681063134
0.80434565932423,-14.821295681063134
0.8053423701784111,-11.821295681063134
0.8063390810325923,-7.821295681063134
0.8073357918867736,8.178704318936866
0.8083325027409548,2.178704318936866
0.809329213595136,0.178704318936866
0.8103259244493172,8.178704318936866
0.8113226353034984,9.178704318936866
0.8123193461576795,-7.821295681063134
0.8133160570118608,-3.821295681063134
0.814312767866042,4.178704318936866
0.8153094787202232,0.178704318936866
0.8163061895744044,6.178704318936866
0.8173029004285856,5.178704318936866
0.8182996112827668,-2.821295681063134
0.819296322136948,-6.821295681063134
0.8202930329911292,-4.821295681063134
0.8212897438453104,-7.821295681063134
0.8222864546994916,-8.821295681063134
0.8232831655536728,-16.821295681063134
0.824279876407854,-26.821295681063134
0.8252765872620352,-19.821295681063134
0.8262732981162164,-14.821295681063134
0.8272700089703976,-3.821295681063134
0.8282667198245788,17.178704318936866
0.8292634306787601,29.178704318936866
0.8302601415329413,33.178704318936866
0.8312568523871224,21.178704318936866
0.8322535632413036,20.178704318936866
0.8332502740954848,9.178704318936866
0.834246984949666,1.178704318936866
0.8352436958038473,-1.821295681063134
0.8362404066580285,-1.821295681063134
0.8372371175122096,-2.821295681063134
0.8382338283663908,-12.821295681063134
0.839230539220572,-19.821295681063134
0.8402272500747532,-23.821295681063134
0.8412239609289345,-24.821295681063134
0.8422206717831157,-5.821295681063134
0.8432173826372968,13.178704318936866
0.844214093491478,8.178704318936866
0.8452108043456592,4.178704318936866
0.8462075151998405,4.178704318936866
0.8472042260540217,3.178704318936866
0.8482009369082029,5.178704318936866
0.849197647762384,3.178704318936866
0.8501943586165652,-12.821295681063134
0.8511910694707464,-19.821295681063134
0.8521877803249277,-2.821295681063134
0.8531844911791089,9.178704318936866
0.8541812020332901,5.178704318936866
0.8551779128874712,6.178704318936866
0.8561746237416524,-2.821295681063134
0.8571713345958337,-5.821295681063134
0.8581680454500149,-13.821295681063134
0.8591647563041961,-7.821295681063134
0.8601614671583773,-3.821295681063134
0.8611581780125585,-4.821295681063134
0.8621548888667396,-5.821295681063134
0.8631515997209209,4.178704318936866
0.8641483105751021,15.178704318936866
0.8651450214292833,11.178704318936866
0.8661417322834645,19.178704318936866
0.8671384431376457,12.178704318936866
0.868135153991827,7.178704318936866
0.8691318648460081,4.178704318936866
0.8701285757001893,-0.821295681063134
0.8711252865543705,4.178704318936866
0.8721219974085517,1.178704318936866
0.8731187082627329,-6.821295681063134
0.8741154191169141,-15.821295681063134
0.8751121299710953,-3.821295681063134
0.8761088408252765,9.178704318936866
0.8771055516794577,13.178704318936866
0.8781022625336389,15.178704318936866
0.8790989733878201,14.178704318936866
0.8800956842420014,5.178704318936866
0.8810923950961825,-4.821295681063134
0.8820891059503637,-12.821295681063134
0.8830858168045449,-10.821295681063134
0.8840825276587261,-14.821295681063134
0.8850792385129074,-11.821295681063134
0.8860759493670886,-13.821295681063134
0.8870726602212697,-11.821295681063134
0.8880693710754509,7.178704318936866
0.8890660819296321,10.178704318936866
0.8900627927838133,11.178704318936866
0.8910595036379946,7.178704318936866
0.8920562144921758,5.178704318936866
0.8930529253463569,0.178704318936866
0.8940496362005381,-2.821295681063134
0.8950463470547193,10.178704318936866
0.8960430579089006,4.178704318936866
0.8970397687630818,-3.821295681063134
0.898036479617263,-7.821295681063134
0.8990331904714441,-20.821295681063134
0.9000299013256253,-25.821295681063134
0.9010266121798065,-20.821295681063134
0.9020233230339878,-8.821295681063134
0.903020033888169,0.178704318936866
0.9040167447423502,0.178704318936866
0.9050134555965313,16.178704318936866
0.9060101664507125,10.178704318936866
0.9070068773048938,10.178704318936866
0.908003588159075,4.178704318936866
0.9090002990132562,12.178704318936866
0.9099970098674374,10.178704318936866
0.9109937207216185,14.178704318936866
0.9119904315757997,8.178704318936866
0.912987142429981,2.178704318936866
0.9139838532841622,-2.821295681063134
0.9149805641383434,-9.821295681063134
0.9159772749925246,-8.821295681063134
0.9169739858467058,-2.821295681063134
0.9179706967008869,-8.821295681063134
0.9189674075550682,-3.821295681063134
0.9199641184092494,4.178704318936866
0.9209608292634306,-0.821295681063134
0.9219575401176118,5.178704318936866
0.922954250971793,5.178704318936866
0.9239509618259742,-5.821295681063134
0.9249476726801554,2.178704318936866
0.9259443835343366,0.178704318936866
0.9269410943885178,-0.821295681063134
0.927937805242699,1.178704318936866
0.9289345160968802,3.178704318936866
0.9299312269510615,12.178704318936866
0.9309279378052426,10.178704318936866
0.9319246486594238,3.178704318936866
0.932921359513605,-2.821295681063134
0.9339180703677862,-6.821295681063134
0.9349147812219675,0.178704318936866
0.9359114920761487,5.178704318936866
0.9369082029303298,3.178704318936866
0.937904913784511,10.178704318936866
0.9389016246386922,5.178704318936866
0.9398983354928734,-2.821295681063134
0.9408950463470547,0.178704318936866
0.9418917572012359,-11.821295681063134
0.942888468055417,-16.821295681063134
0.9438851789095982,-11.821295681063134
0.9448818897637794,-10.821295681063134
0.9458786006179607,-10.821295681063134
0.9468753114721419,-6.821295681063134
0.9478720223263231,-6.821295681063134
0.9488687331805042,2.178704318936866
0.9498654440346854,3.178704318936866
0.9508621548888666,15.178704318936866
0.9518588657430479,27.178704318936866
0.9528555765972291,23.178704318936866
0.9538522874514103,12.178704318936866
0.9548489983055914,7.178704318936866
0.9558457091597726,-7.821295681063134
0.9568424200139538,-26.821295681063134
0.9578391308681351,-22.821295681063134
0.9588358417223163,-19.821295681063134
0.9598325525764975,-14.821295681063134
0.9608292634306786,-13.821295681063134
0.9618259742848598,-15.821295681063134
0.9628226851390411,-10.821295681063134
0.9638193959932223,3.178704318936866
0.9648161068474035,11.178704318936866
0.9658128177015847,22.178704318936866
0.9668095285557659,21.178704318936866
0.967806239409947,22.178704318936866
0.9688029502641283,17.178704318936866
0.9697996611183095,14.178704318936866
0.9707963719724907,2.178704318936866
0.9717930828266719,-1.821295681063134
0.972789793680853,-4.821295681063134
0.9737865045350343,-0.821295681063134
0.9747832153892155,-2.821295681063134
0.9757799262433967,-7.821295681063134
0.9767766370975779,-9.821295681063134
0.9777733479517591,8.178704318936866
0.9787700588059403,11.178704318936866
0.9797667696601216,2.178704318936866
0.9807634805143027,-19.821295681063134
0.9817601913684839,-24.821295681063134
0.9827569022226651,-16.821295681063134
0.9837536130768463,-7.821295681063134
0.9847503239310276,-1.821295681063134
0.9857470347852088,5.178704318936866
0.9867437456393899,12.178704318936866
0.9877404564935711,12.178704318936866
0.9887371673477523,10.178704318936866
0.9897338782019335,9.178704318936866
0.9907305890561148,5.178704318936866
0.991727299910296,12.178704318936866
0.9927240107644771,10.178704318936866
0.9937207216186583,9.178704318936866
0.9947174324728395,18.178704318936866
0.9957141433270208,16.178704318936866
0.996710854181202,6.178704318936866
0.9977075650353832,4.178704318936866
0.9987042758895643,-13.821295681063134
0.9997009867437455,-23.821295681063134
1.0006976975979267,-12.821295681063134
1.001694408452108,-7.821295681063134
1.002691119306289,-6.821295681063134
1.0036878301604704,-7.821295681063134
1.0046845410146517,-2.821295681063134
1.0056812518688327,8.178704318936866
1.006677962723014,16.178704318936866
1.007674673577195,17.178704318936866
1.0086713844313764,-2.821295681063134
1.0096680952855577,-2.821295681063134
1.0106648061397387,-11.821295681063134
1.01166151699392,-31.821295681063134
1.0126582278481011,-23.821295681063134
1.0136549387022824,-12.821295681063134
1.0146516495564635,-7.821295681063134
1.0156483604106448,-12.821295681063134
1.016645071264826,0.178704318936866
1.0176417821190071,15.178704318936866
1.0186384929731884,17.178704318936866
1.0196352038273695,9.178704318936866
1.0206319146815508,3.178704318936866
1.021628625535732,0.178704318936866
1.0226253363899132,-1.821295681063134
1.0236220472440944,-16.821295681063134
1.0246187580982755,-7.821295681063134
1.0256154689524568,4.178704318936866
1.026612179806638,14.178704318936866
1.0276088906608192,18.178704318936866
1.0286056015150005,13.178704318936866
1.0296023123691815,6.178704318936866
1.0305990232233628,11.178704318936866
1.031595734077544,3.178704318936866
1.0325924449317252,4.178704318936866
1.0335891557859065,5.178704318936866
1.0345858666400876,1.178704318936866
1.0355825774942689,2.178704318936866
1.03657928834845,-2.821295681063134
1.0375759992026312,-6.821295681063134
1.0385727100568125,-8.821295681063134
1.0395694209109936,-15.821295681063134
1.0405661317651749,-15.821295681063134
1.041562842619356,-22.821295681063134
1.0425595534735372,-26.821295681063134
1.0435562643277185,-27.821295681063134
1.0445529751818996,-16.821295681063134
1.045549686036081,4.178704318936866
1.046546396890262,11.178704318936866
1.0475431077444433,8.178704318936866
1.0485398185986246,11.178704318936866
1.0495365294528056,8.178704318936866
1.050533240306987,1.178704318936866
1.051529951161168,7.178704318936866
1.0525266620153493,16.178704318936866
1.0535233728695304,20.178704318936866
1.0545200837237116,8.178704318936866
1.055516794577893,0.178704318936866
1.056513505432074,-6.821295681063134
1.0575102162862553,-17.821295681063134
1.0585069271404364,-14.821295681063134
1.0595036379946177,-16.821295681063134
1.060500348848799,-14.821295681063134
1.06149705970298,-0.821295681063134
1.0624937705571613,6.178704318936866
1.0634904814113424,8.178704318936866
1.0644871922655237,14.178704318936866
1.065483903119705,20.178704318936866
1.066480613973886,26.178704318936866
1.0674773248280673,20.178704318936866
1.0684740356822484,16.178704318936866
1.0694707465364297,14.178704318936866
1.0704674573906108,20.178704318936866
1.071464168244792,12.178704318936866
1.0724608790989734,6.178704318936866
1.0734575899531544,-2.821295681063134
1.0744543008073357,-15.821295681063134
1.0754510116615168,-21.821295681063134
1.076447722515698,-21.821295681063134
1.0774444333698794,-13.821295681063134
1.0784411442240605,1.178704318936866
1.0794378550782417,-5.821295681063134
1.0804345659324228,-17.821295681063134
1.0814312767866041,-6.821295681063134
1.0824279876407854,-4.821295681063134
1.0834246984949665,-9.821295681063134
1.0844214093491478,-4.821295681063134
1.0854181202033288,1.178704318936866
1.0864148310575101,-1.821295681063134
1.0874115419116914,6.178704318936866
1.0884082527658725,12.178704318936866
1.0894049636200538,13.178704318936866
1.0904016744742349,2.178704318936866
1.0913983853284162,0.178704318936866
1.0923950961825972,-2.821295681063134
1.0933918070367785,-1.821295681063134
1.0943885178909598,2.178704318936866
1.0953852287451409,-5.821295681063134
1.0963819395993222,1.178704318936866
1.0973786504535032,5.178704318936866
1.0983753613076845,-1.821295681063134
1.0993720721618658,-2.821295681063134
1.100368783016047,-5.821295681063134
1.1013654938702282,2.178704318936866
1.1023622047244093,-0.821295681063134
1.1033589155785906,-4.821295681063134
1.1043556264327719,8.178704318936866
1.105352337286953,10.178704318936866
1.1063490481411342,22.178704318936866
1.1073457589953153,29.178704318936866
1.1083424698494966,20.178704318936866
1.1093391807036777,5.178704318936866
1.110335891557859,-13.821295681063134
1.1113326024120402,-18.821295681063134
1.1123293132662213,-14.821295681063134
1.1133260241204026,-17.821295681063134
1.1143227349745837,-2.821295681063134
1.115319445828765,-5.821295681063134
1.1163161566829463,-7.821295681063134
1.1173128675371273,-10.821295681063134
1.1183095783913086,-8.821295681063134
1.1193062892454897,-9.821295681063134
1.120303000099671,-25.821295681063134
1.1212997109538523,-19.821295681063134
1.1222964218080334,0.178704318936866
1.1232931326622146,6.178704318936866
1.1242898435163957,22.178704318936866
1.125286554370577,27.178704318936866
1.1262832652247583,22.178704318936866
1.1272799760789394,14.178704318936866
1.1282766869331207,8.178704318936866
1.1292733977873017,-4.821295681063134
1.130270108641483,-3.821295681063134
1.131266819495664,-5.821295681063134
1.1322635303498454,-2.821295681063134
1.1332602412040267,-3.821295681063134
1.1342569520582078,-2.821295681063134
1.135253662912389,0.178704318936866
1.1362503737665701,-3.821295681063134
1.1372470846207514,2.178704318936866
1.1382437954749327,-2.821295681063134
1.1392405063291138,-2.821295681063134
1.140237217183295,3.178704318936866
1.1412339280374761,-10.821295681063134
1.1422306388916574,-11.821295681063134
1.1432273497458387,-5.821295681063134
1.1442240606000198,-5.821295681063134
1.145220771454201,3.178704318936866
1.1462174823083822,14.178704318936866
1.1472141931625635,16.178704318936866
1.1482109040167447,21.178704318936866
1.1492076148709258,26.178704318936866
1.1502043257251071,14.178704318936866
1.1512010365792882,0.178704318936866
1.1521977474334695,-18.821295681063134
1.1531944582876505,-26.821295681063134
1.1541911691418318,-30.821295681063134
1.1551878799960131,-27.821295681063134
1.1561845908501942,-19.821295681063134
1.1571813017043755,5.178704318936866
1.1581780125585566,19.178704318936866
1.1591747234127379,25.178704318936866
1.1601714342669192,29.178704318936866
1.1611681451211002,25.178704318936866
1.1621648559752815,16.178704318936866
1.1631615668294626,7.178704318936866
1.1641582776836439,6.178704318936866
1.1651549885378252,-0.821295681063134
1.1661516993920062,-0.821295681063134
1.1671484102461875,-7.821295681063134
1.1681451211003686,-4.821295681063134
1.16914183195455,-4.821295681063134
1.170138542808731,-10.821295681063134
1.1711352536629123,-4.821295681063134
1.1721319645170936,-10.821295681063134
1.1731286753712746,-6.821295681063134
1.174125386225456,5.178704318936866
1.175122097079637,1.178704318936866
1.1761188079338183,-7.821295681063134
1.1771155187879996,-11.821295681063134
1.1781122296421807,-12.821295681063134
1.179108940496362,-9.821295681063134
1.180105651350543,-0.821295681063134
1.1811023622047243,6.178704318936866
1.1820990730589056,4.178704318936866
1.1830957839130867,5.178704318936866
1.184092494767268,-3.821295681063134
1.185089205621449,-8.821295681063134
1.1860859164756303,-14.821295681063134
1.1870826273298116,-12.821295681063134
1.1880793381839927,3.178704318936866
1.189076049038174,7.178704318936866
1.190072759892355,9.178704318936866
1.1910694707465364,4.178704318936866
1.1920661816007174,11.178704318936866
1.1930628924548987,13.178704318936866
1.19405960330908,11.178704318936866
1.195056314163261,-4.821295681063134
1.1960530250174424,-7.821295681063134
1.1970497358716234,-13.821295681063134
1.1980464467258047,-19.821295681063134
1.199043157579986,-12.821295681063134
1.200039868434167,-2.821295681063134
1.2010365792883484,6.178704318936866
1.2020332901425295,7.178704318936866
1.2030300009967108,3.178704318936866
1.204026711850892,12.178704318936866
1.2050234227050731,11.178704318936866
1.2060201335592544,17.178704318936866
1.2070168444134355,16.178704318936866
1.2080135552676168,12.178704318936866
1.2090102661217978,16.178704318936866
1.2100069769759791,22.178704318936866
1.2110036878301604,9.178704318936866
1.2120003986843415,-6.821295681063134
1.2129971095385228,-9.821295681063134
1.2139938203927039,-1.821295681063134
1.2149905312468852,-7.821295681063134
1.2159872421010665,-7.821295681063134
1.2169839529552475,-22.821295681063134
1.2179806638094288,-23.821295681063134
1.21897737466361,-24.821295681063134
1.2199740855177912,-33.821295681063134
1.2209707963719725,-22.821295681063134
1.2219675072261535,-8.821295681063134
1.2229642180803348,1.178704318936866
1.223960928934516,11.178704318936866
1.2249576397886972,14.178704318936866
1.2259543506428785,17.178704318936866
1.2269510614970596,16.178704318936866
1.2279477723512409,14.178704318936866
1.228944483205422,12.178704318936866
1.2299411940596032,7.178704318936866
1.2309379049137843,5.178704318936866
1.2319346157679656,7.178704318936866
1.2329313266221469,9.178704318936866
1.233928037476328,11.178704318936866
1.2349247483305092,4.178704318936866
1.2359214591846903,-2.821295681063134
1.2369181700388716,-4.821295681063134
1.237914880893053,-16.821295681063134
1.238911591747234,-18.821295681063134
1.2399083026014153,-14.821295681063134
1.2409050134555963,-17.821295681063134
1.2419017243097776,-6.821295681063134
1.242898435163959,-7.821295681063134
1.24389514601814,-8.821295681063134
1.2448918568723213,0.178704318936866
1.2458885677265024,9.178704318936866
1.2468852785806837,10.178704318936866
1.2478819894348647,17.178704318936866
1.248878700289046,9.178704318936866
1.2498754111432273,-1.821295681063134
1.2508721219974084,-2.821295681063134
1.2518688328515897,-0.821295681063134
1.2528655437057707,16.178704318936866
1.253862254559952,0.178704318936866
1.2548589654141333,-4.821295681063134
1.2558556762683144,-4.821295681063134
1.2568523871224957,-4.821295681063134
1.2578490979766768,-6.821295681063134
1.258845808830858,0.178704318936866
1.2598425196850394,5.178704318936866
1.2608392305392204,0.178704318936866
1.2618359413934017,0.178704318936866
1.2628326522475828,-1.821295681063134
1.263829363101764,1.178704318936866
1.2648260739559454,4.178704318936866
1.2658227848101264,-10.821295681063134
1.2668194956643077,1.178704318936866
1.2678162065184888,11.178704318936866
1.26881291737267,21.178704318936866
1.2698096282268512,24.178704318936866
1.2708063390810325,24.178704318936866
1.2718030499352138,26.178704318936866
1.2727997607893948,11.178704318936866
1.2737964716435761,3.178704318936866
1.2747931824977572,-8.821295681063134
1.2757898933519385,-15.821295681063134
1.2767866042061198,-10.821295681063134
1.2777833150603009,-0.821295681063134
1.2787800259144821,-6.821295681063134
1.2797767367686632,-18.821295681063134
1.2807734476228445,-13.821295681063134
1.2817701584770258,-12.821295681063134
1.2827668693312069,-12.821295681063134
1.2837635801853882,-9.821295681063134
1.2847602910395692,1.178704318936866
1.2857570018937505,-2.821295681063134
1.2867537127479316,0.178704318936866
1.287750423602113,1.178704318936866
1.2887471344562942,5.178704318936866
1.2897438453104753,4.178704318936866
1.2907405561646565,13.178704318936866
1.2917372670188376,21.178704318936866
1.292733977873019,13.178704318936866
1.2937306887272002,7.178704318936866
1.2947273995813813,-0.821295681063134
1.2957241104355626,-2.821295681063134
1.2967208212897436,-3.821295681063134
1.297717532143925,-7.821295681063134
1.2987142429981062,-13.821295681063134
1.2997109538522873,-17.821295681063134
1.3007076647064686,-8.821295681063134
1.3017043755606497,3.178704318936866
1.302701086414831,3.178704318936866
1.3036977972690122,3.178704318936866
1.3046945081231933,8.178704318936866
1.3056912189773746,10.178704318936866
1.3066879298315557,-1.821295681063134
1.307684640685737,-2.821295681063134
1.308681351539918,0.178704318936866
1.3096780623940993,3.178704318936866
1.3106747732482806,1.178704318936866
1.3116714841024617,1.178704318936866
1.312668194956643,-1.821295681063134
1.313664905810824,3.178704318936866
1.3146616166650054,-9.821295681063134
1.3156583275191867,-10.821295681063134
1.3166550383733677,-15.821295681063134
1.317651749227549,-16.821295681063134
1.31864846008173,-12.821295681063134
1.3196451709359114,-14.821295681063134
1.3206418817900927,-8.821295681063134
1.3216385926442737,5.178704318936866
1.322635303498455,15.178704318936866
1.323632014352636,20.178704318936866
1.3246287252068174,17.178704318936866
1.3256254360609985,10.178704318936866
1.3266221469151798,10.178704318936866
1.327618857769361,12.178704318936866
1.3286155686235421,1.178704318936866
1.3296122794777234,-0.821295681063134
1.3306089903319045,1.178704318936866
1.3316057011860858,-4.821295681063134
1.332602412040267,-4.821295681063134
1.3335991228944482,-3.821295681063134
1.3345958337486294,1.178704318936866
1.3355925446028105,1.178704318936866
1.3365892554569918,11.178704318936866
1.337585966311173,9.178704318936866
1.3385826771653542,6.178704318936866
1.3395793880195355,-5.821295681063134
1.3405760988737165,-10.821295681063134
1.3415728097278978,-5.821295681063134
1.3425695205820791,-3.821295681063134
1.3435662314362602,-7.821295681063134
1.3445629422904415,-2.821295681063134
1.3455596531446226,-8.821295681063134
1.3465563639988039,-2.821295681063134
1.347553074852985,6.178704318936866
1.3485497857071662,6.178704318936866
1.3495464965613475,3.178704318936866
1.3505432074155286,-0.821295681063134
1.3515399182697099,4.178704318936866
1.352536629123891,4.178704318936866
1.3535333399780722,6.178704318936866
1.3545300508322535,-2.821295681063134
1.3555267616864346,-7.821295681063134
1.356523472540616,-19.821295681063134
1.357520183394797,-20.821295681063134
1.3585168942489783,-20.821295681063134
1.3595136051031596,-6.821295681063134
1.3605103159573406,2.178704318936866
1.361507026811522,9.178704318936866
1.362503737665703,15.178704318936866
1.3635004485198843,16.178704318936866
1.3644971593740653,12.178704318936866
1.3654938702282466,14.178704318936866
1.366490581082428,2.178704318936866
1.367487291936609,0.178704318936866
1.3684840027907903,0.178704318936866
1.3694807136449714,7.178704318936866
1.3704774244991527,13.178704318936866
1.371474135353334,-2.821295681063134
1.372470846207515,-20.821295681063134
1.3734675570616963,-17.821295681063134
1.3744642679158774,-6.821295681063134
1.3754609787700587,6.178704318936866
1.37645768962424,19.178704318936866
1.377454400478421,21.178704318936866
1.3784511113326023,12.178704318936866
1.3794478221867834,-2.821295681063134
1.3804445330409647,-8.821295681063134
1.381441243895146,-6.821295681063134
1.382437954749327,2.178704318936866
1.3834346656035084,5.178704318936866
1.3844313764576894,7.178704318936866
1.3854280873118707,5.178704318936866
1.3864247981660518,-3.821295681063134
1.387421509020233,-6.821295681063134
1.3884182198744144,-18.821295681063134
1.3894149307285955,-16.821295681063134
1.3904116415827767,-2.821295681063134
1.3914083524369578,3.178704318936866
1.3924050632911391,12.178704318936866
1.3934017741453204,14.178704318936866
1.3943984849995015,15.178704318936866
1.3953951958536828,-2.821295681063134
1.3963919067078638,-6.821295681063134
1.3973886175620451,-18.821295681063134
1.3983853284162264,-22.821295681063134
1.3993820392704075,-23.821295681063134
1.4003787501245888,-15.821295681063134
1.4013754609787699,-11.821295681063134
1.4023721718329512,-11.821295681063134
1.4033688826871322,-5.821295681063134
1.4043655935413135,-0.821295681063134
1.4053623043954948,4.178704318936866
1.4063590152496759,10.178704318936866
1.4073557261038572,20.178704318936866
1.4083524369580382,22.178704318936866
1.4093491478122195,18.178704318936866
1.4103458586664008,2.178704318936866
1.411342569520582,0.178704318936866
1.4123392803747632,-10.821295681063134
1.4133359912289443,-15.821295681063134
1.4143327020831256,-5.821295681063134
1.4153294129373069,8.178704318936866
1.416326123791488,11.178704318936866
1.4173228346456692,17.178704318936866
1.4183195454998503,29.178704318936866
1.4193162563540316,16.178704318936866
1.4203129672082129,8.178704318936866
1.421309678062394,-10.821295681063134
1.4223063889165752,-12.821295681063134
1.4233030997707563,-2.821295681063134
1.4242998106249376,3.178704318936866
1.4252965214791187,16.178704318936866
1.4262932323333,22.178704318936866
1.4272899431874813,22.178704318936866
1.4282866540416623,21.178704318936866
1.4292833648958436,10.178704318936866
1.4302800757500247,7.178704318936866
1.431276786604206,-3.821295681063134
1.4322734974583873,-10.821295681063134
1.4332702083125684,-20.821295681063134
1.4342669191667496,-29.821295681063134
1.4352636300209307,-34.821295681063134
1.436260340875112,-30.821295681063134
1.4372570517292933,-19.821295681063134
1.4382537625834744,-11.821295681063134
1.4392504734376557,-7.821295681063134
1.4402471842918367,-4.821295681063134
1.441243895146018,-8.821295681063134
1.4422406060001993,6.178704318936866
1.4432373168543804,19.178704318936866
1.4442340277085617,17.178704318936866
1.4452307385627428,2.178704318936866
1.446227449416924,5.178704318936866
1.4472241602711051,-2.821295681063134
1.4482208711252864,-5.821295681063134
1.4492175819794677,-1.821295681063134
1.4502142928336488,-5.821295681063134
1.45121100368783,-8.821295681063134
1.4522077145420111,-0.821295681063134
1.4532044253961924,-3.821295681063134
1.4542011362503737,-3.821295681063134
1.4551978471045548,-1.821295681063134
1.456194557958736,2.178704318936866
1.4571912688129172,3.178704318936866
1.4581879796670985,12.178704318936866
1.4591846905212797,8.178704318936866
1.4601814013754608,14.178704318936866
1.4611781122296421,12.178704318936866
1.4621748230838232,14.178704318936866
1.4631715339380045,12.178704318936866
1.4641682447921855,17.178704318936866
1.4651649556463668,13.178704318936866
1.4661616665005481,11.178704318936866
1.4671583773547292,16.178704318936866
1.4681550882089105,13.178704318936866
1.4691517990630916,5.178704318936866
1.4701485099172729,-12.821295681063134
1.4711452207714542,-30.821295681063134
1.4721419316256352,-24.821295681063134
1.4731386424798165,-11.821295681063134
1.4741353533339976,-8.821295681063134
1.4751320641881789,-12.821295681063134
1.4761287750423602,-6.821295681063134
1.4771254858965412,-9.821295681063134
1.4781221967507225,-0.821295681063134
1.4791189076049036,12.178704318936866
1.480115618459085,18.178704318936866
1.4811123293132662,10.178704318936866
1.4821090401674473,2.178704318936866
1.4831057510216286,-2.821295681063134
1.4841024618758096,0.178704318936866
1.485099172729991,5.178704318936866
1.486095883584172,2.178704318936866
1.4870925944383533,7.178704318936866
1.4880893052925346,-2.821295681063134
1.4890860161467157,0.178704318936866
1.490082727000897,-9.821295681063134
1.491079437855078,-11.821295681063134
1.4920761487092593,-15.821295681063134
1.4930728595634406,-22.821295681063134
1.4940695704176217,-13.821295681063134
1.495066281271803,-0.821295681063134
1.496062992125984,-0.821295681063134
1.4970597029801653,-6.821295681063134
1.4980564138343466,-19.821295681063134
1.4990531246885277,-18.821295681063134
1.500049835542709,-6.821295681063134
1.50104654639689,10.178704318936866
1.5020432572510714,9.178704318936866
1.5030399681052524,23.178704318936866
1.5040366789594337,25.178704318936866
1.505033389813615,24.178704318936866
1.506030100667796,15.178704318936866
1.5070268115219774,3.178704318936866
1.5080235223761584,5.178704318936866
1.5090202332303397,5.178704318936866
1.510016944084521,4.178704318936866
1.511013654938702,-2.821295681063134
1.5120103657928834,-5.821295681063134
1.5130070766470645,-2.821295681063134
1.5140037875012458,-15.821295681063134
1.515000498355427,-15.821295681063134
1.5159972092096081,-26.821295681063134
1.5169939200637894,-20.821295681063134
1.5179906309179705,-12.821295681063134
1.5189873417721518,-14.821295681063134
1.519984052626333,-10.821295681063134
1.5209807634805141,-7.821295681063134
1.5219774743346954,6.178704318936866
1.5229741851888765,15.178704318936866
1.5239708960430578,21.178704318936866
1.5249676068972389,30.178704318936866
1.5259643177514202,18.178704318936866
1.5269610286056015,11.178704318936866
1.5279577394597825,9.178704318936866
1.5289544503139638,5.178704318936866
1.529951161168145,13.178704318936866
1.5309478720223262,3.178704318936866
1.5319445828765075,0.178704318936866
1.5329412937306885,-10.821295681063134
1.5339380045848698,-3.821295681063134
1.534934715439051,-9.821295681063134
1.5359314262932322,-10.821295681063134
1.5369281371474135,-10.821295681063134
1.5379248480015946,-10.821295681063134
1.5389215588557759,-4.821295681063134
1.539918269709957,8.178704318936866
1.5409149805641382,12.178704318936866
1.5419116914183193,13.178704318936866
1.5429084022725006,10.178704318936866
1.5439051131266819,5.178704318936866
1.544901823980863,-1.821295681063134
1.5458985348350442,1.178704318936866
1.5468952456892253,8.178704318936866
1.5478919565434066,4.178704318936866
1.548888667397588,6.178704318936866
1.549885378251769,15.178704318936866
1.5508820891059503,17.178704318936866
1.5518787999601313,18.178704318936866
1.5528755108143126,13.178704318936866
1.553872221668494,9.178704318936866
1.554868932522675,-0.821295681063134
1.5558656433768563,-15.821295681063134
1.5568623542310374,-25.821295681063134
1.5578590650852187,-30.821295681063134
1.5588557759394,-19.821295681063134
1.559852486793581,-10.821295681063134
1.5608491976477623,-15.821295681063134
1.5618459085019434,-13.821295681063134
1.5628426193561247,-4.821295681063134
1.5638393302103057,-4.821295681063134
1.564836041064487,7.178704318936866
1.5658327519186683,18.178704318936866
1.5668294627728494,13.178704318936866
1.5678261736270307,14.178704318936866
1.5688228844812118,8.178704318936866
1.569819595335393,3.178704318936866
1.5708163061895744,-4.821295681063134
1.5718130170437554,-10.821295681063134
1.5728097278979367,-2.821295681063134
1.5738064387521178,4.178704318936866
1.574803149606299,2.178704318936866
1.5757998604604804,4.178704318936866
1.5767965713146614,1.178704318936866
1.5777932821688427,6.178704318936866
1.5787899930230238,4.178704318936866
1.579786703877205,-3.821295681063134
1.5807834147313862,-1.821295681063134
1.5817801255855675,-0.821295681063134
1.5827768364397488,1.178704318936866
1.5837735472939298,11.178704318936866
1.5847702581481111,7.178704318936866
1.5857669690022922,2.178704318936866
1.5867636798564735,-2.821295681063134
1.5877603907106548,2.178704318936866
1.5887571015648358,1.178704318936866
1.5897538124190171,6.178704318936866
1.5907505232731982,18.178704318936866
1.5917472341273795,13.178704318936866
1.5927439449815608,-0.821295681063134
1.5937406558357419,-7.821295681063134
1.5947373666899232,-15.821295681063134
1.5957340775441042,-26.821295681063134
1.5967307883982855,-27.821295681063134
1.5977274992524668,-31.821295681063134
1.598724210106648,-30.821295681063134
1.5997209209608292,-20.821295681063134
1.6007176318150103,-2.821295681063134
1.6017143426691915,9.178704318936866
1.6027110535233726,16.178704318936866
1.603707764377554,20.178704318936866
1.6047044752317352,21.178704318936866
1.6057011860859163,17.178704318936866
1.6066978969400976,8.178704318936866
1.6076946077942786,3.178704318936866
1.60869131864846,8.178704318936866
1.6096880295026412,-0.821295681063134
1.6106847403568223,-6.821295681063134
1.6116814512110036,-6.821295681063134
1.6126781620651847,2.178704318936866
1.613674872919366,1.178704318936866
1.6146715837735472,-4.821295681063134
1.6156682946277283,-6.821295681063134
1.6166650054819096,-19.821295681063134
1.6176617163360907,-21.821295681063134
1.618658427190272,-13.821295681063134
1.619655138044453,-6.821295681063134
1.6206518488986343,-2.821295681063134
1.6216485597528156,1.178704318936866
1.6226452706069967,11.178704318936866
1.623641981461178,17.178704318936866
1.624638692315359,19.178704318936866
1.6256354031695404,20.178704318936866
1.6266321140237217,15.178704318936866
1.6276288248779027,19.178704318936866
1.628625535732084,21.178704318936866
1.629622246586265,19.178704318936866
1.6306189574404464,20.178704318936866
1.6316156682946277,9.178704318936866
1.6326123791488087,0.178704318936866
1.63360909000299,2.178704318936866
1.634605800857171,-8.821295681063134
1.6356025117113524,-6.821295681063134
1.6365992225655337,-3.821295681063134
1.6375959334197148,-2.821295681063134
1.638592644273896,0.178704318936866
1.6395893551280771,-14.821295681063134
1.6405860659822584,-8.821295681063134
1.6415827768364395,-9.821295681063134
1.6425794876906208,-11.821295681063134
1.643576198544802,-23.821295681063134
1.6445729093989832,-22.821295681063134
1.6455696202531644,-16.821295681063134
1.6465663311073455,-9.821295681063134
1.6475630419615268,6.178704318936866
1.648559752815708,4.178704318936866
1.6495564636698892,4.178704318936866
1.6505531745240705,4.178704318936866
1.6515498853782515,18.178704318936866
1.6525465962324328,26.178704318936866
1.6535433070866141,10.178704318936866
1.6545400179407952,-2.821295681063134
1.6555367287949765,-12.821295681063134
1.6565334396491576,-12.821295681063134
1.6575301505033389,-11.821295681063134
1.6585268613575201,-8.821295681063134
1.6595235722117012,-2.821295681063134
1.6605202830658825,-15.821295681063134
1.6615169939200636,-17.821295681063134
1.6625137047742449,-20.821295681063134
1.663510415628426,-13.821295681063134
1.6645071264826072,-2.821295681063134
1.6655038373367885,3.178704318936866
1.6665005481909696,10.178704318936866
1.667497259045151,8.178704318936866
1.668493969899332,12.178704318936866
1.6694906807535133,24.178704318936866
1.6704873916076945,27.178704318936866
1.6714841024618756,30.178704318936866
1.672480813316057,17.178704318936866
1.673477524170238,1.178704318936866
1.6744742350244193,-7.821295681063134
1.6754709458786006,-19.821295681063134
1.6764676567327816,-14.821295681063134
1.677464367586963,-2.821295681063134
1.678461078441144,-1.821295681063134
1.6794577892953253,-0.821295681063134
1.6804545001495064,-3.821295681063134
1.6814512110036877,-4.821295681063134
1.682447921857869,-5.821295681063134
1.68344463271205,-0.821295681063134
1.6844413435662313,-1.821295681063134
1.6854380544204124,6.178704318936866
1.6864347652745937,8.178704318936866
1.687431476128775,5.178704318936866
1.688428186982956,6.178704318936866
1.6894248978371373,2.178704318936866
1.6904216086913184,-6.821295681063134
1.6914183195454997,-5.821295681063134
1.692415030399681,3.178704318936866
1.693411741253862,9.178704318936866
1.6944084521080434,17.178704318936866
1.6954051629622244,4.178704318936866
1.6964018738164057,-8.821295681063134
1.697398584670587,-6.821295681063134
1.698395295524768,-9.821295681063134
1.6993920063789494,-8.821295681063134
1.7003887172331305,-6.821295681063134
1.7013854280873117,0.178704318936866
1.7023821389414928,5.178704318936866
1.703378849795674,12.178704318936866
1.7043755606498554,8.178704318936866
1.7053722715040365,19.178704318936866
1.7063689823582178,23.178704318936866
1.7073656932123988,12.178704318936866
1.7083624040665801,7.178704318936866
1.7093591149207614,-3.821295681063134
1.7103558257749425,-3.821295681063134
1.7113525366291238,-16.821295681063134
1.7123492474833049,-25.821295681063134
1.7133459583374862,-26.821295681063134
1.7143426691916674,-19.821295681063134
1.7153393800458485,-21.821295681063134
1.7163360909000298,-14.821295681063134
1.7173328017542109,-7.821295681063134
1.7183295126083922,1.178704318936866
1.7193262234625732,22.178704318936866
1.7203229343167545,25.178704318936866
1.7213196451709358,26.178704318936866
1.722316356025117,20.178704318936866
1.7233130668792982,7.178704318936866
1.7243097777334793,-0.821295681063134
1.7253064885876606,1.178704318936866
1.7263031994418419,-2.821295681063134
1.727299910296023,-14.821295681063134
1.7282966211502042,-19.821295681063134
1.7292933320043853,-17.821295681063134
1.7302900428585666,-20.821295681063134
1.7312867537127479,-15.821295681063134
1.732283464566929,-7.821295681063134
1.7332801754211102,0.178704318936866
1.7342768862752913,5.178704318936866
1.7352735971294726,10.178704318936866
1.736270307983654,18.178704318936866
1.737267018837835,12.178704318936866
1.7382637296920163,17.178704318936866
1.7392604405461973,-0.821295681063134
1.7402571514003786,-9.821295681063134
1.7412538622545597,-2.821295681063134
1.742250573108741,-0.821295681063134
1.7432472839629223,-0.821295681063134
1.7442439948171033,-7.821295681063134
1.7452407056712846,-4.821295681063134
1.7462374165254657,-3.821295681063134
1.747234127379647,-4.821295681063134
1.7482308382338283,12.178704318936866
1.7492275490880094,28.178704318936866
1.7502242599421907,25.178704318936866
1.7512209707963717,29.178704318936866
1.752217681650553,24.178704318936866
1.7532143925047343,5.178704318936866
1.7542111033589154,-2.821295681063134
1.7552078142130967,-2.821295681063134
1.7562045250672778,-0.821295681063134
1.757201235921459,-2.821295681063134
1.7581979467756401,0.178704318936866
1.7591946576298214,-3.821295681063134
1.7601913684840027,-16.821295681063134
1.7611880793381838,-19.821295681063134
1.762184790192365,-16.821295681063134
1.7631815010465461,-1.821295681063134
1.7641782119007274,6.178704318936866
1.7651749227549087,10.178704318936866
1.7661716336090898,6.178704318936866
1.767168344463271,12.178704318936866
1.7681650553174522,8.178704318936866
1.7691617661716335,-6.821295681063134
1.7701584770258147,-8.821295681063134
1.7711551878799958,-3.821295681063134
1.7721518987341771,-2.821295681063134
1.7731486095883582,-6.821295681063134
1.7741453204425395,-9.821295681063134
1.7751420312967208,-14.821295681063134
1.7761387421509018,-17.821295681063134
1.7771354530050831,-10.821295681063134
1.7781321638592642,-9.821295681063134
1.7791288747134455,-7.821295681063134
1.7801255855676266,-1.821295681063134
1.7811222964218079,8.178704318936866
1.7821190072759892,12.178704318936866
1.7831157181301702,3.178704318936866
1.7841124289843515,7.178704318936866
1.7851091398385326,3.178704318936866
1.7861058506927139,3.178704318936866
1.7871025615468952,3.178704318936866
1.7880992724010762,1.178704318936866
1.7890959832552575,1.178704318936866
1.7900926941094386,2.178704318936866
1.79108940496362,9.178704318936866
1.7920861158178012,16.178704318936866
1.7930828266719823,8.178704318936866
1.7940795375261636,6.178704318936866
1.7950762483803446,14.178704318936866
1.796072959234526,15.178704318936866
1.797069670088707,11.178704318936866
1.7980663809428883,1.178704318936866
1.7990630917970696,-13.821295681063134
1.8000598026512507,-10.821295681063134
1.801056513505432,-0.821295681063134
1.802053224359613,-5.821295681063134
1.8030499352137943,-12.821295681063134
1.8040466460679756,-14.821295681063134
1.8050433569221567,7.178704318936866
1.806040067776338,9.178704318936866
1.807036778630519,6.178704318936866
1.8080334894847003,0.178704318936866
1.8090302003388816,-10.821295681063134
1.8100269111930627,-10.821295681063134
1.811023622047244,-4.821295681063134
1.812020332901425,0.178704318936866
1.8130170437556064,6.178704318936866
1.8140137546097876,6.178704318936866
1.8150104654639687,8.178704318936866
1.81600717631815,4.178704318936866
1.817003887172331,2.178704318936866
1.8180005980265124,5.178704318936866
1.8189973088806934,4.178704318936866
1.8199940197348747,-4.821295681063134
1.820990730589056,-17.821295681063134
1.821987441443237,-9.821295681063134
1.8229841522974184,-14.821295681063134
1.8239808631515995,-9.821295681063134
1.8249775740057808,-3.821295681063134
1.825974284859962,1.178704318936866
1.8269709957141431,1.178704318936866
1.8279677065683244,0.178704318936866
1.8289644174225055,-4.821295681063134
1.8299611282766868,-8.821295681063134
1.830957839130868,-11.821295681063134
1.8319545499850491,-4.821295681063134
1.8329512608392304,6.178704318936866
1.8339479716934115,4.178704318936866
1.8349446825475928,5.178704318936866
1.8359413934017739,4.178704318936866
1.8369381042559552,1.178704318936866
1.8379348151101365,-1.821295681063134
1.8389315259643175,6.178704318936866
1.8399282368184988,16.178704318936866
1.84092494767268,19.178704318936866
1.8419216585268612,4.178704318936866
1.8429183693810425,-6.821295681063134
1.8439150802352235,-14.821295681063134
1.8449117910894048,-7.821295681063134
1.845908501943586,5.178704318936866
1.8469052127977672,17.178704318936866
1.8479019236519485,19.178704318936866
1.8488986345061296,-1.821295681063134
1.8498953453603109,-4.821295681063134
1.850892056214492,-4.821295681063134
1.8518887670686732,0.178704318936866
1.8528854779228545,-0.821295681063134
1.8538821887770356,5.178704318936866
1.8548788996312169,-2.821295681063134
1.855875610485398,1.178704318936866
1.8568723213395792,1.178704318936866
1.8578690321937603,0.178704318936866
1.8588657430479416,-9.821295681063134
1.859862453902123,-10.821295681063134
1.860859164756304,-19.821295681063134
1.8618558756104853,-18.821295681063134
1.8628525864646663,-19.821295681063134
1.8638492973188476,-13.821295681063134
1.864846008173029,-7.821295681063134
1.86584271902721,5.178704318936866
1.8668394298813913,16.178704318936866
1.8678361407355724,15.178704318936866
1.8688328515897537,16.178704318936866
1.869829562443935,15.178704318936866
1.870826273298116,12.178704318936866
1.8718229841522973,7.178704318936866
1.8728196950064784,7.178704318936866
1.8738164058606597,7.178704318936866
1.8748131167148407,8.178704318936866
1.875809827569022,12.178704318936866
1.8768065384232033,10.178704318936866
1.8778032492773844,-6.821295681063134
1.8787999601315657,-10.821295681063134
1.8797966709857468,-19.821295681063134
1.880793381839928,-12.821295681063134
1.8817900926941094,-4.821295681063134
1.8827868035482904,-3.821295681063134
1.8837835144024717,-19.821295681063134
1.8847802252566528,-13.821295681063134
1.885776936110834,-6.821295681063134
1.8867736469650154,11.178704318936866
1.8877703578191964,13.178704318936866
1.8887670686733777,20.178704318936866
1.8897637795275588,21.178704318936866
1.89076049038174,6.178704318936866
1.8917572012359214,-7.821295681063134
1.8927539120901025,-11.821295681063134
1.8937506229442838,-2.821295681063134
1.8947473337984648,5.178704318936866
1.8957440446526461,4.178704318936866
1.8967407555068272,-1.821295681063134
1.8977374663610085,-15.821295681063134
1.8987341772151898,-20.821295681063134
1.8997308880693708,-17.821295681063134
1.9007275989235521,-6.821295681063134
1.9017243097777332,0.178704318936866
1.9027210206319145,-2.821295681063134
1.9037177314860958,8.178704318936866
1.9047144423402769,15.178704318936866
1.9057111531944582,23.178704318936866
1.9067078640486392,24.178704318936866
1.9077045749028205,16.178704318936866
1.9087012857570018,9.178704318936866
1.909697996611183,15.178704318936866
1.9106947074653642,2.178704318936866
1.9116914183195453,-4.821295681063134
1.9126881291737265,-10.821295681063134
1.9136848400279076,-4.821295681063134
1.914681550882089,-11.821295681063134
1.9156782617362702,-19.821295681063134
1.9166749725904513,-21.821295681063134
1.9176716834446326,-24.821295681063134
1.9186683942988136,-22.821295681063134
1.919665105152995,-6.821295681063134
1.9206618160071762,8.178704318936866
1.9216585268613573,10.178704318936866
1.9226552377155386,-1.821295681063134
1.9236519485697197,-6.821295681063134
1.924648659423901,-4.821295681063134
1.9256453702780822,0.178704318936866
1.9266420811322633,-3.821295681063134
1.9276387919864446,4.178704318936866
1.9286355028406257,10.178704318936866
1.929632213694807,12.178704318936866
1.9306289245489883,8.178704318936866
1.9316256354031693,3.178704318936866
1.9326223462573506,8.178704318936866
1.9336190571115317,5.178704318936866
1.934615767965713,1.178704318936866
1.935612478819894,10.178704318936866
1.9366091896740754,17.178704318936866
1.9376059005282567,11.178704318936866
1.9386026113824377,10.178704318936866
1.939599322236619,6.178704318936866
1.9405960330908,0.178704318936866
1.9415927439449814,-7.821295681063134
1.9425894547991627,-8.821295681063134
1.9435861656533437,7.178704318936866
1.944582876507525,13.178704318936866
1.945579587361706,12.178704318936866
1.9465762982158874,0.178704318936866
1.9475730090700687,7.178704318936866
1.9485697199242498,2.178704318936866
1.949566430778431,0.178704318936866
1.9505631416326121,-2.821295681063134
1.9515598524867934,-2.821295681063134
1.9525565633409747,-9.821295681063134
1.9535532741951558,-8.821295681063134
1.954549985049337,-14.821295681063134
1.9555466959035182,-21.821295681063134
1.9565434067576994,-14.821295681063134
1.9575401176118805,-2.821295681063134
1.9585368284660618,-2.821295681063134
1.959533539320243,2.178704318936866
1.9605302501744242,9.178704318936866
1.9615269610286055,5.178704318936866
1.9625236718827865,8.178704318936866
1.9635203827369678,8.178704318936866
1.9645170935911491,8.178704318936866
1.9655138044453302,12.178704318936866
1.9665105152995115,1.178704318936866
1.9675072261536926,-4.821295681063134
1.9685039370078738,3.178704318936866
1.9695006478620551,-5.821295681063134
1.9704973587162362,-7.821295681063134
1.9714940695704175,-14.821295681063134
1.9724907804245986,-7.821295681063134
1.9734874912787799,2.178704318936866
1.974484202132961,5.178704318936866
1.9754809129871422,13.178704318936866
1.9764776238413235,7.178704318936866
1.9774743346955046,5.178704318936866
1.978471045549686,1.178704318936866
1.979467756403867,-6.821295681063134
1.9804644672580483,0.178704318936866
1.9814611781122295,5.178704318936866
1.9824578889664106,12.178704318936866
1.983454599820592,7.178704318936866
1.984451310674773,-0.821295681063134
1.9854480215289543,-4.821295681063134
1.9864447323831356,-7.821295681063134
1.9874414432373166,-0.821295681063134
1.988438154091498,-3.821295681063134
1.989434864945679,-13.821295681063134
1.9904315757998603,-8.821295681063134
1.9914282866540416,-19.821295681063134
1.9924249975082227,-13.821295681063134
1.993421708362404,-12.821295681063134
1.994418419216585,-10.821295681063134
1.9954151300707663,-9.821295681063134
1.9964118409249474,-14.821295681063134
1.9974085517791287,-10.821295681063134
1.99840526263331,1.178704318936866
1.999401973487491,3.178704318936866
2.0003986843416723,21.178704318936866
2.0013953951958534,29.178704318936866
2.0023921060500345,26.178704318936866
2.003388816904216,23.178704318936866
2.004385527758397,7.178704318936866
2.005382238612578,1.178704318936866
2.0063789494667597,-15.821295681063134
2.0073756603209407,-9.821295681063134
2.008372371175122,-13.821295681063134
2.0093690820293033,-17.821295681063134
2.0103657928834844,-12.821295681063134
2.0113625037376655,0.178704318936866
2.0123592145918465,3.178704318936866
2.013355925446028,1.178704318936866
2.014352636300209,3.178704318936866
2.01534934715439,4.178704318936866
2.0163460580085717,3.178704318936866
2.0173427688627528,4.178704318936866
2.018339479716934,8.178704318936866
2.0193361905711154,12.178704318936866
2.0203329014252964,6.178704318936866
2.0213296122794775,0.178704318936866
2.0223263231336586,-4.821295681063134
2.02332303398784,-5.821295681063134
2.024319744842021,-0.821295681063134
2.0253164556962022,8.178704318936866
2.0263131665503837,1.178704318936866
2.027309877404565,4.178704318936866
2.028306588258746,1.178704318936866
2.029303299112927,5.178704318936866
2.0303000099671085,4.178704318936866
2.0312967208212895,-3.821295681063134
2.0322934316754706,-2.821295681063134
2.033290142529652,-2.821295681063134
2.034286853383833,2.178704318936866
2.0352835642380143,11.178704318936866
2.036280275092196,7.178704318936866
2.037276985946377,-8.821295681063134
2.038273696800558,-23.821295681063134
2.039270407654739,-16.821295681063134
2.0402671185089205,-8.821295681063134
2.0412638293631016,-6.821295681063134
2.0422605402172826,4.178704318936866
2.043257251071464,14.178704318936866
2.0442539619256452,6.178704318936866
2.0452506727798263,1.178704318936866
2.0462473836340074,5.178704318936866
2.047244094488189,12.178704318936866
2.04824080534237,6.178704318936866
2.049237516196551,9.178704318936866
2.0502342270507325,3.178704318936866
2.0512309379049136,-1.821295681063134
2.0522276487590947,-9.821295681063134
2.053224359613276,-20.821295681063134
2.0542210704674573,-23.821295681063134
2.0552177813216383,-23.821295681063134
2.0562144921758194,-15.821295681063134
2.057211203030001,-10.821295681063134
2.058207913884182,-9.821295681063134
2.059204624738363,-9.821295681063134
2.0602013355925446,-6.821295681063134
2.0611980464467257,5.178704318936866
2.0621947573009067,24.178704318936866
2.063191468155088,26.178704318936866
2.0641881790092693,28.178704318936866
2.0651848898634504,27.178704318936866
2.0661816007176315,25.178704318936866
2.067178311571813,15.178704318936866
2.068175022425994,13.178704318936866
2.069171733280175,18.178704318936866
2.0701684441343566,12.178704318936866
2.0711651549885377,-1.821295681063134
2.0721618658427188,-13.821295681063134
2.0731585766969,-10.821295681063134
2.0741552875510814,-10.821295681063134
2.0751519984052624,-13.821295681063134
2.0761487092594435,-19.821295681063134
2.077145420113625,-10.821295681063134
2.078142130967806,-8.821295681063134
2.079138841821987,-20.821295681063134
2.0801355526761687,-15.821295681063134
2.0811322635303497,3.178704318936866
2.082128974384531,5.178704318936866
2.083125685238712,5.178704318936866
2.0841223960928934,4.178704318936866
2.0851191069470745,18.178704318936866
2.0861158178012555,8.178704318936866
2.087112528655437,6.178704318936866
2.088109239509618,11.178704318936866
2.089105950363799,3.178704318936866
2.0901026612179803,5.178704318936866
2.091099372072162,4.178704318936866
2.092096082926343,3.178704318936866
2.093092793780524,-2.821295681063134
2.0940895046347054,-12.821295681063134
2.0950862154888865,-10.821295681063134
2.0960829263430676,-14.821295681063134
2.097079637197249,-11.821295681063134
2.09807634805143,-12.821295681063134
2.0990730589056112,-9.821295681063134
2.1000697697597923,-3.821295681063134
2.101066480613974,-5.821295681063134
2.102063191468155,3.178704318936866
2.103059902322336,5.178704318936866
2.1040566131765175,16.178704318936866
2.1050533240306986,20.178704318936866
2.1060500348848796,11.178704318936866
2.1070467457390607,-0.821295681063134
2.108043456593242,5.178704318936866
2.1090401674474233,4.178704318936866
2.1100368783016044,3.178704318936866
2.111033589155786,-4.821295681063134
2.112030300009967,-26.821295681063134
2.113027010864148,-23.821295681063134
2.1140237217183295,-18.821295681063134
2.1150204325725106,-8.821295681063134
2.1160171434266917,-5.821295681063134
2.1170138542808727,4.178704318936866
2.1180105651350543,0.178704318936866
2.1190072759892353,8.178704318936866
2.1200039868434164,12.178704318936866
2.121000697697598,10.178704318936866
2.121997408551779,10.178704318936866
2.12299411940596,4.178704318936866
2.123990830260141,5.178704318936866
2.1249875411143226,4.178704318936866
2.1259842519685037,4.178704318936866
2.126980962822685,6.178704318936866
2.1279776736768663,13.178704318936866
2.1289743845310474,13.178704318936866
2.1299710953852284,8.178704318936866
2.13096780623941,-4.821295681063134
2.131964517093591,-4.821295681063134
2.132961227947772,-1.821295681063134
2.133957938801953,-7.821295681063134
2.1349546496561347,-7.821295681063134
2.1359513605103158,-10.821295681063134
2.136948071364497,-11.821295681063134
2.1379447822186783,-4.821295681063134
2.1389414930728594,-2.821295681063134
2.1399382039270405,-1.821295681063134
2.1409349147812216,4.178704318936866
2.141931625635403,3.178704318936866
2.142928336489584,4.178704318936866
2.143925047343765,7.178704318936866
2.1449217581979467,6.178704318936866
2.145918469052128,5.178704318936866
2.146915179906309,-4.821295681063134
2.1479118907604904,-8.821295681063134
2.1489086016146715,-13.821295681063134
2.1499053124688525,-15.821295681063134
2.1509020233230336,-15.821295681063134
2.151898734177215,-14.821295681063134
2.152895445031396,-19.821295681063134
2.1538921558855773,-12.821295681063134
2.1548888667397588,-14.821295681063134
2.15588557759394,-2.821295681063134
2.156882288448121,16.178704318936866
2.1578789993023024,23.178704318936866
2.1588757101564835,32.178704318936866
2.1598724210106646,29.178704318936866
2.1608691318648456,22.178704318936866
2.161865842719027,18.178704318936866
2.1628625535732082,14.178704318936866
2.1638592644273893,11.178704318936866
2.164855975281571,14.178704318936866
2.165852686135752,19.178704318936866
2.166849396989933,17.178704318936866
2.167846107844114,-2.821295681063134
2.1688428186982955,-11.821295681063134
2.1698395295524766,-25.821295681063134
2.1708362404066577,-31.821295681063134
2.171832951260839,-26.821295681063134
2.1728296621150203,-19.821295681063134
2.1738263729692013,-15.821295681063134
2.174823083823383,-15.821295681063134
2.175819794677564,-2.821295681063134
2.176816505531745,8.178704318936866
2.177813216385926,20.178704318936866
2.1788099272401076,24.178704318936866
2.1798066380942887,21.178704318936866
2.1808033489484697,12.178704318936866
2.1818000598026512,-5.821295681063134
2.1827967706568323,-8.821295681063134
2.1837934815110134,-9.821295681063134
2.1847901923651945,9.178704318936866
2.185786903219376,18.178704318936866
2.186783614073557,21.178704318936866
2.187780324927738,18.178704318936866
2.1887770357819196,7.178704318936866
2.1897737466361007,9.178704318936866
2.1907704574902818,-6.821295681063134
2.1917671683444633,-14.821295681063134
2.1927638791986444,-27.821295681063134
2.1937605900528254,-24.821295681063134
2.1947573009070065,-23.821295681063134
2.195754011761188,-19.821295681063134
2.196750722615369,-22.821295681063134
2.19774743346955,-11.821295681063134
2.1987441443237317,-2.821295681063134
2.1997408551779127,4.178704318936866
2.200737566032094,0.178704318936866
2.201734276886275,2.178704318936866
2.2027309877404564,3.178704318936866
2.2037276985946375,0.178704318936866
2.2047244094488185,1.178704318936866
2.205721120303,3.178704318936866
2.206717831157181,-2.821295681063134
2.207714542011362,8.178704318936866
2.2087112528655437,8.178704318936866
2.2097079637197248,18.178704318936866
2.210704674573906,2.178704318936866
2.211701385428087,-7.821295681063134
2.2126980962822684,-3.821295681063134
2.2136948071364495,-4.821295681063134
2.2146915179906306,-3.821295681063134
2.215688228844812,5.178704318936866
2.216684939698993,5.178704318936866
2.2176816505531742,1.178704318936866
2.2186783614073553,2.178704318936866
2.219675072261537,-4.821295681063134
2.220671783115718,-5.821295681063134
2.221668493969899,-8.821295681063134
2.2226652048240805,-10.821295681063134
2.2236619156782615,-16.821295681063134
2.2246586265324426,-15.821295681063134
2.225655337386624,-5.821295681063134
2.226652048240805,-2.821295681063134
2.2276487590949863,5.178704318936866
2.2286454699491673,12.178704318936866
2.229642180803349,12.178704318936866
2.23063889165753,23.178704318936866
2.231635602511711,17.178704318936866
2.2326323133658925,12.178704318936866
2.2336290242200736,20.178704318936866
2.2346257350742547,30.178704318936866
2.235622445928436,13.178704318936866
2.2366191567826172,7.178704318936866
2.2376158676367983,3.178704318936866
2.2386125784909794,3.178704318936866
2.239609289345161,-1.821295681063134
2.240606000199342,-2.821295681063134
2.241602711053523,-4.821295681063134
2.2425994219077046,-1.821295681063134
2.2435961327618856,6.178704318936866
2.2445928436160667,6.178704318936866
2.2455895544702478,5.178704318936866
2.2465862653244293,-0.821295681063134
2.2475829761786104,2.178704318936866
2.2485796870327914,3.178704318936866
2.249576397886973,12.178704318936866
2.250573108741154,-2.821295681063134
2.251569819595335,-16.821295681063134
2.2525665304495166,-20.821295681063134
2.2535632413036977,-28.821295681063134
2.2545599521578787,-35.821295681063134
2.25555666301206,-19.821295681063134
2.2565533738662413,1.178704318936866
2.2575500847204224,1.178704318936866
2.2585467955746035,8.178704318936866
2.259543506428785,8.178704318936866
2.260540217282966,-1.821295681063134
2.261536928137147,2.178704318936866
2.262533638991328,-2.821295681063134
2.2635303498455097,3.178704318936866
2.264527060699691,9.178704318936866
2.265523771553872,7.178704318936866
2.2665204824080534,0.178704318936866
2.2675171932622344,-3.821295681063134
2.2685139041164155,-6.821295681063134
2.269510614970597,-9.821295681063134
2.270507325824778,-5.821295681063134
2.271504036678959,3.178704318936866
2.2725007475331402,5.178704318936866
2.2734974583873218,6.178704318936866
2.274494169241503,11.178704318936866
2.275490880095684,10.178704318936866
2.2764875909498654,8.178704318936866
2.2774843018040465,13.178704318936866
2.2784810126582276,26.178704318936866
2.2794777235124086,20.178704318936866
2.28047443436659,-1.821295681063134
2.281471145220771,-14.821295681063134
2.2824678560749523,-19.821295681063134
2.283464566929134,-15.821295681063134
2.284461277783315,-6.821295681063134
2.285457988637496,-0.821295681063134
2.2864546994916775,1.178704318936866
2.2874514103458585,6.178704318936866
2.2884481212000396,0.178704318936866
2.2894448320542207,-0.821295681063134
2.290441542908402,7.178704318936866
2.2914382537625833,-3.821295681063134
2.2924349646167643,-9.821295681063134
2.293431675470946,-4.821295681063134
2.294428386325127,-4.821295681063134
2.295425097179308,-2.821295681063134
2.2964218080334895,-10.821295681063134
2.2974185188876706,-11.821295681063134
2.2984152297418516,-3.821295681063134
2.2994119405960327,-3.821295681063134
2.3004086514502142,-4.821295681063134
2.3014053623043953,1.178704318936866
2.3024020731585764,6.178704318936866
2.303398784012758,5.178704318936866
2.304395494866939,-0.821295681063134
2.30539220572112,0.178704318936866
2.306388916575301,0.178704318936866
2.3073856274294826,-7.821295681063134
2.3083823382836637,-7.821295681063134
2.3093790491378448,-7.821295681063134
2.3103757599920263,-4.821295681063134
2.3113724708462073,4.178704318936866
2.3123691817003884,-2.821295681063134
2.31336589255457,-7.821295681063134
2.314362603408751,5.178704318936866
2.315359314262932,17.178704318936866
2.316356025117113,16.178704318936866
2.3173527359712947,20.178704318936866
2.3183494468254757,10.178704318936866
2.319346157679657,7.178704318936866
2.3203428685338383,2.178704318936866
2.3213395793880194,-17.821295681063134
2.3223362902422005,-24.821295681063134
2.3233330010963815,-19.821295681063134
2.324329711950563,-0.821295681063134
2.325326422804744,1.178704318936866
2.326323133658925,12.178704318936866
2.3273198445131067,19.178704318936866
2.3283165553672878,17.178704318936866
2.329313266221469,9.178704318936866
2.3303099770756504,12.178704318936866
2.3313066879298314,7.178704318936866
2.3323033987840125,-5.821295681063134
2.3333001096381936,-19.821295681063134
2.334296820492375,-22.821295681063134
2.335293531346556,-7.821295681063134
2.336290242200737,-7.821295681063134
2.3372869530549187,2.178704318936866
2.3382836639091,5.178704318936866
2.339280374763281,2.178704318936866
2.340277085617462,4.178704318936866
2.3412737964716435,9.178704318936866
2.3422705073258245,16.178704318936866
2.3432672181800056,21.178704318936866
2.344263929034187,8.178704318936866
2.345260639888368,6.178704318936866
2.3462573507425493,-2.821295681063134
2.347254061596731,-13.821295681063134
2.348250772450912,-11.821295681063134
2.349247483305093,-13.821295681063134
2.350244194159274,-13.821295681063134
2.3512409050134555,-15.821295681063134
2.3522376158676366,-7.821295681063134
2.3532343267218176,-2.821295681063134
2.354231037575999,5.178704318936866
2.3552277484301802,6.178704318936866
2.3562244592843613,5.178704318936866
2.3572211701385424,-9.821295681063134
2.358217880992724,-0.821295681063134
2.359214591846905,8.178704318936866
2.360211302701086,17.178704318936866
2.3612080135552675,13.178704318936866
2.3622047244094486,17.178704318936866
2.3632014352636297,9.178704318936866
2.364198146117811,12.178704318936866
2.3651948569719923,8.178704318936866
2.3661915678261733,6.178704318936866
2.3671882786803544,1.178704318936866
2.368184989534536,4.178704318936866
2.369181700388717,-1.821295681063134
2.370178411242898,-3.821295681063134
2.3711751220970796,-9.821295681063134
2.3721718329512607,-18.821295681063134
2.3731685438054417,-31.821295681063134
2.3741652546596232,-28.821295681063134
2.3751619655138043,-23.821295681063134
2.3761586763679854,-36.821295681063134
2.3771553872221665,-45.821295681063134
2.378152098076348,-63.821295681063134
2.379148808930529,-59.821295681063134
2.38014551978471,-56.821295681063134
2.3811422306388916,-50.821295681063134
2.3821389414930727,-49.821295681063134
2.3831356523472538,-35.821295681063134
2.384132363201435,-36.821295681063134
2.3851290740556164,-28.821295681063134
2.3861257849097974,-15.821295681063134
2.3871224957639785,-2.821295681063134
2.38811920661816,-0.821295681063134
2.389115917472341,13.178704318936866
2.390112628326522,18.178704318936866
2.3911093391807037,25.178704318936866
2.3921060500348847,34.178704318936866
2.393102760889066,35.178704318936866
2.394099471743247,37.178704318936866
2.3950961825974284,39.178704318936866
2.3960928934516095,33.178704318936866
2.3970896043057905,15.178704318936866
2.398086315159972,4.178704318936866
2.399083026014153,5.178704318936866
2.400079736868334,8.178704318936866
2.4010764477225153,12.178704318936866
2.402073158576697,8.178704318936866
2.403069869430878,11.178704318936866
2.404066580285059,19.178704318936866
2.4050632911392404,15.178704318936866
2.4060600019934215,13.178704318936866
2.4070567128476026,15.178704318936866
2.408053423701784,21.178704318936866
2.409050134555965,22.178704318936866
2.4100468454101462,15.178704318936866
2.4110435562643273,9.178704318936866
2.412040267118509,-2.821295681063134
2.41303697797269,-8.821295681063134
2.414033688826871,-6.821295681063134
2.4150303996810525,-5.821295681063134
2.4160271105352336,-9.821295681063134
2.4170238213894146,-0.821295681063134
2.4180205322435957,0.178704318936866
2.419017243097777,11.178704318936866
2.4200139539519583,20.178704318936866
2.4210106648061394,21.178704318936866
2.422007375660321,15.178704318936866
2.423004086514502,13.178704318936866
2.424000797368683,6.178704318936866
2.4249975082228645,-7.821295681063134
2.4259942190770456,-19.821295681063134
2.4269909299312267,-20.821295681063134
2.4279876407854077,-14.821295681063134
2.4289843516395893,-7.821295681063134
2.4299810624937703,-10.821295681063134
2.4309777733479514,-14.821295681063134
2.431974484202133,-19.821295681063134
2.432971195056314,-15.821295681063134
2.433967905910495,-1.821295681063134
2.434964616764676,0.178704318936866
2.4359613276188576,8.178704318936866
2.4369580384730387,13.178704318936866
2.43795474932722,17.178704318936866
2.4389514601814013,16.178704318936866
2.4399481710355824,17.178704318936866
2.4409448818897634,12.178704318936866
2.441941592743945,6.178704318936866
2.442938303598126,3.178704318936866
2.443935014452307,-4.821295681063134
2.444931725306488,-5.821295681063134
2.4459284361606697,3.178704318936866
2.4469251470148508,3.178704318936866
2.447921857869032,11.178704318936866
2.4489185687232133,16.178704318936866
2.4499152795773944,5.178704318936866
2.4509119904315755,-5.821295681063134
2.451908701285757,-3.821295681063134
2.452905412139938,-7.821295681063134
2.453902122994119,-8.821295681063134
2.4548988338483,0.178704318936866
2.4558955447024817,7.178704318936866
2.456892255556663,12.178704318936866
2.457888966410844,20.178704318936866
2.4588856772650254,20.178704318936866
2.4598823881192065,16.178704318936866
2.4608790989733875,16.178704318936866
2.4618758098275686,0.178704318936866
2.46287252068175,-7.821295681063134
2.463869231535931,-15.821295681063134
2.4648659423901123,-9.821295681063134
2.4658626532442938,-2.821295681063134
2.466859364098475,7.178704318936866
2.467856074952656,9.178704318936866
2.4688527858068374,-0.821295681063134
2.4698494966610185,-2.821295681063134
2.4708462075151996,-5.821295681063134
2.4718429183693806,-13.821295681063134
2.472839629223562,-20.821295681063134
2.4738363400777432,-19.821295681063134
2.4748330509319243,-14.821295681063134
2.475829761786106,-3.821295681063134
2.476826472640287,-12.821295681063134
2.477823183494468,-7.821295681063134
2.478819894348649,0.178704318936866
2.4798166052028305,4.178704318936866
2.4808133160570116,12.178704318936866
2.4818100269111927,11.178704318936866
2.482806737765374,11.178704318936866
2.4838034486195553,17.178704318936866
2.4848001594737363,16.178704318936866
2.485796870327918,16.178704318936866
2.486793581182099,6.178704318936866
2.48779029203628,5.178704318936866
2.488787002890461,6.178704318936866
2.4897837137446426,2.178704318936866
2.4907804245988237,-2.821295681063134
2.4917771354530047,0.178704318936866
2.4927738463071862,5.178704318936866
2.4937705571613673,10.178704318936866
2.4947672680155484,-1.821295681063134
2.4957639788697294,-3.821295681063134
2.496760689723911,1.178704318936866
2.497757400578092,10.178704318936866
2.498754111432273,22.178704318936866
2.4997508222864546,24.178704318936866
2.5007475331406357,14.178704318936866
2.5017442439948168,7.178704318936866
2.5027409548489983,2.178704318936866
2.5037376657031793,1.178704318936866
2.5047343765573604,-3.821295681063134
2.5057310874115415,-15.821295681063134
2.506727798265723,-26.821295681063134
2.507724509119904,-23.821295681063134
2.508721219974085,-11.821295681063134
2.5097179308282667,-3.821295681063134
2.5107146416824477,0.178704318936866
2.511711352536629,-5.821295681063134
2.51270806339081,-11.821295681063134
2.5137047742449914,-4.821295681063134
2.5147014850991725,-3.821295681063134
2.5156981959533535,-10.821295681063134
2.516694906807535,-3.821295681063134
2.517691617661716,0.178704318936866
2.518688328515897,0.178704318936866
2.5196850393700787,1.178704318936866
2.5206817502242598,-2.821295681063134
2.521678461078441,6.178704318936866
2.522675171932622,10.178704318936866
2.5236718827868034,7.178704318936866
2.5246685936409845,8.178704318936866
2.5256653044951656,3.178704318936866
2.526662015349347,7.178704318936866
2.527658726203528,15.178704318936866
2.5286554370577092,14.178704318936866
2.5296521479118907,5.178704318936866
2.530648858766072,9.178704318936866
2.531645569620253,0.178704318936866
2.532642280474434,-2.821295681063134
2.5336389913286155,-3.821295681063134
2.5346357021827965,-10.821295681063134
2.5356324130369776,-10.821295681063134
2.536629123891159,-15.821295681063134
2.53762583474534,-23.821295681063134
2.5386225455995213,-23.821295681063134
2.5396192564537023,-20.821295681063134
2.540615967307884,-7.821295681063134
2.541612678162065,-0.821295681063134
2.542609389016246,5.178704318936866
2.5436060998704275,20.178704318936866
2.5446028107246086,23.178704318936866
2.5455995215787897,24.178704318936866
2.546596232432971,20.178704318936866
2.5475929432871522,5.178704318936866
2.5485896541413333,0.178704318936866
2.5495863649955144,-7.821295681063134
2.550583075849696,-9.821295681063134
2.551579786703877,-7.821295681063134
2.552576497558058,-0.821295681063134
2.5535732084122396,4.178704318936866
2.5545699192664206,3.178704318936866
2.5555666301206017,13.178704318936866
2.5565633409747828,10.178704318936866
2.5575600518289643,5.178704318936866
2.5585567626831454,5.178704318936866
2.5595534735373264,0.178704318936866
2.560550184391508,-1.821295681063134
2.561546895245689,-11.821295681063134
2.56254360609987,-10.821295681063134
2.5635403169540516,8.178704318936866
2.5645370278082327,4.178704318936866
2.5655337386624137,8.178704318936866
2.566530449516595,-0.821295681063134
2.5675271603707763,-10.821295681063134
2.5685238712249574,-18.821295681063134
2.5695205820791385,-9.821295681063134
2.57051729293332,-5.821295681063134
2.571514003787501,4.178704318936866
2.572510714641682,-1.821295681063134
2.573507425495863,-5.821295681063134
2.5745041363500447,0.178704318936866
2.575500847204226,9.178704318936866
2.576497558058407,11.178704318936866
2.5774942689125884,6.178704318936866
2.5784909797667694,8.178704318936866
2.5794876906209505,14.178704318936866
2.580484401475132,2.178704318936866
2.581481112329313,-7.821295681063134
2.582477823183494,-9.821295681063134
2.5834745340376752,-10.821295681063134
2.5844712448918568,-13.821295681063134
2.585467955746038,-10.821295681063134
2.586464666600219,-6.821295681063134
2.5874613774544004,-6.821295681063134
2.5884580883085815,-4.821295681063134
2.5894547991627626,-4.821295681063134
2.590451510016944,-8.821295681063134
2.591448220871125,-3.821295681063134
2.592444931725306,4.178704318936866
2.5934416425794873,8.178704318936866
2.594438353433669,12.178704318936866
2.59543506428785,8.178704318936866
2.596431775142031,15.178704318936866
2.5974284859962125,23.178704318936866
2.5984251968503935,19.178704318936866
2.5994219077045746,14.178704318936866
2.6004186185587557,0.178704318936866
2.601415329412937,-4.821295681063134
2.6024120402671183,-1.821295681063134
2.6034087511212993,-7.821295681063134
2.604405461975481,-16.821295681063134
2.605402172829662,-4.821295681063134
2.606398883683843,8.178704318936866
2.6073955945380245,16.178704318936866
2.6083923053922056,13.178704318936866
2.6093890162463866,7.178704318936866
2.6103857271005677,-2.821295681063134
2.6113824379547492,-11.821295681063134
2.6123791488089303,-12.821295681063134
2.6133758596631114,-19.821295681063134
2.614372570517293,-26.821295681063134
2.615369281371474,-19.821295681063134
2.616365992225655,-23.821295681063134
2.617362703079836,-13.821295681063134
2.6183594139340176,-1.821295681063134
2.6193561247881987,13.178704318936866
2.6203528356423798,18.178704318936866
2.6213495464965613,30.178704318936866
2.6223462573507423,37.178704318936866
2.6233429682049234,38.178704318936866
2.624339679059105,32.178704318936866
2.625336389913286,14.178704318936866
2.626333100767467,-0.821295681063134
2.627329811621648,-13.821295681063134
2.6283265224758297,-24.821295681063134
2.6293232333300107,-19.821295681063134
2.630319944184192,-14.821295681063134
2.6313166550383733,-24.821295681063134
2.6323133658925544,-24.821295681063134
2.6333100767467355,-14.821295681063134
2.6343067876009165,-2.821295681063134
2.635303498455098,2.178704318936866
2.636300209309279,-1.821295681063134
2.63729692016346,6.178704318936866
2.6382936310176417,6.178704318936866
2.6392903418718228,-2.821295681063134
2.640287052726004,5.178704318936866
2.6412837635801854,7.178704318936866
2.6422804744343664,-2.821295681063134
2.6432771852885475,-2.821295681063134
2.6442738961427286,-6.821295681063134
2.64527060699691,-13.821295681063134
2.646267317851091,0.178704318936866
2.647264028705272,-1.821295681063134
2.6482607395594537,4.178704318936866
2.649257450413635,9.178704318936866
2.650254161267816,15.178704318936866
2.651250872121997,11.178704318936866
2.6522475829761785,5.178704318936866
2.6532442938303595,6.178704318936866
2.6542410046845406,-1.821295681063134
2.655237715538722,2.178704318936866
2.656234426392903,6.178704318936866
2.6572311372470843,9.178704318936866
2.6582278481012658,10.178704318936866
2.659224558955447,8.178704318936866
2.660221269809628,8.178704318936866
2.661217980663809,-5.821295681063134
2.6622146915179905,0.178704318936866
2.6632114023721716,-7.821295681063134
2.6642081132263526,-7.821295681063134
2.665204824080534,-13.821295681063134
2.6662015349347152,-17.821295681063134
2.6671982457888963,-8.821295681063134
2.668194956643078,-1.821295681063134
2.669191667497259,4.178704318936866
2.67018837835144,3.178704318936866
2.671185089205621,6.178704318936866
2.6721818000598025,9.178704318936866
2.6731785109139836,12.178704318936866
2.6741752217681647,9.178704318936866
2.675171932622346,0.178704318936866
2.6761686434765273,-0.821295681063134
2.6771653543307083,-6.821295681063134
2.6781620651848894,-7.821295681063134
2.679158776039071,-6.821295681063134
2.680155486893252,6.178704318936866
2.681152197747433,9.178704318936866
2.6821489086016146,11.178704318936866
2.6831456194557957,6.178704318936866
2.6841423303099767,6.178704318936866
2.6851390411641582,-2.821295681063134
2.6861357520183393,-7.821295681063134
2.6871324628725204,-12.821295681063134
2.6881291737267015,-11.821295681063134
2.689125884580883,-10.821295681063134
2.690122595435064,-2.821295681063134
2.691119306289245,4.178704318936866
2.6921160171434266,11.178704318936866
2.6931127279976077,-1.821295681063134
2.6941094388517888,11.178704318936866
2.69510614970597,12.178704318936866
2.6961028605601514,8.178704318936866
2.6970995714143324,4.178704318936866
2.6980962822685135,0.178704318936866
2.699092993122695,6.178704318936866
2.700089703976876,11.178704318936866
2.701086414831057,4.178704318936866
2.7020831256852387,-2.821295681063134
2.7030798365394197,-11.821295681063134
2.704076547393601,-14.821295681063134
2.705073258247782,-0.821295681063134
2.7060699691019634,9.178704318936866
2.7070666799561445,3.178704318936866
2.7080633908103255,-11.821295681063134
2.709060101664507,-18.821295681063134
2.710056812518688,-2.821295681063134
2.711053523372869,2.178704318936866
2.7120502342270503,10.178704318936866
2.713046945081232,4.178704318936866
2.714043655935413,-2.821295681063134
2.715040366789594,1.178704318936866
2.7160370776437754,-2.821295681063134
2.7170337884979565,-0.821295681063134
2.7180304993521376,7.178704318936866
2.719027210206319,-1.821295681063134
2.7200239210605,-9.821295681063134
2.7210206319146812,-3.821295681063134
2.7220173427688623,4.178704318936866
2.723014053623044,11.178704318936866
2.724010764477225,-7.821295681063134
2.725007475331406,-6.821295681063134
2.7260041861855875,-4.821295681063134
2.7270008970397686,-6.821295681063134
2.7279976078939496,-1.821295681063134
2.7289943187481307,-6.821295681063134
2.729991029602312,-7.821295681063134
2.7309877404564933,-6.821295681063134
2.7319844513106744,-9.821295681063134
2.732981162164856,-3.821295681063134
2.733977873019037,-1.821295681063134
2.734974583873218,1.178704318936866
2.7359712947273995,6.178704318936866
2.7369680055815806,7.178704318936866
2.7379647164357617,16.178704318936866
2.7389614272899427,31.178704318936866
2.7399581381441243,31.178704318936866
2.7409548489983053,20.178704318936866
2.7419515598524864,14.178704318936866
2.742948270706668,-1.821295681063134
2.743944981560849,-4.821295681063134
2.74494169241503,-1.821295681063134
2.7459384032692116,-8.821295681063134
2.7469351141233926,-7.821295681063134
2.7479318249775737,-15.821295681063134
2.748928535831755,-18.821295681063134
2.7499252466859363,-19.821295681063134
2.7509219575401174,-18.821295681063134
2.7519186683942984,-14.821295681063134
2.75291537924848,-10.821295681063134
2.753912090102661,0.178704318936866
2.754908800956842,5.178704318936866
2.755905511811023,1.178704318936866
2.7569022226652047,1.178704318936866
2.7578989335193858,14.178704318936866
2.758895644373567,17.178704318936866
2.7598923552277483,18.178704318936866
2.7608890660819294,11.178704318936866
2.7618857769361105,10.178704318936866
2.762882487790292,13.178704318936866
2.763879198644473,14.178704318936866
2.764875909498654,12.178704318936866
2.765872620352835,11.178704318936866
2.7668693312070167,6.178704318936866
2.767866042061198,9.178704318936866
2.768862752915379,3.178704318936866
2.7698594637695604,-8.821295681063134
2.7708561746237415,-27.821295681063134
2.7718528854779225,-31.821295681063134
2.7728495963321036,-25.821295681063134
2.773846307186285,-23.821295681063134
2.774843018040466,-23.821295681063134
2.7758397288946473,-26.821295681063134
2.7768364397488288,-13.821295681063134
2.77783315060301,4.178704318936866
2.778829861457191,11.178704318936866
2.7798265723113724,20.178704318936866
2.7808232831655535,28.178704318936866
2.7818199940197346,41.178704318936866
2.7828167048739156,29.178704318936866
2.783813415728097,33.178704318936866
2.7848101265822782,31.178704318936866
2.7858068374364593,16.178704318936866
2.786803548290641,0.178704318936866
2.787800259144822,-13.821295681063134
2.788796969999003,-29.821295681063134
2.789793680853184,-32.821295681063134
2.7907903917073655,-25.821295681063134
2.7917871025615466,-17.821295681063134
2.7927838134157277,-4.821295681063134
2.793780524269909,-2.821295681063134
2.7947772351240903,5.178704318936866
2.7957739459782713,17.178704318936866
2.796770656832453,11.178704318936866
2.797767367686634,-6.821295681063134
2.798764078540815,1.178704318936866
2.799760789394996,0.178704318936866
2.8007575002491776,-9.821295681063134
2.8017542111033586,-5.821295681063134
2.8027509219575397,-0.821295681063134
2.8037476328117212,-6.821295681063134
2.8047443436659023,11.178704318936866
2.8057410545200834,-1.821295681063134
2.8067377653742644,-10.821295681063134
2.807734476228446,-8.821295681063134
2.808731187082627,8.178704318936866
2.809727897936808,11.178704318936866
2.8107246087909896,9.178704318936866
2.8117213196451707,-5.821295681063134
2.8127180304993518,-4.821295681063134
2.8137147413535333,-0.821295681063134
2.8147114522077143,-12.821295681063134
2.8157081630618954,-12.821295681063134
2.8167048739160765,-5.821295681063134
2.817701584770258,1.178704318936866
2.818698295624439,4.178704318936866
2.81969500647862,7.178704318936866
2.8206917173328017,17.178704318936866
2.8216884281869827,13.178704318936866
2.822685139041164,2.178704318936866
2.8236818498953453,3.178704318936866
2.8246785607495264,-2.821295681063134
2.8256752716037075,-4.821295681063134
2.8266719824578885,-10.821295681063134
2.82766869331207,-18.821295681063134
2.828665404166251,-21.821295681063134
2.829662115020432,-7.821295681063134
2.8306588258746137,-2.821295681063134
2.8316555367287948,-1.821295681063134
2.832652247582976,-16.821295681063134
2.833648958437157,-8.821295681063134
2.8346456692913384,3.178704318936866
2.8356423801455195,14.178704318936866
2.8366390909997006,14.178704318936866
2.837635801853882,18.178704318936866
2.838632512708063,16.178704318936866
2.8396292235622442,24.178704318936866
2.8406259344164257,18.178704318936866
2.841622645270607,6.178704318936866
2.842619356124788,8.178704318936866
2.843616066978969,-2.821295681063134
2.8446127778331505,-22.821295681063134
2.8456094886873315,-25.821295681063134
2.8466061995415126,-19.821295681063134
2.847602910395694,-10.821295681063134
2.848599621249875,-3.821295681063134
2.8495963321040563,0.178704318936866
2.8505930429582373,12.178704318936866
2.851589753812419,12.178704318936866
2.8525864646666,6.178704318936866
2.853583175520781,-1.821295681063134
2.8545798863749625,-8.821295681063134
2.8555765972291436,-20.821295681063134
2.8565733080833247,-21.821295681063134
2.857570018937506,-18.821295681063134
2.8585667297916872,-15.821295681063134
2.8595634406458683,-10.821295681063134
2.8605601515000494,-1.821295681063134
2.861556862354231,1.178704318936866
2.862553573208412,9.178704318936866
2.863550284062593,12.178704318936866
2.8645469949167746,19.178704318936866
2.8655437057709556,19.178704318936866
2.8665404166251367,15.178704318936866
2.8675371274793178,8.178704318936866
2.8685338383334993,10.178704318936866
2.8695305491876804,-2.821295681063134
2.8705272600418614,-6.821295681063134
2.871523970896043,-6.821295681063134
2.872520681750224,-7.821295681063134
2.873517392604405,-1.821295681063134
2.8745141034585866,0.178704318936866
2.8755108143127677,-3.821295681063134
2.8765075251669487,1.178704318936866
2.87750423602113,9.178704318936866
2.8785009468753113,6.178704318936866
2.8794976577294924,10.178704318936866
2.8804943685836735,12.178704318936866
2.881491079437855,17.178704318936866
2.882487790292036,9.178704318936866
2.883484501146217,8.178704318936866
2.8844812120003986,12.178704318936866
2.8854779228545797,16.178704318936866
2.886474633708761,12.178704318936866
2.887471344562942,3.178704318936866
2.8884680554171234,-6.821295681063134
2.8894647662713044,-15.821295681063134
2.8904614771254855,-17.821295681063134
2.891458187979667,-24.821295681063134
2.892454898833848,-24.821295681063134
2.893451609688029,-27.821295681063134
2.8944483205422102,-25.821295681063134
2.8954450313963918,-13.821295681063134
2.896441742250573,5.178704318936866
2.897438453104754,20.178704318936866
2.8984351639589354,20.178704318936866
2.8994318748131165,21.178704318936866
2.9004285856672976,17.178704318936866
2.901425296521479,17.178704318936866
2.90242200737566,4.178704318936866
2.903418718229841,4.178704318936866
2.9044154290840223,15.178704318936866
2.905412139938204,6.178704318936866
2.906408850792385,3.178704318936866
2.907405561646566,-2.821295681063134
2.9084022725007475,-5.821295681063134
2.9093989833549285,-23.821295681063134
2.9103956942091096,-15.821295681063134
2.9113924050632907,-4.821295681063134
2.912389115917472,4.178704318936866
2.9133858267716533,4.178704318936866
2.9143825376258343,2.178704318936866
2.915379248480016,4.178704318936866
2.916375959334197,19.178704318936866
2.917372670188378,12.178704318936866
2.9183693810425595,1.178704318936866
2.9193660918967406,-3.821295681063134
2.9203628027509216,-9.821295681063134
2.9213595136051027,-12.821295681063134
2.9223562244592842,-10.821295681063134
2.9233529353134653,-0.821295681063134
2.9243496461676464,-0.821295681063134
2.925346357021828,-3.821295681063134
2.926343067876009,-8.821295681063134
2.92733977873019,-4.821295681063134
2.928336489584371,0.178704318936866
2.9293332004385526,-4.821295681063134
2.9303299112927337,-10.821295681063134
2.9313266221469148,-18.821295681063134
2.9323233330010963,-14.821295681063134
2.9333200438552773,-7.821295681063134
2.9343167547094584,-14.821295681063134
2.93531346556364,-9.821295681063134
2.936310176417821,3.178704318936866
2.937306887272002,4.178704318936866
2.938303598126183,11.178704318936866
2.9393003089803647,16.178704318936866
2.9402970198345457,21.178704318936866
2.941293730688727,15.178704318936866
2.9422904415429083,10.178704318936866
2.9432871523970894,17.178704318936866
2.9442838632512704,4.178704318936866
2.9452805741054515,-0.821295681063134
2.946277284959633,4.178704318936866
2.947273995813814,-1.821295681063134
2.948270706667995,-3.821295681063134
2.9492674175221767,13.178704318936866
2.9502641283763578,10.178704318936866
2.951260839230539,-6.821295681063134
2.9522575500847204,-12.821295681063134
2.9532542609389014,-10.821295681063134
2.9542509717930825,-10.821295681063134
2.9552476826472636,-20.821295681063134
2.956244393501445,-4.821295681063134
2.957241104355626,-3.821295681063134
2.958237815209807,0.178704318936866
2.9592345260639887,12.178704318936866
2.96023123691817,8.178704318936866
2.961227947772351,8.178704318936866
2.9622246586265324,13.178704318936866
2.9632213694807135,1.178704318936866
2.9642180803348945,-7.821295681063134
2.9652147911890756,-2.821295681063134
2.966211502043257,0.178704318936866
2.967208212897438,0.178704318936866
2.9682049237516193,5.178704318936866
2.9692016346058008,8.178704318936866
2.970198345459982,2.178704318936866
2.971195056314163,-6.821295681063134
2.972191767168344,2.178704318936866
2.9731884780225255,0.178704318936866
2.9741851888767066,-13.821295681063134
2.9751818997308876,-10.821295681063134
2.976178610585069,-14.821295681063134
2.9771753214392502,-19.821295681063134
2.9781720322934313,-17.821295681063134
2.979168743147613,3.178704318936866
2.980165454001794,7.178704318936866
2.981162164855975,13.178704318936866
2.982158875710156,-5.821295681063134
2.9831555865643375,-4.821295681063134
2.9841522974185186,-3.821295681063134
2.9851490082726997,13.178704318936866
2.986145719126881,10.178704318936866
2.9871424299810623,12.178704318936866
2.9881391408352433,-4.821295681063134
2.9891358516894244,-1.821295681063134
2.990132562543606,6.178704318936866
2.991129273397787,-1.821295681063134
2.992125984251968,-1.821295681063134
2.9931226951061496,0.178704318936866
2.9941194059603307,0.178704318936866
2.9951161168145117,4.178704318936866
2.9961128276686932,8.178704318936866
2.9971095385228743,12.178704318936866
2.9981062493770554,13.178704318936866
2.9991029602312365,10.178704318936866
3.000099671085418,1.178704318936866
3.001096381939599,-0.821295681063134
3.00209309279378,1.178704318936866
3.0030898036479616,1.178704318936866
3.0040865145021427,-4.821295681063134
3.0050832253563238,-14.821295681063134
3.006079936210505,-18.821295681063134
3.0070766470646864,-15.821295681063134
3.0080733579188674,-28.821295681063134
3.0090700687730485,-19.821295681063134
3.01006677962723,-5.821295681063134
3.011063490481411,7.178704318936866
3.012060201335592,13.178704318936866
3.0130569121897737,8.178704318936866
3.0140536230439547,11.178704318936866
3.015050333898136,19.178704318936866
3.016047044752317,26.178704318936866
3.0170437556064984,30.178704318936866
3.0180404664606795,24.178704318936866
3.0190371773148605,6.178704318936866
3.020033888169042,1.178704318936866
3.021030599023223,-2.821295681063134
3.022027309877404,4.178704318936866
3.0230240207315853,11.178704318936866
3.024020731585767,5.178704318936866
3.025017442439948,-9.821295681063134
3.026014153294129,-18.821295681063134
3.0270108641483104,-26.821295681063134
3.0280075750024915,-34.821295681063134
3.0290042858566726,-24.821295681063134
3.030000996710854,-14.821295681063134
3.030997707565035,11.178704318936866
3.0319944184192162,26.178704318936866
3.0329911292733973,15.178704318936866
3.033987840127579,9.178704318936866
3.03498455098176,13.178704318936866
3.035981261835941,-3.821295681063134
3.0369779726901225,-11.821295681063134
3.0379746835443036,-14.821295681063134
3.0389713943984846,-12.821295681063134
3.039968105252666,-10.821295681063134
3.040964816106847,-8.821295681063134
3.0419615269610283,-5.821295681063134
3.0429582378152094,8.178704318936866
3.043954948669391,16.178704318936866
3.044951659523572,24.178704318936866
3.045948370377753,27.178704318936866
3.0469450812319345,12.178704318936866
3.0479417920861156,1.178704318936866
3.0489385029402967,7.178704318936866
3.0499352137944777,20.178704318936866
3.0509319246486593,9.178704318936866
3.0519286355028403,8.178704318936866
3.0529253463570214,9.178704318936866
3.053922057211203,5.178704318936866
3.054918768065384,-3.821295681063134
3.055915478919565,-10.821295681063134
3.0569121897737466,-13.821295681063134
3.0579089006279276,-14.821295681063134
3.0589056114821087,-20.821295681063134
3.05990232233629,-26.821295681063134
3.0608990331904713,-23.821295681063134
3.0618957440446524,-23.821295681063134
3.0628924548988334,-28.821295681063134
3.063889165753015,-31.821295681063134
3.064885876607196,-12.821295681063134
3.065882587461377,-3.821295681063134
3.066879298315558,-0.821295681063134
3.0678760091697397,-1.821295681063134
3.0688727200239208,-5.821295681063134
3.069869430878102,-2.821295681063134
3.0708661417322833,9.178704318936866
3.0718628525864644,23.178704318936866
3.0728595634406455,18.178704318936866
3.073856274294827,18.178704318936866
3.074852985149008,20.178704318936866
3.075849696003189,16.178704318936866
3.07684640685737,13.178704318936866
3.0778431177115517,4.178704318936866
3.078839828565733,5.178704318936866
3.079836539419914,-1.821295681063134
3.0808332502740954,3.178704318936866
3.0818299611282765,9.178704318936866
3.0828266719824575,6.178704318936866
3.0838233828366386,14.178704318936866
3.08482009369082,12.178704318936866
3.085816804545001,3.178704318936866
3.0868135153991823,5.178704318936866
3.0878102262533638,4.178704318936866
3.088806937107545,-5.821295681063134
3.089803647961726,-4.821295681063134
3.0908003588159074,-9.821295681063134
3.0917970696700885,-15.821295681063134
3.0927937805242696,-17.821295681063134
3.0937904913784506,-27.821295681063134
3.094787202232632,-22.821295681063134
3.095783913086813,-11.821295681063134
3.0967806239409943,-5.821295681063134
3.097777334795176,10.178704318936866
3.098774045649357,12.178704318936866
3.099770756503538,12.178704318936866
3.1007674673577195,15.178704318936866
3.1017641782119005,11.178704318936866
3.1027608890660816,18.178704318936866
3.1037575999202627,15.178704318936866
3.104754310774444,6.178704318936866
3.1057510216286253,-9.821295681063134
3.1067477324828063,-15.821295681063134
3.107744443336988,-22.821295681063134
3.108741154191169,-24.821295681063134
3.10973786504535,-26.821295681063134
3.110734575899531,-21.821295681063134
3.1117312867537126,-8.821295681063134
3.1127279976078936,-3.821295681063134
3.1137247084620747,16.178704318936866
3.1147214193162562,24.178704318936866
3.1157181301704373,27.178704318936866
3.1167148410246184,19.178704318936866
3.1177115518788,18.178704318936866
3.118708262732981,20.178704318936866
3.119704973587162,20.178704318936866
3.120701684441343,22.178704318936866
3.1216983952955246,17.178704318936866
3.1226951061497057,14.178704318936866
3.1236918170038868,8.178704318936866
3.1246885278580683,8.178704318936866
3.1256852387122493,-2.821295681063134
3.1266819495664304,-16.821295681063134
3.1276786604206115,-35.821295681063134
3.128675371274793,-33.821295681063134
3.129672082128974,-28.821295681063134
3.130668792983155,-31.821295681063134
3.1316655038373367,-25.821295681063134
3.1326622146915177,-15.821295681063134
3.133658925545699,-7.821295681063134
3.1346556363998803,3.178704318936866
3.1356523472540614,18.178704318936866
3.1366490581082425,27.178704318936866
3.1376457689624235,27.178704318936866
3.138642479816605,30.178704318936866
3.139639190670786,28.178704318936866
3.140635901524967,23.178704318936866
3.1416326123791487,14.178704318936866
3.1426293232333298,6.178704318936866
3.143626034087511,-6.821295681063134
3.144622744941692,-15.821295681063134
3.1456194557958734,-24.821295681063134
3.1466161666500545,-27.821295681063134
3.1476128775042356,-17.821295681063134
3.148609588358417,-10.821295681063134
3.149606299212598,-9.821295681063134
3.1506030100667792,5.178704318936866
3.1515997209209607,9.178704318936866
3.152596431775142,8.178704318936866
3.153593142629323,6.178704318936866
3.154589853483504,-7.821295681063134
3.1555865643376855,-13.821295681063134
3.1565832751918665,-9.821295681063134
3.1575799860460476,-2.821295681063134
3.158576696900229,-1.821295681063134
3.15957340775441,2.178704318936866
3.1605701186085913,10.178704318936866
3.1615668294627723,22.178704318936866
3.162563540316954,20.178704318936866
3.163560251171135,16.178704318936866
3.164556962025316,-1.821295681063134
3.1655536728794975,-4.821295681063134
3.1665503837336786,-11.821295681063134
3.1675470945878597,-11.821295681063134
