Time,EMG
0.0,11.0
0.000997348714666844,7.0
0.001994697429333688,5.0
0.002992046144000532,5.0
0.003989394858667376,2.0
0.0049867435733342205,1.0
0.005984092288001064,-7.0
0.006981441002667908,-8.0
0.007978789717334752,-12.0
0.008976138432001596,-11.0
0.009973487146668441,-10.0
0.010970835861335284,-7.0
0.011968184576002128,-6.0
0.012965533290668973,-5.0
0.013962882005335816,-7.0
0.014960230720002661,-1.0
0.015957579434669505,7.0
0.01695492814933635,10.0
0.01795227686400319,10.0
0.018949625578670037,12.0
0.019946974293336882,11.0
0.020944323008003723,6.0
0.02194167172267057,5.0
0.022939020437337414,5.0
0.023936369152004255,2.0
0.0249337178666711,-2.0
0.025931066581337946,-5.0
0.02692841529600479,-10.0
0.027925764010671632,-9.0
0.028923112725338478,-12.0
0.029920461440005323,-7.0
0.030917810154672164,-5.0
0.03191515886933901,-4.0
0.03291250758400585,-7.0
0.0339098562986727,-7.0
0.03490720501333954,-1.0
0.03590455372800638,5.0
0.03690190244267323,9.0
0.03789925115734007,10.0
0.038896599872006915,11.0
0.039893948586673764,12.0
0.040891297301340605,8.0
0.04188864601600745,5.0
0.042885994730674296,4.0
0.04388334344534114,4.0
0.04488069216000798,0.0
0.04587804087467483,-8.0
0.04687538958934167,-11.0
0.04787273830400851,-11.0
0.04887008701867536,-11.0
0.0498674357333422,-8.0
0.05086478444800905,-7.0
0.05186213316267589,-5.0
0.05285948187734273,-4.0
0.05385683059200958,-6.0
0.05485417930667642,-3.0
0.055851528021343265,2.0
0.056848876736010114,8.0
0.057846225450676955,9.0
0.0588435741653438,15.0
0.059840922880010645,12.0
0.06083827159467749,6.0
0.06183562030934433,6.0
0.06283296902401117,5.0
0.06383031773867802,6.0
0.06482766645334487,1.0
0.0658250151680117,-7.0
0.06682236388267855,-8.0
0.0678197125973454,-10.0
0.06881706131201223,-11.0
0.06981441002667908,-9.0
0.07081175874134593,-7.0
0.07180910745601277,-6.0
0.07280645617067961,-9.0
0.07380380488534646,-7.0
0.0748011536000133,-1.0
0.07579850231468015,6.0
0.076795851029347,10.0
0.07779319974401383,13.0
0.07879054845868068,12.0
0.07978789717334753,11.0
0.08078524588801436,5.0
0.08178259460268121,6.0
0.08277994331734806,5.0
0.0837772920320149,5.0
0.08477464074668174,0.0
0.08577198946134859,-6.0
0.08676933817601543,-9.0
0.08776668689068227,-8.0
0.08876403560534912,-10.0
0.08976138432001596,-11.0
0.0907587330346828,-8.0
0.09175608174934965,-8.0
0.09275343046401649,-8.0
0.09375077917868334,-4.0
0.09474812789335019,1.0
0.09574547660801702,7.0
0.09674282532268387,9.0
0.09774017403735072,12.0
0.09873752275201757,12.0
0.0997348714666844,8.0
0.10073222018135125,5.0
0.1017295688960181,6.0
0.10272691761068493,5.0
0.10372426632535178,4.0
0.10472161504001863,-2.0
0.10571896375468547,-5.0
0.10671631246935231,-8.0
0.10771366118401916,-10.0
0.108711009898686,-11.0
0.10970835861335285,-11.0
0.1107057073280197,-6.0
0.11170305604268653,-5.0
0.11270040475735338,-5.0
0.11369775347202023,-4.0
0.11469510218668706,0.0
0.11569245090135391,8.0
0.11668979961602076,7.0
0.1176871483306876,11.0
0.11868449704535444,12.0
0.11968184576002129,11.0
0.12067919447468813,6.0
0.12167654318935497,4.0
0.12267389190402182,3.0
0.12367124061868866,1.0
0.1246685893333555,0.0
0.12566593804802234,-4.0
0.1266632867626892,-10.0
0.12766063547735604,-9.0
0.12865798419202287,-11.0
0.12965533290668974,-10.0
0.13065268162135657,-6.0
0.1316500303360234,-7.0
0.13264737905069027,-7.0
0.1336447277653571,-5.0
0.13464207648002394,-2.0
0.1356394251946908,8.0
0.13663677390935763,12.0
0.13763412262402447,9.0
0.13863147133869133,12.0
0.13962882005335817,12.0
0.140626168768025,4.0
0.14162351748269186,4.0
0.1426208661973587,2.0
0.14361821491202553,4.0
0.1446155636266924,0.0
0.14561291234135923,-5.0
0.14661026105602606,-9.0
0.14760760977069293,-9.0
0.14860495848535976,-12.0
0.1496023072000266,-10.0
0.15059965591469346,-7.0
0.1515970046293603,-4.0
0.15259435334402713,-5.0
0.153591702058694,-5.0
0.15458905077336083,-3.0
0.15558639948802766,5.0
0.15658374820269452,9.0
0.15758109691736136,11.0
0.1585784456320282,9.0
0.15957579434669505,13.0
0.1605731430613619,5.0
0.16157049177602872,5.0
0.1625678404906956,4.0
0.16356518920536242,4.0
0.16456253792002926,0.0
0.16555988663469612,-6.0
0.16655723534936295,-10.0
0.1675545840640298,-10.0
0.16855193277869665,-13.0
0.16954928149336349,-10.0
0.17054663020803032,-6.0
0.17154397892269718,-7.0
0.17254132763736402,-6.0
0.17353867635203085,-5.0
0.17453602506669771,1.0
0.17553337378136455,5.0
0.17653072249603138,8.0
0.17752807121069825,9.0
0.17852541992536508,12.0
0.17952276864003192,8.0
0.18052011735469878,7.0
0.1815174660693656,7.0
0.18251481478403245,4.0
0.1835121634986993,3.0
0.18450951221336614,1.0
0.18550686092803298,-7.0
0.18650420964269984,-12.0
0.18750155835736668,-9.0
0.1884989070720335,-12.0
0.18949625578670037,-10.0
0.1904936045013672,-4.0
0.19149095321603404,-5.0
0.1924883019307009,-6.0
0.19348565064536774,-5.0
0.1944829993600346,1.0
0.19548034807470144,8.0
0.19647769678936827,11.0
0.19747504550403513,8.0
0.19847239421870197,11.0
0.1994697429333688,11.0
0.20046709164803567,6.0
0.2014644403627025,5.0
0.20246178907736934,4.0
0.2034591377920362,4.0
0.20445648650670303,-1.0
0.20545383522136987,-8.0
0.20645118393603673,-10.0
0.20744853265070357,-9.0
0.2084458813653704,-11.0
0.20944323008003726,-11.0
0.2104405787947041,-8.0
0.21143792750937093,-5.0
0.2124352762240378,-7.0
0.21343262493870463,-3.0
0.21442997365337146,1.0
0.21542732236803833,7.0
0.21642467108270516,9.0
0.217422019797372,11.0
0.21841936851203886,14.0
0.2194167172267057,12.0
0.22041406594137253,6.0
0.2214114146560394,4.0
0.22240876337070623,4.0
0.22340611208537306,2.0
0.22440346080003992,-1.0
0.22540080951470676,-6.0
0.2263981582293736,-8.0
0.22739550694404045,-8.0
0.2283928556587073,-12.0
0.22939020437337412,-10.0
0.23038755308804099,-7.0
0.23138490180270782,-5.0
0.23238225051737466,-4.0
0.23337959923204152,-3.0
0.23437694794670835,0.0
0.2353742966613752,6.0
0.23637164537604205,8.0
0.23736899409070888,10.0
0.23836634280537572,12.0
0.23936369152004258,11.0
0.24036104023470942,7.0
0.24135838894937625,3.0
0.2423557376640431,3.0
0.24335308637870995,4.0
0.24435043509337678,-1.0
0.24534778380804365,-5.0
0.24634513252271048,-10.0
0.24734248123737732,-8.0
0.24833982995204418,-8.0
0.249337178666711,-9.0
0.25033452738137785,-8.0
0.2513318760960447,-8.0
0.2523292248107115,-6.0
0.2533265735253784,-5.0
0.25432392224004524,2.0
0.2553212709547121,6.0
0.2563186196693789,9.0
0.25731596838404575,9.0
0.25831331709871264,12.0
0.25931066581337947,12.0
0.2603080145280463,5.0
0.26130536324271314,4.0
0.26230271195738,4.0
0.2633000606720468,3.0
0.2642974093867137,0.0
0.26529475810138053,-6.0
0.26629210681604737,-10.0
0.2672894555307142,-11.0
0.26828680424538104,-11.0
0.2692841529600479,-8.0
0.27028150167471476,-6.0
0.2712788503893816,-5.0
0.27227619910404843,-8.0
0.27327354781871527,-3.0
0.2742708965333821,2.0
0.27526824524804894,7.0
0.2762655939627158,8.0
0.27726294267738266,12.0
0.2782602913920495,11.0
0.27925764010671633,11.0
0.28025498882138317,5.0
0.28125233753605,6.0
0.2822496862507169,3.0
0.2832470349653837,3.0
0.28424438368005056,-2.0
0.2852417323947174,-8.0
0.28623908110938423,-8.0
0.28723642982405106,-8.0
0.28823377853871796,-11.0
0.2892311272533848,-10.0
0.2902284759680516,-5.0
0.29122582468271846,-7.0
0.2922231733973853,-7.0
0.29322052211205213,-4.0
0.294217870826719,2.0
0.29521521954138585,6.0
0.2962125682560527,10.0
0.2972099169707195,10.0
0.29820726568538636,10.0
0.2992046144000532,9.0
0.3002019631147201,6.0
0.3011993118293869,5.0
0.30219666054405375,7.0
0.3031940092587206,5.0
0.3041913579733874,-1.0
0.30518870668805426,-5.0
0.30618605540272115,-8.0
0.307183404117388,-11.0
0.3081807528320548,-11.0
0.30917810154672165,-10.0
0.3101754502613885,-7.0
0.3111727989760553,-8.0
0.3121701476907222,-6.0
0.31316749640538905,-5.0
0.3141648451200559,3.0
0.3151621938347227,7.0
0.31615954254938955,8.0
0.3171568912640564,12.0
0.3181542399787233,12.0
0.3191515886933901,8.0
0.32014893740805694,4.0
0.3211462861227238,4.0
0.3221436348373906,5.0
0.32314098355205745,2.0
0.32413833226672434,-2.0
0.3251356809813912,-7.0
0.326133029696058,-10.0
0.32713037841072484,-9.0
0.3281277271253917,-10.0
0.3291250758400585,-8.0
0.3301224245547254,-8.0
0.33111977326939224,-5.0
0.33211712198405907,-4.0
0.3331144706987259,-6.0
0.33411181941339274,1.0
0.3351091681280596,7.0
0.33610651684272647,8.0
0.3371038655573933,11.0
0.33810121427206014,13.0
0.33909856298672697,11.0
0.3400959117013938,6.0
0.34109326041606064,6.0
0.34209060913072753,4.0
0.34308795784539436,1.0
0.3440853065600612,-2.0
0.34508265527472803,-7.0
0.34608000398939487,-11.0
0.3470773527040617,-9.0
0.3480747014187286,-11.0
0.34907205013339543,-10.0
0.35006939884806226,-8.0
0.3510667475627291,-6.0
0.35206409627739593,-6.0
0.35306144499206277,-4.0
0.35405879370672966,1.0
0.3550561424213965,6.0
0.3560534911360633,10.0
0.35705083985073016,13.0
0.358048188565397,12.0
0.35904553728006383,12.0
0.3600428859947307,6.0
0.36104023470939756,7.0
0.3620375834240644,5.0
0.3630349321387312,3.0
0.36403228085339806,-1.0
0.3650296295680649,-7.0
0.3660269782827318,-11.0
0.3670243269973986,-11.0
0.36802167571206545,-12.0
0.3690190244267323,-8.0
0.3700163731413991,-4.0
0.37101372185606596,-5.0
0.37201107057073285,-5.0
0.3730084192853997,-5.0
0.3740057680000665,1.0
0.37500311671473335,5.0
0.3760004654294002,8.0
0.376997814144067,10.0
0.3779951628587339,12.0
0.37899251157340075,10.0
0.3799898602880676,7.0
0.3809872090027344,6.0
0.38198455771740125,2.0
0.3829819064320681,2.0
0.383979255146735,-2.0
0.3849766038614018,-6.0
0.38597395257606865,-9.0
0.3869713012907355,-10.0
0.3879686500054023,-11.0
0.3889659987200692,-8.0
0.38996334743473604,-4.0
0.3909606961494029,-5.0
0.3919580448640697,-7.0
0.39295539357873654,-6.0
0.3939527422934034,1.0
0.39495009100807027,7.0
0.3959474397227371,10.0
0.39694478843740394,11.0
0.3979421371520708,11.0
0.3989394858667376,9.0
0.39993683458140444,6.0
0.40093418329607133,4.0
0.40193153201073817,5.0
0.402928880725405,3.0
0.40392622944007184,-3.0
0.4049235781547387,-6.0
0.4059209268694055,-8.0
0.4069182755840724,-10.0
0.40791562429873923,-12.0
0.40891297301340607,-8.0
0.4099103217280729,-6.0
0.41090767044273974,-6.0
0.41190501915740657,-8.0
0.41290236787207346,-4.0
0.4138997165867403,1.0
0.41489706530140713,6.0
0.41589441401607397,8.0
0.4168917627307408,11.0
0.41788911144540763,11.0
0.4188864601600745,8.0
0.41988380887474136,8.0
0.4208811575894082,8.0
0.42187850630407503,4.0
0.42287585501874186,1.0
0.4238732037334087,-1.0
0.4248705524480756,-7.0
0.4258679011627424,-8.0
0.42686524987740926,-10.0
0.4278625985920761,-10.0
0.42885994730674293,-8.0
0.42985729602140976,-4.0
0.43085464473607665,-4.0
0.4318519934507435,-5.0
0.4328493421654103,-5.0
0.43384669088007716,-1.0
0.434844039594744,6.0
0.4358413883094108,8.0
0.4368387370240777,11.0
0.43783608573874455,14.0
0.4388334344534114,9.0
0.4398307831680782,5.0
0.44082813188274506,5.0
0.4418254805974119,4.0
0.4428228293120788,3.0
0.4438201780267456,-2.0
0.44481752674141245,-7.0
0.4458148754560793,-8.0
0.4468122241707461,-9.0
0.44780957288541295,-11.0
0.44880692160007984,-10.0
0.4498042703147467,-7.0
0.4508016190294135,-9.0
0.45179896774408035,-6.0
0.4527963164587472,-3.0
0.453793665173414,1.0
0.4547910138880809,9.0
0.45578836260274774,10.0
0.4567857113174146,12.0
0.4577830600320814,13.0
0.45878040874674825,10.0
0.4597777574614151,5.0
0.46077510617608197,3.0
0.4617724548907488,1.0
0.46276980360541564,4.0
0.4637671523200825,-1.0
0.4647645010347493,-6.0
0.46576184974941615,-9.0
0.46675919846408304,-10.0
0.46775654717874987,-14.0
0.4687538958934167,-7.0
0.46975124460808354,-7.0
0.4707485933227504,-8.0
0.4717459420374172,-6.0
0.4727432907520841,-4.0
0.47374063946675093,1.0
0.47473798818141777,7.0
0.4757353368960846,8.0
0.47673268561075144,10.0
0.4777300343254183,10.0
0.47872738304008516,9.0
0.479724731754752,6.0
0.48072208046941883,5.0
0.48171942918408567,4.0
0.4827167778987525,3.0
0.48371412661341934,-3.0
0.4847114753280862,-8.0
0.48570882404275306,-10.0
0.4867061727574199,-8.0
0.48770352147208673,-11.0
0.48870087018675357,-7.0
0.4896982189014204,-5.0
0.4906955676160873,-6.0
0.4916929163307541,-5.0
0.49269026504542096,-4.0
0.4936876137600878,3.0
0.49468496247475463,7.0
0.49568231118942147,9.0
0.49667965990408836,10.0
0.4976770086187552,12.0
0.498674357333422,9.0
0.49967170604808886,7.0
0.5006690547627557,5.0
0.5016664034774225,5.0
0.5026637521920894,4.0
0.5036611009067562,-3.0
0.504658449621423,-9.0
0.50565579833609,-9.0
0.5066531470507568,-11.0
0.5076504957654236,-12.0
0.5086478444800905,-11.0
0.5096451931947573,-6.0
0.5106425419094242,-5.0
0.511639890624091,-7.0
0.5126372393387578,-4.0
0.5136345880534247,0.0
0.5146319367680915,6.0
0.5156292854827583,9.0
0.5166266341974253,9.0
0.5176239829120921,15.0
0.5186213316267589,11.0
0.5196186803414258,6.0
0.5206160290560926,5.0
0.5216133777707594,4.0
0.5226107264854263,3.0
0.5236080752000931,-1.0
0.52460542391476,-9.0
0.5256027726294268,-10.0
0.5266001213440936,-10.0
0.5275974700587605,-11.0
0.5285948187734274,-9.0
0.5295921674880942,-7.0
0.5305895162027611,-5.0
0.5315868649174279,-8.0
0.5325842136320947,-5.0
0.5335815623467616,2.0
0.5345789110614284,9.0
0.5355762597760952,9.0
0.5365736084907621,12.0
0.5375709572054289,13.0
0.5385683059200957,9.0
0.5395656546347626,7.0
0.5405630033494295,5.0
0.5415603520640964,4.0
0.5425577007787632,1.0
0.54355504949343,-3.0
0.5445523982080969,-8.0
0.5455497469227637,-8.0
0.5465470956374305,-11.0
0.5475444443520974,-11.0
0.5485417930667642,-6.0
0.549539141781431,-5.0
0.5505364904960979,-7.0
0.5515338392107647,-8.0
0.5525311879254317,-5.0
0.5535285366400985,3.0
0.5545258853547653,9.0
0.5555232340694322,11.0
0.556520582784099,9.0
0.5575179314987658,12.0
0.5585152802134327,10.0
0.5595126289280995,6.0
0.5605099776427663,4.0
0.5615073263574332,1.0
0.5625046750721,1.0
0.5635020237867668,-2.0
0.5644993725014338,-8.0
0.5654967212161006,-9.0
0.5664940699307675,-11.0
0.5674914186454343,-13.0
0.5684887673601011,-10.0
0.569486116074768,-3.0
0.5704834647894348,-6.0
0.5714808135041016,-6.0
0.5724781622187685,-3.0
0.5734755109334353,3.0
0.5744728596481021,7.0
0.575470208362769,9.0
0.5764675570774359,11.0
0.5774649057921027,12.0
0.5784622545067696,8.0
0.5794596032214364,6.0
0.5804569519361032,6.0
0.5814543006507701,4.0
0.5824516493654369,2.0
0.5834489980801038,-3.0
0.5844463467947706,-7.0
0.5854436955094374,-9.0
0.5864410442241043,-10.0
0.5874383929387711,-12.0
0.588435741653438,-10.0
0.5894330903681049,-5.0
0.5904304390827717,-6.0
0.5914277877974385,-5.0
0.5924251365121054,-5.0
0.5934224852267722,0.0
0.594419833941439,9.0
0.5954171826561059,11.0
0.5964145313707727,12.0
0.5974118800854396,12.0
0.5984092288001064,10.0
0.5994065775147732,5.0
0.6004039262294402,5.0
0.601401274944107,4.0
0.6023986236587738,0.0
0.6033959723734407,-2.0
0.6043933210881075,-7.0
0.6053906698027743,-10.0
0.6063880185174412,-11.0
0.607385367232108,-12.0
0.6083827159467748,-10.0
0.6093800646614417,-6.0
0.6103774133761085,-5.0
0.6113747620907753,-5.0
0.6123721108054423,-3.0
0.6133694595201091,2.0
0.614366808234776,8.0
0.6153641569494428,6.0
0.6163615056641096,13.0
0.6173588543787765,11.0
0.6183562030934433,10.0
0.6193535518081101,6.0
0.620350900522777,6.0
0.6213482492374438,3.0
0.6223455979521106,2.0
0.6233429466667775,-1.0
0.6243402953814444,-8.0
0.6253376440961113,-11.0
0.6263349928107781,-10.0
0.6273323415254449,-13.0
0.6283296902401118,-8.0
0.6293270389547786,-6.0
0.6303243876694454,-5.0
0.6313217363841123,-6.0
0.6323190850987791,-4.0
0.6333164338134459,1.0
0.6343137825281128,8.0
0.6353111312427796,8.0
0.6363084799574465,12.0
0.6373058286721134,10.0
0.6383031773867802,9.0
0.639300526101447,6.0
0.6402978748161139,4.0
0.6412952235307807,4.0
0.6422925722454476,2.0
0.6432899209601144,-2.0
0.6442872696747812,-6.0
0.6452846183894481,-11.0
0.6462819671041149,-10.0
0.6472793158187818,-11.0
0.6482766645334487,-8.0
0.6492740132481155,-7.0
0.6502713619627823,-5.0
0.6512687106774492,-6.0
0.652266059392116,-3.0
0.6532634081067829,3.0
0.6542607568214497,8.0
0.6552581055361165,9.0
0.6562554542507834,11.0
0.6572528029654502,14.0
0.658250151680117,11.0
0.659247500394784,6.0
0.6602448491094508,5.0
0.6612421978241176,3.0
0.6622395465387845,3.0
0.6632368952534513,-4.0
0.6642342439681181,-7.0
0.665231592682785,-10.0
0.6662289413974518,-7.0
0.6672262901121186,-12.0
0.6682236388267855,-9.0
0.6692209875414523,-5.0
0.6702183362561192,-6.0
0.6712156849707861,-7.0
0.6722130336854529,-3.0
0.6732103824001198,3.0
0.6742077311147866,8.0
0.6752050798294534,9.0
0.6762024285441203,12.0
0.6771997772587871,12.0
0.6781971259734539,9.0
0.6791944746881208,6.0
0.6801918234027876,7.0
0.6811891721174544,4.0
0.6821865208321213,3.0
0.6831838695467882,-3.0
0.6841812182614551,-7.0
0.6851785669761219,-10.0
0.6861759156907887,-11.0
0.6871732644054556,-13.0
0.6881706131201224,-11.0
0.6891679618347892,-4.0
0.6901653105494561,-4.0
0.6911626592641229,-5.0
0.6921600079787897,-3.0
0.6931573566934566,3.0
0.6941547054081234,6.0
0.6951520541227904,7.0
0.6961494028374572,13.0
0.697146751552124,12.0
0.6981441002667909,8.0
0.6991414489814577,5.0
0.7001387976961245,4.0
0.7011361464107914,4.0
0.7021334951254582,4.0
0.703130843840125,-2.0
0.7041281925547919,-8.0
0.7051255412694587,-8.0
0.7061228899841255,-13.0
0.7071202386987925,-12.0
0.7081175874134593,-8.0
0.7091149361281261,-6.0
0.710112284842793,-7.0
0.7111096335574598,-4.0
0.7121069822721267,-3.0
0.7131043309867935,3.0
0.7141016797014603,6.0
0.7150990284161272,11.0
0.716096377130794,12.0
0.7170937258454608,13.0
0.7180910745601277,9.0
0.7190884232747946,6.0
0.7200857719894614,4.0
0.7210831207041283,5.0
0.7220804694187951,0.0
0.723077818133462,-2.0
0.7240751668481288,-9.0
0.7250725155627956,-12.0
0.7260698642774625,-11.0
0.7270672129921293,-10.0
0.7280645617067961,-8.0
0.729061910421463,-7.0
0.7300592591361298,-8.0
0.7310566078507967,-4.0
0.7320539565654636,-3.0
0.7330513052801304,3.0
0.7340486539947972,5.0
0.7350460027094641,11.0
0.7360433514241309,9.0
0.7370407001387977,12.0
0.7380380488534646,9.0
0.7390353975681314,8.0
0.7400327462827982,3.0
0.7410300949974651,3.0
0.7420274437121319,3.0
0.7430247924267989,-3.0
0.7440221411414657,-10.0
0.7450194898561325,-10.0
0.7460168385707994,-10.0
0.7470141872854662,-11.0
0.748011536000133,-8.0
0.7490088847147999,-5.0
0.7500062334294667,-4.0
0.7510035821441335,-4.0
0.7520009308588004,-3.0
0.7529982795734672,3.0
0.753995628288134,8.0
0.754992977002801,9.0
0.7559903257174678,12.0
0.7569876744321347,11.0
0.7579850231468015,9.0
0.7589823718614683,6.0
0.7599797205761352,4.0
0.760977069290802,4.0
0.7619744180054688,2.0
0.7629717667201357,-3.0
0.7639691154348025,-7.0
0.7649664641494693,-10.0
0.7659638128641362,-9.0
0.7669611615788031,-11.0
0.76795851029347,-6.0
0.7689558590081368,-3.0
0.7699532077228036,-8.0
0.7709505564374705,-7.0
0.7719479051521373,-4.0
0.7729452538668041,2.0
0.773942602581471,8.0
0.7749399512961378,8.0
0.7759373000108046,11.0
0.7769346487254715,13.0
0.7779319974401384,10.0
0.7789293461548052,8.0
0.7799266948694721,4.0
0.7809240435841389,3.0
0.7819213922988058,1.0
0.7829187410134726,-4.0
0.7839160897281394,-7.0
0.7849134384428063,-8.0
0.7859107871574731,-9.0
0.7869081358721399,-11.0
0.7879054845868068,-10.0
0.7889028333014736,-5.0
0.7899001820161405,-8.0
0.7908975307308074,-5.0
0.7918948794454742,-4.0
0.792892228160141,5.0
0.7938895768748079,7.0
0.7948869255894747,10.0
0.7958842743041415,14.0
0.7968816230188084,12.0
0.7978789717334752,8.0
0.798876320448142,4.0
0.7998736691628089,6.0
0.8008710178774757,6.0
0.8018683665921427,3.0
0.8028657153068095,-4.0
0.8038630640214763,-8.0
0.8048604127361432,-11.0
0.80585776145081,-12.0
0.8068551101654768,-11.0
0.8078524588801437,-8.0
0.8088498075948105,-8.0
0.8098471563094773,-5.0
0.8108445050241442,-5.0
0.811841853738811,-4.0
0.8128392024534778,3.0
0.8138365511681448,8.0
0.8148338998828116,10.0
0.8158312485974785,12.0
0.8168285973121453,13.0
0.8178259460268121,9.0
0.818823294741479,4.0
0.8198206434561458,6.0
0.8208179921708126,4.0
0.8218153408854795,1.0
0.8228126896001463,-3.0
0.8238100383148131,-6.0
0.82480738702948,-11.0
0.8258047357441469,-11.0
0.8268020844588138,-11.0
0.8277994331734806,-7.0
0.8287967818881474,-5.0
0.8297941306028143,-5.0
0.8307914793174811,-4.0
0.8317888280321479,-3.0
0.8327861767468148,3.0
0.8337835254614816,8.0
0.8347808741761484,9.0
0.8357782228908153,9.0
0.8367755716054821,12.0
0.837772920320149,11.0
0.8387702690348159,8.0
0.8397676177494827,6.0
0.8407649664641496,4.0
0.8417623151788164,1.0
0.8427596638934832,-4.0
0.8437570126081501,-10.0
0.8447543613228169,-11.0
0.8457517100374837,-10.0
0.8467490587521506,-12.0
0.8477464074668174,-9.0
0.8487437561814842,-7.0
0.8497411048961512,-6.0
0.850738453610818,-5.0
0.8517358023254848,-2.0
0.8527331510401517,5.0
0.8537304997548185,11.0
0.8547278484694854,9.0
0.8557251971841522,12.0
0.856722545898819,13.0
0.8577198946134859,6.0
0.8587172433281527,6.0
0.8597145920428195,4.0
0.8607119407574864,3.0
0.8617092894721533,3.0
0.8627066381868201,-5.0
0.863703986901487,-7.0
0.8647013356161538,-11.0
0.8656986843308206,-11.0
0.8666960330454875,-13.0
0.8676933817601543,-9.0
0.8686907304748211,-4.0
0.869688079189488,-5.0
0.8706854279041548,-5.0
0.8716827766188217,-3.0
0.8726801253334885,4.0
0.8736774740481554,10.0
0.8746748227628223,8.0
0.8756721714774891,10.0
0.8766695201921559,13.0
0.8776668689068228,8.0
0.8786642176214896,5.0
0.8796615663361564,5.0
0.8806589150508233,4.0
0.8816562637654901,3.0
0.882653612480157,-4.0
0.8836509611948238,-9.0
0.8846483099094906,-9.0
0.8856456586241576,-11.0
0.8866430073388244,-10.0
0.8876403560534912,-8.0
0.8886377047681581,-4.0
0.8896350534828249,-7.0
0.8906324021974917,-5.0
0.8916297509121586,-3.0
0.8926270996268254,4.0
0.8936244483414922,8.0
0.8946217970561591,10.0
0.8956191457708259,9.0
0.8966164944854929,11.0
0.8976138432001597,10.0
0.8986111919148265,7.0
0.8996085406294934,4.0
0.9006058893441602,3.0
0.901603238058827,1.0
0.9026005867734939,-3.0
0.9035979354881607,-10.0
0.9045952842028275,-10.0
0.9055926329174944,-11.0
0.9065899816321612,-11.0
0.907587330346828,-9.0
0.908584679061495,-7.0
0.9095820277761618,-5.0
0.9105793764908287,-4.0
0.9115767252054955,-3.0
0.9125740739201623,4.0
0.9135714226348292,8.0
0.914568771349496,9.0
0.9155661200641628,10.0
0.9165634687788297,11.0
0.9175608174934965,8.0
0.9185581662081633,5.0
0.9195555149228302,5.0
0.9205528636374971,2.0
0.9215502123521639,2.0
0.9225475610668308,-3.0
0.9235449097814976,-8.0
0.9245422584961644,-9.0
0.9255396072108313,-11.0
0.9265369559254981,-10.0
0.927534304640165,-6.0
0.9285316533548318,-6.0
0.9295290020694986,-7.0
0.9305263507841655,-8.0
0.9315236994988323,-4.0
0.9325210482134992,5.0
0.9335183969281661,9.0
0.9345157456428329,9.0
0.9355130943574997,13.0
0.9365104430721666,13.0
0.9375077917868334,8.0
0.9385051405015002,4.0
0.9395024892161671,4.0
0.9404998379308339,5.0
0.9414971866455007,1.0
0.9424945353601676,-4.0
0.9434918840748344,-9.0
0.9444892327895014,-9.0
0.9454865815041682,-10.0
0.946483930218835,-11.0
0.9474812789335019,-8.0
0.9484786276481687,-5.0
0.9494759763628355,-6.0
0.9504733250775024,-7.0
0.9514706737921692,-3.0
0.952468022506836,3.0
0.9534653712215029,9.0
0.9544627199361697,10.0
0.9554600686508365,10.0
0.9564574173655035,12.0
0.9574547660801703,8.0
0.9584521147948372,6.0
0.959449463509504,5.0
0.9604468122241708,2.0
0.9614441609388377,2.0
0.9624415096535045,-6.0
0.9634388583681713,-9.0
0.9644362070828382,-9.0
0.965433555797505,-12.0
0.9664309045121718,-11.0
0.9674282532268387,-6.0
0.9684256019415056,-5.0
0.9694229506561725,-4.0
0.9704202993708393,-8.0
0.9714176480855061,-4.0
0.972414996800173,4.0
0.9734123455148398,8.0
0.9744096942295066,10.0
0.9754070429441735,12.0
0.9764043916588403,13.0
0.9774017403735071,8.0
0.978399089088174,5.0
0.9793964378028408,5.0
0.9803937865175077,4.0
0.9813911352321746,3.0
0.9823884839468414,-3.0
0.9833858326615083,-9.0
0.9843831813761751,-10.0
0.9853805300908419,-12.0
0.9863778788055088,-11.0
0.9873752275201756,-6.0
0.9883725762348424,-6.0
0.9893699249495093,-5.0
0.9903672736641761,-6.0
0.9913646223788429,-2.0
0.9923619710935099,2.0
0.9933593198081767,7.0
0.9943566685228435,9.0
0.9953540172375104,12.0
0.9963513659521772,12.0
0.997348714666844,11.0
0.9983460633815109,7.0
0.9993434120961777,4.0
1.0003407608108446,4.0
1.0013381095255114,1.0
1.0023354582401782,-4.0
1.003332806954845,-8.0
1.004330155669512,-10.0
1.0053275043841787,-12.0
1.0063248530988456,-11.0
1.0073222018135124,-8.0
1.0083195505281792,-4.0
1.009316899242846,-5.0
1.0103142479575131,-5.0
1.01131159667218,-1.0
1.0123089453868468,5.0
1.0133062941015136,7.0
1.0143036428161805,8.0
1.0153009915308473,12.0
1.0162983402455141,12.0
1.017295688960181,8.0
1.0182930376748478,5.0
1.0192903863895146,4.0
1.0202877351041815,3.0
1.0212850838188483,0.0
1.0222824325335151,-4.0
1.023279781248182,-8.0
1.0242771299628488,-8.0
1.0252744786775156,-12.0
1.0262718273921825,-11.0
1.0272691761068493,-7.0
1.0282665248215161,-4.0
1.029263873536183,-5.0
1.0302612222508498,-6.0
1.0312585709655167,-4.0
1.0322559196801835,6.0
1.0332532683948505,7.0
1.0342506171095174,9.0
1.0352479658241842,13.0
1.036245314538851,12.0
1.0372426632535179,8.0
1.0382400119681847,4.0
1.0392373606828516,3.0
1.0402347093975184,2.0
1.0412320581121852,1.0
1.042229406826852,-3.0
1.043226755541519,-10.0
1.0442241042561857,-8.0
1.0452214529708526,-11.0
1.0462188016855194,-11.0
1.0472161504001862,-7.0
1.048213499114853,-4.0
1.04921084782952,-8.0
1.0502081965441867,-5.0
1.0512055452588536,-2.0
1.0522028939735204,4.0
1.0532002426881872,8.0
1.054197591402854,9.0
1.055194940117521,10.0
1.0561922888321877,12.0
1.0571896375468548,8.0
1.0581869862615216,6.0
1.0591843349761885,4.0
1.0601816836908553,4.0
1.0611790324055221,1.0
1.062176381120189,-4.0
1.0631737298348558,-8.0
1.0641710785495226,-11.0
1.0651684272641895,-10.0
1.0661657759788563,-9.0
1.0671631246935231,-9.0
1.06816047340819,-6.0
1.0691578221228568,-7.0
1.0701551708375237,-7.0
1.0711525195521905,-2.0
1.0721498682668573,4.0
1.0731472169815242,9.0
1.074144565696191,9.0
1.0751419144108578,12.0
1.0761392631255247,12.0
1.0771366118401915,7.0
1.0781339605548583,6.0
1.0791313092695252,4.0
1.080128657984192,2.0
1.081126006698859,1.0
1.082123355413526,-3.0
1.0831207041281927,-8.0
1.0841180528428596,-9.0
1.0851154015575264,-9.0
1.0861127502721932,-11.0
1.08711009898686,-8.0
1.088107447701527,-7.0
1.0891047964161937,-7.0
1.0901021451308606,-4.0
1.0910994938455274,-2.0
1.0920968425601942,4.0
1.093094191274861,8.0
1.094091539989528,9.0
1.0950888887041947,11.0
1.0960862374188616,12.0
1.0970835861335284,8.0
1.0980809348481952,6.0
1.099078283562862,3.0
1.100075632277529,4.0
1.1010729809921957,1.0
1.1020703297068626,-3.0
1.1030676784215294,-7.0
1.1040650271361963,-9.0
1.1050623758508633,-12.0
1.1060597245655301,-10.0
1.107057073280197,-7.0
1.1080544219948638,-5.0
1.1090517707095306,-5.0
1.1100491194241975,-6.0
1.1110464681388643,-3.0
1.1120438168535312,4.0
1.113041165568198,10.0
1.1140385142828648,8.0
1.1150358629975317,13.0
1.1160332117121985,11.0
1.1170305604268653,8.0
1.1180279091415322,6.0
1.119025257856199,4.0
1.1200226065708658,4.0
1.1210199552855327,1.0
1.1220173040001995,-6.0
1.1230146527148663,-8.0
1.1240120014295332,-10.0
1.1250093501442,-11.0
1.1260066988588668,-10.0
1.1270040475735337,-7.0
1.1280013962882005,-5.0
1.1289987450028676,-5.0
1.1299960937175344,-5.0
1.1309934424322012,-3.0
1.131990791146868,5.0
1.132988139861535,8.0
1.1339854885762017,10.0
1.1349828372908686,12.0
1.1359801860055354,12.0
1.1369775347202022,7.0
1.137974883434869,2.0
1.138972232149536,3.0
1.1399695808642027,5.0
1.1409669295788696,3.0
1.1419642782935364,-3.0
1.1429616270082033,-9.0
1.14395897572287,-8.0
1.144956324437537,-13.0
1.1459536731522038,-9.0
1.1469510218668706,-8.0
1.1479483705815374,-7.0
1.1489457192962043,-8.0
1.149943068010871,-5.0
1.150940416725538,-2.0
1.151937765440205,4.0
1.1529351141548718,9.0
1.1539324628695387,9.0
1.1549298115842055,12.0
1.1559271602988723,11.0
1.1569245090135392,8.0
1.157921857728206,5.0
1.1589192064428728,4.0
1.1599165551575397,4.0
1.1609139038722065,1.0
1.1619112525868733,-3.0
1.1629086013015402,-8.0
1.163905950016207,-8.0
1.1649032987308738,-9.0
1.1659006474455407,-13.0
1.1668979961602075,-6.0
1.1678953448748743,-4.0
1.1688926935895412,-5.0
1.169890042304208,-7.0
1.1708873910188748,-3.0
1.1718847397335417,6.0
1.1728820884482085,11.0
1.1738794371628753,9.0
1.1748767858775422,10.0
1.1758741345922092,12.0
1.176871483306876,7.0
1.177868832021543,6.0
1.1788661807362097,3.0
1.1798635294508766,3.0
1.1808608781655434,2.0
1.1818582268802102,-6.0
1.182855575594877,-9.0
1.183852924309544,-8.0
1.1848502730242108,-11.0
1.1858476217388776,-11.0
1.1868449704535444,-8.0
1.1878423191682113,-4.0
1.188839667882878,-6.0
1.189837016597545,-7.0
1.1908343653122118,-2.0
1.1918317140268786,4.0
1.1928290627415454,8.0
1.1938264114562123,10.0
1.194823760170879,12.0
1.195821108885546,12.0
1.1968184576002128,6.0
1.1978158063148796,5.0
1.1988131550295464,4.0
1.1998105037442135,5.0
1.2008078524588803,0.0
1.2018052011735472,-5.0
1.202802549888214,-8.0
1.2037998986028808,-10.0
1.2047972473175477,-11.0
1.2057945960322145,-11.0
1.2067919447468813,-7.0
1.2077892934615482,-7.0
1.208786642176215,-4.0
1.2097839908908818,-6.0
1.2107813396055487,-1.0
1.2117786883202155,3.0
1.2127760370348823,10.0
1.2137733857495492,10.0
1.214770734464216,13.0
1.2157680831788829,12.0
1.2167654318935497,9.0
1.2177627806082165,5.0
1.2187601293228834,4.0
1.2197574780375502,1.0
1.220754826752217,0.0
1.2217521754668839,-4.0
1.2227495241815507,-9.0
1.2237468728962178,-8.0
1.2247442216108846,-11.0
1.2257415703255514,-11.0
1.2267389190402183,-9.0
1.227736267754885,-5.0
1.228733616469552,-6.0
1.2297309651842188,-7.0
1.2307283138988856,-2.0
1.2317256626135524,5.0
1.2327230113282193,10.0
1.233720360042886,11.0
1.234717708757553,10.0
1.2357150574722198,11.0
1.2367124061868866,8.0
1.2377097549015534,4.0
1.2387071036162203,3.0
1.239704452330887,3.0
1.240701801045554,-1.0
1.2416991497602208,-3.0
1.2426964984748876,-8.0
1.2436938471895544,-10.0
1.2446911959042213,-13.0
1.2456885446188881,-10.0
1.246685893333555,-8.0
1.247683242048222,-6.0
1.2486805907628888,-5.0
1.2496779394775557,-6.0
1.2506752881922225,-2.0
1.2516726369068893,5.0
1.2526699856215562,9.0
1.253667334336223,11.0
1.2546646830508899,12.0
1.2556620317655567,10.0
1.2566593804802235,7.0
1.2576567291948904,5.0
1.2586540779095572,4.0
1.259651426624224,3.0
1.2606487753388909,1.0
1.2616461240535577,-6.0
1.2626434727682245,-10.0
1.2636408214828914,-9.0
1.2646381701975582,-11.0
1.265635518912225,-12.0
1.2666328676268919,-9.0
1.2676302163415587,-7.0
1.2686275650562255,-2.0
1.2696249137708924,-6.0
1.2706222624855592,-2.0
1.2716196112002263,6.0
1.272616959914893,9.0
1.27361430862956,10.0
1.2746116573442268,12.0
1.2756090060588936,12.0
1.2766063547735604,8.0
1.2776037034882273,5.0
1.278601052202894,4.0
1.279598400917561,5.0
1.2805957496322278,-1.0
1.2815930983468946,-5.0
1.2825904470615614,-11.0
1.2835877957762283,-9.0
1.2845851444908951,-12.0
1.285582493205562,-11.0
1.2865798419202288,-6.0
1.2875771906348956,-8.0
1.2885745393495625,-8.0
1.2895718880642293,-5.0
1.2905692367788961,1.0
1.291566585493563,6.0
1.2925639342082298,8.0
1.2935612829228966,9.0
1.2945586316375637,12.0
1.2955559803522305,12.0
1.2965533290668974,7.0
1.2975506777815642,6.0
1.298548026496231,4.0
1.2995453752108979,3.0
1.3005427239255647,2.0
1.3015400726402315,-5.0
1.3025374213548984,-8.0
1.3035347700695652,-10.0
1.304532118784232,-12.0
1.3055294674988989,-11.0
1.3065268162135657,-7.0
1.3075241649282325,-7.0
1.3085215136428994,-5.0
1.3095188623575662,-5.0
1.310516211072233,1.0
1.3115135597868999,6.0
1.3125109085015667,11.0
1.3135082572162335,10.0
1.3145056059309004,12.0
1.3155029546455672,10.0
1.316500303360234,8.0
1.3174976520749009,4.0
1.318495000789568,4.0
1.3194923495042348,3.0
1.3204896982189016,0.0
1.3214870469335684,-9.0
1.3224843956482353,-8.0
1.3234817443629021,-8.0
1.324479093077569,-14.0
1.3254764417922358,-11.0
1.3264737905069026,-7.0
1.3274711392215695,-6.0
1.3284684879362363,-4.0
1.3294658366509031,-5.0
1.33046318536557,0.0
1.3314605340802368,4.0
1.3324578827949036,8.0
1.3334552315095705,9.0
1.3344525802242373,12.0
1.3354499289389041,12.0
1.336447277653571,6.0
1.3374446263682378,6.0
1.3384419750829046,4.0
1.3394393237975715,1.0
1.3404366725122383,1.0
1.3414340212269051,-4.0
1.3424313699415722,-8.0
1.343428718656239,-10.0
1.3444260673709059,-10.0
1.3454234160855727,-8.0
1.3464207648002395,-8.0
1.3474181135149064,-5.0
1.3484154622295732,-5.0
1.34941281094424,-6.0
1.3504101596589069,-1.0
1.3514075083735737,4.0
1.3524048570882405,8.0
1.3534022058029074,12.0
1.3543995545175742,13.0
1.355396903232241,12.0
1.3563942519469079,8.0
1.3573916006615747,5.0
1.3583889493762416,4.0
1.3593862980909084,4.0
1.3603836468055752,-2.0
1.361380995520242,-6.0
1.362378344234909,-10.0
1.3633756929495757,-11.0
1.3643730416642426,-10.0
1.3653703903789094,-11.0
1.3663677390935764,-5.0
1.3673650878082433,-7.0
1.3683624365229101,-7.0
1.369359785237577,-5.0
1.3703571339522438,0.0
1.3713544826669106,7.0
1.3723518313815775,7.0
1.3733491800962443,9.0
1.3743465288109111,12.0
1.375343877525578,11.0
1.3763412262402448,7.0
1.3773385749549116,2.0
1.3783359236695785,3.0
1.3793332723842453,5.0
1.3803306210989121,2.0
1.381327969813579,-5.0
1.3823253185282458,-11.0
1.3833226672429126,-10.0
1.3843200159575795,-8.0
1.3853173646722463,-8.0
1.3863147133869131,-10.0
1.38731206210158,-8.0
1.3883094108162468,-6.0
1.3893067595309136,-5.0
1.3903041082455807,0.0
1.3913014569602475,5.0
1.3922988056749144,6.0
1.3932961543895812,7.0
1.394293503104248,13.0
1.3952908518189149,12.0
1.3962882005335817,8.0
1.3972855492482485,7.0
1.3982828979629154,4.0
1.3992802466775822,5.0
1.400277595392249,-1.0
1.4012749441069159,-4.0
1.4022722928215827,-10.0
1.4032696415362496,-10.0
1.4042669902509164,-10.0
1.4052643389655832,-11.0
1.40626168768025,-8.0
1.407259036394917,-5.0
1.4082563851095837,-7.0
1.4092537338242506,-8.0
1.4102510825389174,0.0
1.4112484312535842,6.0
1.412245779968251,10.0
1.4132431286829181,10.0
1.414240477397585,11.0
1.4152378261122518,12.0
1.4162351748269186,8.0
1.4172325235415855,1.0
1.4182298722562523,-1.0
1.4192272209709191,-3.0
1.420224569685586,-5.0
1.4212219184002528,-2.0
1.4222192671149196,-2.0
1.4232166158295865,-3.0
1.4242139645442533,-4.0
1.4252113132589201,-7.0
1.426208661973587,-7.0
1.4272060106882538,-6.0
1.4282033594029206,-6.0
1.4292007081175875,-6.0
1.4301980568322543,1.0
1.4311954055469212,6.0
1.432192754261588,5.0
1.4331901029762548,5.0
1.4341874516909217,9.0
1.4351848004055885,11.0
1.4361821491202553,11.0
1.4371794978349224,7.0
1.4381768465495892,4.0
1.439174195264256,4.0
1.4401715439789229,0.0
1.4411688926935897,-4.0
1.4421662414082566,-8.0
1.4431635901229234,-10.0
1.4441609388375902,-11.0
1.445158287552257,-12.0
1.446155636266924,-5.0
1.4471529849815907,-5.0
1.4481503336962576,-5.0
1.4491476824109244,-7.0
1.4501450311255912,0.0
1.451142379840258,5.0
1.452139728554925,10.0
1.4531370772695917,11.0
1.4541344259842586,13.0
1.4551317746989254,11.0
1.4561291234135922,8.0
1.457126472128259,6.0
1.458123820842926,1.0
1.4591211695575927,-2.0
1.4601185182722596,2.0
1.4611158669869266,-1.0
1.4621132157015935,-12.0
1.4631105644162603,-16.0
1.4641079131309271,-8.0
1.465105261845594,-8.0
1.4661026105602608,-8.0
1.4670999592749276,-8.0
1.4680973079895945,-3.0
1.4690946567042613,-3.0
1.4700920054189281,-2.0
1.471089354133595,5.0
1.4720867028482618,10.0
1.4730840515629287,10.0
1.4740814002775955,12.0
1.4750787489922623,10.0
1.4760760977069292,8.0
1.477073446421596,5.0
1.4780707951362628,5.0
1.4790681438509297,5.0
1.4800654925655965,-1.0
1.4810628412802633,-8.0
1.4820601899949302,-9.0
1.483057538709597,-11.0
1.4840548874242638,-12.0
1.485052236138931,-9.0
1.4860495848535977,-4.0
1.4870469335682646,-7.0
1.4880442822829314,-8.0
1.4890416309975982,-4.0
1.490038979712265,-2.0
1.491036328426932,7.0
1.4920336771415987,10.0
1.4930310258562656,10.0
1.4940283745709324,11.0
1.4950257232855992,9.0
1.496023072000266,7.0
1.497020420714933,6.0
1.4980177694295997,3.0
1.4990151181442666,4.0
1.5000124668589334,0.0
1.5010098155736002,-8.0
1.502007164288267,-8.0
1.503004513002934,-9.0
1.5040018617176008,-11.0
1.5049992104322676,-11.0
1.5059965591469344,-4.0
1.5069939078616013,-8.0
1.507991256576268,-4.0
1.5089886052909351,-4.0
1.509985954005602,0.0
1.5109833027202688,6.0
1.5119806514349357,8.0
1.5129780001496025,11.0
1.5139753488642693,12.0
1.5149726975789362,10.0
1.515970046293603,6.0
1.5169673950082698,4.0
1.5179647437229367,4.0
1.5189620924376035,3.0
1.5199594411522703,-2.0
1.5209567898669372,-7.0
1.521954138581604,-8.0
1.5229514872962708,-10.0
1.5239488360109377,-12.0
1.5249461847256045,-10.0
1.5259435334402713,-7.0
1.5269408821549382,-5.0
1.527938230869605,-8.0
1.5289355795842718,-4.0
1.5299329282989387,-1.0
1.5309302770136055,5.0
1.5319276257282723,7.0
1.5329249744429394,11.0
1.5339223231576062,12.0
1.534919671872273,11.0
1.53591702058694,8.0
1.5369143693016067,5.0
1.5379117180162736,3.0
1.5389090667309404,3.0
1.5399064154456072,0.0
1.540903764160274,-5.0
1.541901112874941,-9.0
1.5428984615896078,-10.0
1.5438958103042746,-13.0
1.5448931590189414,-11.0
1.5458905077336083,-5.0
1.546887856448275,-5.0
1.547885205162942,-5.0
1.5488825538776088,-5.0
1.5498799025922756,-1.0
1.5508772513069424,7.0
1.5518746000216093,10.0
1.552871948736276,10.0
1.553869297450943,13.0
1.5548666461656098,11.0
1.5558639948802768,8.0
1.5568613435949437,3.0
1.5578586923096105,2.0
1.5588560410242773,2.0
1.5598533897389442,1.0
1.560850738453611,-5.0
1.5618480871682778,-9.0
1.5628454358829447,-11.0
1.5638427845976115,-11.0
1.5648401333122783,-11.0
1.5658374820269452,-7.0
1.566834830741612,-4.0
1.5678321794562788,-5.0
1.5688295281709457,-5.0
1.5698268768856125,-1.0
1.5708242256002793,5.0
1.5718215743149462,9.0
1.572818923029613,12.0
1.5738162717442798,13.0
1.5748136204589467,10.0
1.5758109691736135,7.0
1.5768083178882804,4.0
1.5778056666029472,2.0
1.578803015317614,5.0
1.579800364032281,-2.0
1.580797712746948,-4.0
1.5817950614616147,-9.0
1.5827924101762816,-10.0
1.5837897588909484,-11.0
1.5847871076056153,-9.0
1.585784456320282,-7.0
1.586781805034949,-7.0
1.5877791537496158,-7.0
1.5887765024642826,-5.0
1.5897738511789494,1.0
1.5907711998936163,6.0
1.591768548608283,10.0
1.59276589732295,11.0
1.5937632460376168,12.0
1.5947605947522836,10.0
1.5957579434669504,5.0
1.5967552921816173,2.0
1.597752640896284,3.0
1.598749989610951,5.0
1.5997473383256178,0.0
1.6007446870402846,-5.0
1.6017420357549514,-6.0
1.6027393844696183,-9.0
1.6037367331842853,-11.0
1.6047340818989522,-10.0
1.605731430613619,-8.0
1.6067287793282858,-7.0
1.6077261280429527,-4.0
1.6087234767576195,-3.0
1.6097208254722863,2.0
1.6107181741869532,4.0
1.61171552290162,7.0
1.6127128716162868,10.0
1.6137102203309537,12.0
1.6147075690456205,10.0
1.6157049177602874,7.0
1.6167022664749542,6.0
1.617699615189621,3.0
1.6186969639042879,4.0
1.6196943126189547,-1.0
1.6206916613336215,-4.0
1.6216890100482884,-9.0
1.6226863587629552,-9.0
1.623683707477622,-11.0
1.6246810561922889,-11.0
1.6256784049069557,-6.0
1.6266757536216225,-5.0
1.6276731023362896,-6.0
1.6286704510509564,-5.0
1.6296677997656233,1.0
1.63066514848029,6.0
1.631662497194957,9.0
1.6326598459096238,11.0
1.6336571946242906,12.0
1.6346545433389574,10.0
1.6356518920536243,7.0
1.636649240768291,5.0
1.637646589482958,3.0
1.6386439381976248,2.0
1.6396412869122916,0.0
1.6406386356269584,-7.0
1.6416359843416253,-8.0
1.642633333056292,-11.0
1.643630681770959,-11.0
1.6446280304856258,-10.0
1.6456253792002926,-3.0
1.6466227279149594,-7.0
1.6476200766296263,-6.0
1.6486174253442931,-6.0
1.64961477405896,1.0
1.6506121227736268,5.0
1.6516094714882938,6.0
1.6526068202029607,11.0
1.6536041689176275,12.0
1.6546015176322943,11.0
1.6555988663469612,7.0
1.656596215061628,6.0
1.6575935637762949,3.0
1.6585909124909617,1.0
1.6595882612056285,-4.0
1.6605856099202954,-7.0
1.6615829586349622,-9.0
1.662580307349629,-8.0
1.6635776560642959,-12.0
1.6645750047789627,-11.0
1.6655723534936295,-7.0
1.6665697022082964,-7.0
1.6675670509229632,-7.0
1.66856439963763,-3.0
1.6695617483522969,0.0
1.6705590970669637,8.0
1.6715564457816305,9.0
1.6725537944962974,9.0
1.6735511432109642,13.0
1.6745484919256313,11.0
1.675545840640298,7.0
1.676543189354965,4.0
1.6775405380696318,3.0
1.6785378867842986,3.0
1.6795352354989654,0.0
1.6805325842136323,-8.0
1.681529932928299,-7.0
1.682527281642966,-11.0
1.6835246303576328,-12.0
1.6845219790722996,-11.0
1.6855193277869664,-8.0
1.6865166765016333,-4.0
1.6875140252163001,-6.0
1.688511373930967,-3.0
1.6895087226456338,0.0
1.6905060713603006,5.0
1.6915034200749675,11.0
1.6925007687896343,12.0
1.6934981175043011,12.0
1.694495466218968,9.0
1.6954928149336348,7.0
1.6964901636483016,4.0
1.6974875123629685,3.0
1.6984848610776355,3.0
1.6994822097923024,0.0
1.7004795585069692,-8.0
1.701476907221636,-8.0
1.7024742559363029,-11.0
1.7034716046509697,-12.0
1.7044689533656365,-10.0
1.7054663020803034,-9.0
1.7064636507949702,-5.0
1.707460999509637,-3.0
1.7084583482243039,-4.0
1.7094556969389707,2.0
1.7104530456536375,6.0
1.7114503943683044,12.0
1.7124477430829712,13.0
1.713445091797638,15.0
1.7144424405123049,7.0
1.7154397892269717,2.0
1.7164371379416385,3.0
1.7174344866563054,6.0
1.7184318353709722,3.0
1.719429184085639,-3.0
1.7204265328003059,-8.0
1.7214238815149727,-10.0
1.7224212302296398,-11.0
1.7234185789443066,-12.0
1.7244159276589734,-10.0
1.7254132763736403,-5.0
1.7264106250883071,-3.0
1.727407973802974,-4.0
1.7284053225176408,-8.0
1.7294026712323076,-1.0
1.7304000199469745,5.0
1.7313973686616413,8.0
1.7323947173763081,12.0
1.733392066090975,13.0
1.7343894148056418,12.0
1.7353867635203086,8.0
1.7363841122349755,5.0
1.7373814609496423,4.0
1.7383788096643091,4.0
1.739376158378976,1.0
1.7403735070936428,-7.0
1.7413708558083096,-8.0
1.7423682045229765,-10.0
1.7433655532376433,-12.0
1.7443629019523101,-8.0
1.745360250666977,-5.0
1.746357599381644,-5.0
1.7473549480963109,-7.0
1.7483522968109777,-6.0
1.7493496455256445,-1.0
1.7503469942403114,6.0
1.7513443429549782,9.0
1.752341691669645,12.0
1.7533390403843119,12.0
1.7543363890989787,11.0
1.7553337378136455,5.0
1.7563310865283124,6.0
1.7573284352429792,3.0
1.758325783957646,4.0
1.7593231326723129,-1.0
1.7603204813869797,-8.0
1.7613178301016466,-9.0
1.7623151788163134,-11.0
1.7633125275309802,-12.0
1.764309876245647,-10.0
1.765307224960314,-5.0
1.7663045736749807,-8.0
1.7673019223896476,-7.0
1.7682992711043144,-2.0
1.7692966198189812,1.0
1.7702939685336483,7.0
1.7712913172483151,10.0
1.772288665962982,11.0
1.7732860146776488,14.0
1.7742833633923156,11.0
1.7752807121069825,4.0
1.7762780608216493,6.0
1.7772754095363161,5.0
1.778272758250983,3.0
1.7792701069656498,-3.0
1.7802674556803166,-7.0
1.7812648043949835,-8.0
1.7822621531096503,-10.0
1.7832595018243171,-12.0
1.784256850538984,-10.0
1.7852541992536508,-7.0
1.7862515479683176,-6.0
1.7872488966829845,-7.0
1.7882462453976513,-3.0
1.7892435941123181,1.0
1.790240942826985,8.0
1.7912382915416518,12.0
1.7922356402563187,11.0
1.7932329889709857,10.0
1.7942303376856525,7.0
1.7952276864003194,3.0
1.7962250351149862,4.0
1.797222383829653,6.0
1.7982197325443199,3.0
1.7992170812589867,1.0
1.8002144299736536,-5.0
1.8012117786883204,-9.0
1.8022091274029872,-8.0
1.803206476117654,-10.0
1.804203824832321,-11.0
1.8052011735469877,-6.0
1.8061985222616546,-5.0
1.8071958709763214,-4.0
1.8081932196909882,-5.0
1.809190568405655,-1.0
1.810187917120322,7.0
1.8111852658349887,8.0
1.8121826145496556,10.0
1.8131799632643224,12.0
1.8141773119789892,10.0
1.815174660693656,5.0
1.816172009408323,1.0
1.81716935812299,-1.0
1.8181667068376568,-3.0
1.8191640555523236,-5.0
1.8201614042669905,-6.0
1.8211587529816573,-3.0
1.8221561016963241,-2.0
1.823153450410991,-4.0
1.8241507991256578,-5.0
1.8251481478403246,-8.0
1.8261454965549915,-22.0
1.8271428452696583,-7.0
1.8281401939843251,-15.0
1.829137542698992,-17.0
1.8301348914136588,2.0
1.8311322401283257,30.0
1.8321295888429925,36.0
1.8331269375576593,19.0
1.8341242862723262,-23.0
1.835121634986993,35.0
1.8361189837016598,29.0
1.8371163324163267,3.0
1.8381136811309935,4.0
1.8391110298456603,0.0
1.8401083785603272,-7.0
1.8411057272749942,-13.0
1.842103075989661,-17.0
1.8431004247043279,-20.0
1.8440977734189947,-12.0
1.8450951221336616,-5.0
1.8460924708483284,-8.0
1.8470898195629952,-8.0
1.848087168277662,-13.0
1.849084516992329,-15.0
1.8500818657069957,-7.0
1.8510792144216626,-1.0
1.8520765631363294,1.0
1.8530739118509962,32.0
1.854071260565663,43.0
1.85506860928033,29.0
1.8560659579949967,31.0
1.8570633067096636,10.0
1.8580606554243304,-2.0
1.8590580041389972,-6.0
1.860055352853664,-8.0
1.861052701568331,-13.0
1.8620500502829977,-20.0
1.8630473989976646,-15.0
1.8640447477123314,-38.0
1.8650420964269985,-24.0
1.8660394451416653,-19.0
1.8670367938563321,4.0
1.868034142570999,17.0
1.8690314912856658,22.0
1.8700288400003326,20.0
1.8710261887149995,11.0
1.8720235374296663,2.0
1.8730208861443332,-1.0
1.874018234859,3.0
1.8750155835736668,-21.0
1.8760129322883337,0.0
1.8770102810030005,11.0
1.8780076297176673,6.0
1.8790049784323342,2.0
1.880002327147001,-19.0
1.8809996758616678,-17.0
1.8819970245763347,5.0
1.8829943732910015,-24.0
1.8839917220056683,-37.0
1.8849890707203352,-11.0
1.885986419435002,-10.0
1.8869837681496688,23.0
1.8879811168643357,-44.0
1.8889784655790027,24.0
1.8899758142936696,75.0
1.8909731630083364,98.0
1.8919705117230032,10.0
1.89296786043767,-53.0
1.893965209152337,-48.0
1.8949625578670037,-3.0
1.8959599065816706,60.0
1.8969572552963374,-12.0
1.8979546040110042,96.0
1.898951952725671,49.0
1.899949301440338,-42.0
1.9009466501550047,-101.0
1.9019439988696716,-129.0
1.9029413475843384,-85.0
1.9039386962990053,-46.0
1.904936045013672,17.0
1.905933393728339,16.0
1.9069307424430058,108.0
1.9079280911576726,127.0
1.9089254398723394,1.0
1.9099227885870063,-77.0
1.910920137301673,14.0
1.91191748601634,82.0
1.912914834731007,0.0
1.9139121834456738,-39.0
1.9149095321603407,-86.0
1.9159068808750075,-31.0
1.9169042295896743,-12.0
1.9179015783043412,59.0
1.918898927019008,224.0
1.9198962757336748,55.0
1.9208936244483417,30.0
1.9218909731630085,-11.0
1.9228883218776753,-66.0
1.9238856705923422,-111.0
1.924883019307009,-20.0
1.9258803680216758,-45.0
1.9268777167363427,-58.0
1.9278750654510095,-45.0
1.9288724141656763,-35.0
1.9298697628803432,44.0
1.93086711159501,85.0
1.9318644603096768,57.0
1.9328618090243437,31.0
1.9338591577390105,22.0
1.9348565064536773,10.0
1.9358538551683444,37.0
1.9368512038830112,0.0
1.937848552597678,-11.0
1.938845901312345,-41.0
1.9398432500270117,-43.0
1.9408405987416786,-44.0
1.9418379474563454,-45.0
1.9428352961710122,-52.0
1.943832644885679,-11.0
1.944829993600346,36.0
1.9458273423150128,35.0
1.9468246910296796,12.0
1.9478220397443464,23.0
1.9488193884590133,8.0
1.94981673717368,-140.0
1.950814085888347,4.0
1.9518114346030138,166.0
1.9528087833176806,100.0
1.9538061320323474,9.0
1.9548034807470143,-31.0
1.955800829461681,-14.0
1.956798178176348,-75.0
1.9577955268910148,-27.0
1.9587928756056816,22.0
1.9597902243203487,3.0
1.9607875730350155,-69.0
1.9617849217496823,-24.0
1.9627822704643492,29.0
1.963779619179016,-111.0
1.9647769678936828,-213.0
1.9657743166083497,227.0
1.9667716653230165,224.0
1.9677690140376833,30.0
1.9687663627523502,-62.0
1.969763711467017,16.0
1.9707610601816838,-4.0
1.9717584088963507,-3.0
1.9727557576110175,-26.0
1.9737531063256843,-32.0
1.9747504550403512,-40.0
1.975747803755018,-39.0
1.9767451524696849,77.0
1.9777425011843517,29.0
1.9787398498990185,-82.0
1.9797371986136854,4.0
1.9807345473283522,42.0
1.981731896043019,47.0
1.9827292447576859,-8.0
1.983726593472353,-32.0
1.9847239421870198,-48.0
1.9857212909016866,-156.0
1.9867186396163534,-100.0
1.9877159883310203,-116.0
1.988713337045687,130.0
1.989710685760354,125.0
1.9907080344750208,12.0
1.9917053831896876,142.0
1.9927027319043544,280.0
1.9937000806190213,45.0
1.994697429333688,-35.0
1.995694778048355,-57.0
1.9966921267630218,-99.0
1.9976894754776886,-3.0
1.9986868241923554,-4.0
1.9996841729070223,-76.0
2.000681521621689,-53.0
2.001678870336356,20.0
2.0026762190510228,-63.0
2.0036735677656896,-19.0
2.0046709164803564,-10.0
2.0056682651950233,6.0
2.00666561390969,8.0
2.007662962624357,43.0
2.008660311339024,67.0
2.0096576600536906,-14.0
2.0106550087683575,12.0
2.0116523574830243,-56.0
2.012649706197691,-86.0
2.013647054912358,44.0
2.014644403627025,-67.0
2.0156417523416916,13.0
2.0166391010563585,68.0
2.0176364497710253,37.0
2.018633798485692,100.0
2.0196311472003594,-13.0
2.0206284959150262,-49.0
2.021625844629693,48.0
2.02262319334436,113.0
2.0236205420590268,-4.0
2.0246178907736936,1.0
2.0256152394883604,-34.0
2.0266125882030273,-116.0
2.027609936917694,-127.0
2.028607285632361,-24.0
2.0296046343470278,-40.0
2.0306019830616946,11.0
2.0315993317763614,161.0
2.0325966804910283,96.0
2.033594029205695,-7.0
2.034591377920362,0.0
2.0355887266350288,37.0
2.0365860753496956,-3.0
2.0375834240643624,-56.0
2.0385807727790293,-71.0
2.039578121493696,-13.0
2.040575470208363,-46.0
2.0415728189230298,-54.0
2.0425701676376966,43.0
2.0435675163523634,-13.0
2.0445648650670303,-12.0
2.045562213781697,-72.0
2.046559562496364,45.0
2.047556911211031,74.0
2.0485542599256976,44.0
2.0495516086403645,35.0
2.0505489573550313,-108.0
2.051546306069698,-117.0
2.052543654784365,-74.0
2.053541003499032,111.0
2.0545383522136986,206.0
2.0555357009283655,238.0
2.0565330496430323,-151.0
2.057530398357699,-238.0
2.058527747072366,83.0
2.059525095787033,121.0
2.0605224445016996,30.0
2.0615197932163665,-103.0
2.0625171419310333,-93.0
2.0635144906457,-79.0
2.064511839360367,83.0
2.065509188075034,164.0
2.066506536789701,-15.0
2.067503885504368,-113.0
2.0685012342190348,12.0
2.0694985829337016,42.0
2.0704959316483684,69.0
2.0714932803630353,44.0
2.072490629077702,24.0
2.073487977792369,-92.0
2.0744853265070358,-171.0
2.0754826752217026,60.0
2.0764800239363694,19.0
2.0774773726510363,-87.0
2.078474721365703,-33.0
2.07947207008037,56.0
2.0804694187950368,107.0
2.0814667675097036,60.0
2.0824641162243704,157.0
2.0834614649390373,14.0
2.084458813653704,-4.0
2.085456162368371,-244.0
2.086453511083038,-201.0
2.0874508597977046,-117.0
2.0884482085123715,26.0
2.0894455572270383,211.0
2.090442905941705,81.0
2.091440254656372,51.0
2.092437603371039,62.0
2.0934349520857056,-20.0
2.0944323008003725,-27.0
2.0954296495150393,-125.0
2.096426998229706,-18.0
2.097424346944373,44.0
2.09842169565904,-48.0
2.0994190443737066,-56.0
2.1004163930883735,-89.0
2.1014137418030403,78.0
2.102411090517707,111.0
2.103408439232374,-226.0
2.104405787947041,-77.0
2.1054031366617076,191.0
2.1064004853763745,150.0
2.1073978340910413,105.0
2.108395182805708,8.0
2.109392531520375,125.0
2.110389880235042,-51.0
2.1113872289497086,-206.0
2.1123845776643755,-66.0
2.1133819263790423,-48.0
2.1143792750937096,-8.0
2.1153766238083764,-104.0
2.1163739725230433,1.0
2.11737132123771,72.0
2.118368669952377,246.0
2.1193660186670438,150.0
2.1203633673817106,14.0
2.1213607160963774,-199.0
2.1223580648110443,-56.0
2.123355413525711,-32.0
2.124352762240378,187.0
2.125350110955045,147.0
2.1263474596697116,52.0
2.1273448083843784,-154.0
2.1283421570990453,-142.0
2.129339505813712,-168.0
2.130336854528379,-164.0
2.131334203243046,28.0
2.1323315519577126,81.0
2.1333289006723795,-15.0
2.1343262493870463,1.0
2.135323598101713,-125.0
2.13632094681638,151.0
2.137318295531047,6.0
2.1383156442457136,-16.0
2.1393129929603805,114.0
2.1403103416750473,82.0
2.141307690389714,37.0
2.142305039104381,131.0
2.143302387819048,-33.0
2.1442997365337146,-136.0
2.1452970852483815,-98.0
2.1462944339630483,-140.0
2.147291782677715,-27.0
2.148289131392382,111.0
2.149286480107049,151.0
2.1502838288217156,78.0
2.1512811775363825,-29.0
2.1522785262510493,-18.0
2.153275874965716,-54.0
2.154273223680383,-188.0
2.15527057239505,181.0
2.1562679211097167,119.0
2.1572652698243835,-16.0
2.1582626185390503,43.0
2.159259967253717,-138.0
2.160257315968384,-180.0
2.161254664683051,-46.0
2.162252013397718,-3.0
2.163249362112385,4.0
2.164246710827052,130.0
2.1652440595417186,-2.0
2.1662414082563854,70.0
2.1672387569710523,-47.0
2.168236105685719,169.0
2.169233454400386,272.0
2.170230803115053,-6.0
2.1712281518297196,-198.0
2.1722255005443865,-71.0
2.1732228492590533,-101.0
2.17422019797372,-266.0
2.175217546688387,-188.0
2.176214895403054,66.0
2.1772122441177206,208.0
2.1782095928323875,17.0
2.1792069415470543,306.0
2.180204290261721,16.0
2.181201638976388,-76.0
2.182198987691055,-17.0
2.1831963364057216,-56.0
2.1841936851203885,-233.0
2.1851910338350553,-48.0
2.186188382549722,215.0
2.187185731264389,32.0
2.188183079979056,1.0
2.1891804286937226,6.0
2.1901777774083895,68.0
2.1911751261230563,13.0
2.192172474837723,155.0
2.19316982355239,278.0
2.194167172267057,-58.0
2.1951645209817237,-139.0
2.1961618696963905,-83.0
2.1971592184110573,-170.0
2.198156567125724,-185.0
2.199153915840391,-146.0
2.200151264555058,-109.0
2.2011486132697247,56.0
2.2021459619843915,158.0
2.2031433106990583,197.0
2.204140659413725,-120.0
2.205138008128392,47.0
2.206135356843059,-73.0
2.2071327055577257,69.0
2.2081300542723925,-34.0
2.20912740298706,-112.0
2.2101247517017266,-4.0
2.2111221004163935,147.0
2.2121194491310603,57.0
2.213116797845727,59.0
2.214114146560394,29.0
2.215111495275061,70.0
2.2161088439897276,22.0
2.2171061927043945,11.0
2.2181035414190613,-25.0
2.219100890133728,-152.0
2.220098238848395,-174.0
2.221095587563062,32.0
2.2220929362777286,238.0
2.2230902849923955,78.0
2.2240876337070623,-101.0
2.225084982421729,12.0
2.226082331136396,67.0
2.227079679851063,-3.0
2.2280770285657296,-48.0
2.2290743772803965,-15.0
2.2300717259950633,-85.0
2.23106907470973,25.0
2.232066423424397,-10.0
2.233063772139064,-173.0
2.2340611208537307,86.0
2.2350584695683975,241.0
2.2360558182830643,-40.0
2.237053166997731,-227.0
2.238050515712398,-137.0
2.239047864427065,34.0
2.2400452131417317,-21.0
2.2410425618563985,59.0
2.2420399105710653,-76.0
2.243037259285732,-194.0
2.244034608000399,46.0
2.245031956715066,393.0
2.2460293054297327,345.0
2.2470266541443995,93.0
2.2480240028590663,-21.0
2.249021351573733,-27.0
2.2500187002884,-247.0
2.251016049003067,-215.0
2.2520133977177337,190.0
2.2530107464324005,231.0
2.2540080951470673,-46.0
2.255005443861734,-186.0
2.256002792576401,124.0
2.2570001412910683,-16.0
2.257997490005735,-49.0
2.258994838720402,-75.0
2.259992187435069,-47.0
2.2609895361497356,-100.0
2.2619868848644025,-45.0
2.2629842335790693,-14.0
2.263981582293736,41.0
2.264978931008403,24.0
2.26597627972307,-53.0
2.2669736284377366,-38.0
2.2679709771524035,-124.0
2.2689683258670703,-91.0
2.269965674581737,-132.0
2.270963023296404,-19.0
2.271960372011071,276.0
2.2729577207257377,390.0
2.2739550694404045,57.0
2.2749524181550713,-111.0
2.275949766869738,-27.0
2.276947115584405,-77.0
2.277944464299072,-53.0
2.2789418130137387,-11.0
2.2799391617284055,51.0
2.2809365104430723,61.0
2.281933859157739,61.0
2.282931207872406,-188.0
2.283928556587073,-196.0
2.2849259053017397,57.0
2.2859232540164065,252.0
2.2869206027310733,53.0
2.28791795144574,95.0
2.288915300160407,-61.0
2.289912648875074,-95.0
2.2909099975897407,-120.0
2.2919073463044075,8.0
2.2929046950190743,-12.0
2.293902043733741,-112.0
2.294899392448408,1.0
2.295896741163075,110.0
2.2968940898777417,129.0
2.2978914385924085,130.0
2.2988887873070754,-67.0
2.299886136021742,-148.0
2.300883484736409,72.0
2.301880833451076,-40.0
2.3028781821657427,-88.0
2.30387553088041,-79.0
2.304872879595077,-21.0
2.3058702283097436,-136.0
2.3068675770244105,-5.0
2.3078649257390773,164.0
2.308862274453744,190.0
2.309859623168411,72.0
2.310856971883078,-70.0
2.3118543205977446,-15.0
2.3128516693124115,43.0
2.3138490180270783,-36.0
2.314846366741745,-4.0
2.315843715456412,71.0
2.316841064171079,71.0
2.3178384128857457,-100.0
2.3188357616004125,-83.0
2.3198331103150793,-33.0
2.320830459029746,-52.0
2.321827807744413,-17.0
2.32282515645908,-45.0
2.3238225051737467,-110.0
2.3248198538884135,3.0
2.3258172026030803,83.0
2.326814551317747,44.0
2.327811900032414,4.0
2.328809248747081,58.0
2.3298065974617477,38.0
2.3308039461764145,88.0
2.3318012948910813,-80.0
2.332798643605748,-70.0
2.333795992320415,-108.0
2.334793341035082,131.0
2.3357906897497487,178.0
2.3367880384644155,-92.0
2.3377853871790824,-57.0
2.338782735893749,-122.0
2.339780084608416,93.0
2.340777433323083,56.0
2.3417747820377497,85.0
2.3427721307524165,20.0
2.3437694794670834,0.0
2.34476682818175,40.0
2.345764176896417,88.0
2.346761525611084,-6.0
2.3477588743257507,-200.0
2.3487562230404175,-173.0
2.3497535717550844,117.0
2.350750920469751,68.0
2.3517482691844185,0.0
2.3527456178990853,-20.0
2.353742966613752,-49.0
2.354740315328419,12.0
2.355737664043086,-27.0
2.3567350127577527,-196.0
2.3577323614724195,7.0
2.3587297101870863,104.0
2.359727058901753,117.0
2.36072440761642,7.0
2.361721756331087,-73.0
2.3627191050457537,65.0
2.3637164537604205,84.0
2.3647138024750873,-15.0
2.365711151189754,-72.0
2.366708499904421,-91.0
2.367705848619088,-53.0
2.3687031973337547,-8.0
2.3697005460484215,-10.0
2.3706978947630883,17.0
2.371695243477755,88.0
2.372692592192422,79.0
2.373689940907089,14.0
2.3746872896217557,-63.0
2.3756846383364225,17.0
2.3766819870510894,139.0
2.377679335765756,39.0
2.378676684480423,-58.0
2.37967403319509,-178.0
2.3806713819097567,-169.0
2.3816687306244235,-2.0
2.3826660793390904,101.0
2.383663428053757,131.0
2.384660776768424,79.0
2.385658125483091,-17.0
2.3866554741977577,-23.0
2.3876528229124245,-44.0
2.3886501716270914,24.0
2.389647520341758,3.0
2.390644869056425,48.0
2.391642217771092,22.0
2.3926395664857587,45.0
2.3936369152004255,70.0
2.3946342639150924,-20.0
2.395631612629759,-7.0
2.396628961344426,-48.0
2.397626310059093,-27.0
2.3986236587737597,-4.0
2.399621007488427,-48.0
2.400618356203094,-48.0
2.4016157049177607,-22.0
2.4026130536324275,-86.0
2.4036104023470943,-52.0
2.404607751061761,57.0
2.405605099776428,99.0
2.406602448491095,10.0
2.4075997972057617,-55.0
2.4085971459204285,-56.0
2.4095944946350953,11.0
2.410591843349762,80.0
2.411589192064429,72.0
2.412586540779096,8.0
2.4135838894937627,-43.0
2.4145812382084295,-40.0
2.4155785869230963,-9.0
2.416575935637763,-12.0
2.41757328435243,-35.0
2.418570633067097,10.0
2.4195679817817637,50.0
2.4205653304964305,6.0
2.4215626792110974,-12.0
2.422560027925764,-47.0
2.423557376640431,-92.0
2.424554725355098,-52.0
2.4255520740697647,-36.0
2.4265494227844315,-57.0
2.4275467714990984,-15.0
2.428544120213765,226.0
2.429541468928432,248.0
2.430538817643099,72.0
2.4315361663577657,24.0
2.4325335150724325,-12.0
2.4335308637870994,-46.0
2.434528212501766,-36.0
2.435525561216433,-56.0
2.4365229099311,5.0
2.4375202586457667,-27.0
2.4385176073604335,-19.0
2.4395149560751004,-72.0
2.440512304789767,-28.0
2.441509653504434,-98.0
2.442507002219101,40.0
2.4435043509337677,145.0
2.4445016996484346,25.0
2.4454990483631014,-26.0
2.4464963970777687,-42.0
2.4474937457924355,-63.0
2.4484910945071023,-56.0
2.449488443221769,4.0
2.450485791936436,87.0
2.451483140651103,0.0
2.4524804893657697,-6.0
2.4534778380804365,38.0
2.4544751867951033,24.0
2.45547253550977,6.0
2.456469884224437,-94.0
2.457467232939104,-7.0
2.4584645816537707,-74.0
2.4594619303684375,37.0
2.4604592790831044,134.0
2.461456627797771,44.0
2.462453976512438,-29.0
2.463451325227105,-6.0
2.4644486739417717,55.0
2.4654460226564385,52.0
2.4664433713711054,-55.0
2.467440720085772,-87.0
2.468438068800439,-57.0
2.469435417515106,113.0
2.4704327662297727,89.0
2.4714301149444395,-15.0
2.4724274636591064,-47.0
2.473424812373773,-67.0
2.47442216108844,-60.0
2.475419509803107,-52.0
2.4764168585177737,7.0
2.4774142072324405,45.0
2.4784115559471074,94.0
2.479408904661774,50.0
2.480406253376441,-60.0
2.481403602091108,-104.0
2.4824009508057747,-114.0
2.4833982995204416,-11.0
2.4843956482351084,149.0
2.4853929969497752,133.0
2.486390345664442,6.0
2.487387694379109,-93.0
2.4883850430937757,-72.0
2.4893823918084426,-15.0
2.4903797405231094,35.0
2.4913770892377762,-20.0
2.492374437952443,14.0
2.49337178666711,36.0
2.494369135381777,93.0
2.495366484096444,79.0
2.496363832811111,-7.0
2.4973611815257777,-22.0
2.4983585302404445,-35.0
2.4993558789551114,-42.0
2.500353227669778,-15.0
2.501350576384445,-25.0
2.502347925099112,6.0
2.5033452738137787,4.0
2.5043426225284455,-10.0
2.5053399712431124,-38.0
2.506337319957779,-63.0
2.507334668672446,-97.0
2.508332017387113,-48.0
2.5093293661017797,105.0
2.5103267148164465,183.0
2.5113240635311134,58.0
2.51232141224578,-40.0
2.513318760960447,-113.0
2.514316109675114,-151.0
2.5153134583897807,-113.0
2.5163108071044475,221.0
2.5173081558191144,200.0
2.518305504533781,39.0
2.519302853248448,-19.0
2.520300201963115,-61.0
2.5212975506777817,18.0
2.5222948993924486,-4.0
2.5232922481071154,-20.0
2.5242895968217822,-51.0
2.525286945536449,-59.0
2.526284294251116,6.0
2.5272816429657827,38.0
2.5282789916804496,33.0
2.5292763403951164,3.0
2.5302736891097832,-66.0
2.53127103782445,-98.0
2.532268386539117,2.0
2.5332657352537837,132.0
2.5342630839684506,121.0
2.5352604326831174,11.0
2.5362577813977842,-26.0
2.537255130112451,-28.0
2.538252478827118,-26.0
2.5392498275417847,-7.0
2.5402471762564516,-33.0
2.5412445249711184,-40.0
2.5422418736857857,-51.0
2.5432392224004525,-73.0
2.5442365711151194,104.0
2.545233919829786,80.0
2.546231268544453,-18.0
2.54722861725912,-28.0
2.5482259659737867,-26.0
2.5492233146884535,24.0
2.5502206634031204,1.0
2.551218012117787,-73.0
2.552215360832454,-18.0
2.553212709547121,132.0
2.5542100582617877,76.0
2.5552074069764545,6.0
2.5562047556911214,-13.0
2.557202104405788,-20.0
2.558199453120455,-20.0
2.559196801835122,-17.0
2.5601941505497887,-15.0
2.5611914992644556,-14.0
2.5621888479791224,-5.0
2.563186196693789,-8.0
2.564183545408456,-15.0
2.565180894123123,-20.0
2.5661782428377897,-7.0
2.5671755915524566,8.0
2.5681729402671234,12.0
2.5691702889817902,4.0
2.570167637696457,-13.0
2.571164986411124,12.0
2.5721623351257907,-13.0
2.5731596838404576,57.0
2.5741570325551244,17.0
2.5751543812697912,12.0
2.576151729984458,2.0
2.577149078699125,-8.0
2.5781464274137917,-12.0
2.5791437761284586,-14.0
2.5801411248431254,-19.0
2.5811384735577922,-31.0
2.582135822272459,-32.0
2.583133170987126,-74.0
2.5841305197017927,-63.0
2.5851278684164596,-110.0
2.5861252171311264,42.0
2.5871225658457933,58.0
2.58811991456046,157.0
2.5891172632751274,206.0
2.590114611989794,60.0
2.591111960704461,-40.0
2.592109309419128,-59.0
2.5931066581337947,-36.0
2.5941040068484615,-41.0
2.5951013555631284,36.0
2.596098704277795,23.0
2.597096052992462,-13.0
2.598093401707129,-22.0
2.5990907504217957,-20.0
2.6000880991364625,-17.0
2.6010854478511294,-17.0
2.602082796565796,-13.0
2.603080145280463,-11.0
2.60407749399513,-11.0
2.6050748427097967,-12.0
2.6060721914244636,-5.0
2.6070695401391304,-3.0
2.6080668888537972,-6.0
2.609064237568464,-15.0
2.610061586283131,-17.0
2.6110589349977977,10.0
2.6120562837124646,29.0
2.6130536324271314,59.0
2.6140509811417982,21.0
2.615048329856465,-23.0
2.616045678571132,-8.0
2.6170430272857987,17.0
2.6180403760004656,21.0
2.6190377247151324,8.0
2.6200350734297992,-11.0
2.621032422144466,-21.0
2.622029770859133,-24.0
2.6230271195737997,-21.0
2.6240244682884666,-14.0
2.6250218170031334,13.0
2.6260191657178003,6.0
2.627016514432467,4.0
2.628013863147134,4.0
2.6290112118618008,4.0
2.6300085605764676,7.0
2.6310059092911344,6.0
2.6320032580058013,0.0
2.633000606720468,-12.0
2.633997955435135,-30.0
2.6349953041498018,-31.0
2.6359926528644686,-64.0
2.636990001579136,35.0
2.6379873502938027,19.0
2.6389846990084695,77.0
2.6399820477231364,35.0
2.640979396437803,48.0
2.64197674515247,-12.0
2.642974093867137,-15.0
2.6439714425818037,-20.0
2.6449687912964706,-24.0
2.6459661400111374,-17.0
2.6469634887258042,-4.0
2.647960837440471,-3.0
2.648958186155138,-10.0
2.6499555348698047,1.0
2.6509528835844716,-8.0
2.6519502322991384,17.0
2.6529475810138052,19.0
2.653944929728472,6.0
2.654942278443139,-1.0
2.6559396271578057,-3.0
2.6569369758724726,-11.0
2.6579343245871394,-3.0
2.6589316733018062,5.0
2.659929022016473,-21.0
2.66092637073114,-17.0
2.6619237194458067,-46.0
2.6629210681604736,-41.0
2.6639184168751404,29.0
2.6649157655898073,-65.0
2.665913114304474,1.0
2.666910463019141,116.0
2.6679078117338078,52.0
2.6689051604484746,35.0
2.6699025091631414,11.0
2.6708998578778083,11.0
2.671897206592475,-13.0
2.672894555307142,-14.0
2.6738919040218088,-12.0
2.6748892527364756,-9.0
2.6758866014511424,-7.0
2.6768839501658093,-8.0
2.677881298880476,-3.0
2.678878647595143,1.0
2.6798759963098098,-1.0
2.6808733450244766,-63.0
2.6818706937391434,-55.0
2.6828680424538103,60.0
2.6838653911684776,26.0
2.6848627398831444,-44.0
2.6858600885978112,11.0
2.686857437312478,23.0
2.687854786027145,16.0
2.6888521347418117,-10.0
2.6898494834564786,-9.0
2.6908468321711454,-31.0
2.6918441808858122,-21.0
2.692841529600479,-26.0
2.693838878315146,24.0
2.6948362270298127,132.0
2.6958335757444796,49.0
2.6968309244591464,27.0
2.6978282731738132,-37.0
2.69882562188848,-88.0
2.699822970603147,-2.0
2.7008203193178137,-6.0
2.7018176680324806,-52.0
2.7028150167471474,27.0
2.7038123654618142,6.0
2.704809714176481,-2.0
2.705807062891148,9.0
2.7068044116058148,-3.0
2.7078017603204816,8.0
2.7087991090351484,-15.0
2.7097964577498153,-2.0
2.710793806464482,38.0
2.711791155179149,22.0
2.7127885038938158,4.0
2.7137858526084826,-3.0
2.7147832013231494,-2.0
2.7157805500378163,-5.0
2.716777898752483,-7.0
2.71777524746715,-24.0
2.7187725961818168,9.0
2.7197699448964836,1.0
2.7207672936111504,-8.0
2.7217646423258173,-11.0
2.722761991040484,-8.0
2.723759339755151,-3.0
2.724756688469818,-4.0
2.7257540371844846,-63.0
2.7267513858991514,30.0
2.7277487346138183,-8.0
2.728746083328485,-7.0
2.729743432043152,32.0
2.730740780757819,4.0
2.731738129472486,-27.0
2.732735478187153,29.0
2.7337328269018197,34.0
2.7347301756164866,17.0
2.7357275243311534,74.0
2.7367248730458202,-3.0
2.737722221760487,9.0
2.738719570475154,-23.0
2.7397169191898207,-33.0
2.7407142679044876,-29.0
2.7417116166191544,-10.0
2.7427089653338212,-11.0
2.743706314048488,-17.0
2.744703662763155,-12.0
2.7457010114778218,-6.0
2.7466983601924886,3.0
2.7476957089071554,5.0
2.7486930576218223,2.0
2.749690406336489,6.0
2.750687755051156,12.0
2.7516851037658228,16.0
2.7526824524804896,27.0
2.7536798011951564,13.0
2.7546771499098233,-52.0
2.75567449862449,-8.0
2.756671847339157,12.0
2.7576691960538238,-19.0
2.7586665447684906,-69.0
2.7596638934831574,30.0
2.7606612421978243,-2.0
2.761658590912491,-68.0
2.762655939627158,61.0
2.7636532883418248,-20.0
2.7646506370564916,-146.0
2.7656479857711584,36.0
2.7666453344858253,175.0
2.767642683200492,144.0
2.768640031915159,24.0
2.769637380629826,-20.0
2.7706347293444926,-32.0
2.7716320780591595,8.0
2.7726294267738263,4.0
2.773626775488493,-16.0
2.77462412420316,-14.0
2.775621472917827,-13.0
2.7766188216324936,-16.0
2.7776161703471605,-15.0
2.7786135190618273,-16.0
2.7796108677764946,-19.0
2.7806082164911614,-16.0
2.7816055652058282,-9.0
2.782602913920495,-7.0
2.783600262635162,-8.0
2.7845976113498287,-7.0
2.7855949600644956,-2.0
2.7865923087791624,5.0
2.7875896574938293,9.0
2.788587006208496,8.0
2.789584354923163,13.0
2.7905817036378298,12.0
2.7915790523524966,8.0
2.7925764010671634,3.0
2.7935737497818303,-1.0
2.794571098496497,-3.0
2.795568447211164,-2.0
2.7965657959258308,-16.0
2.7975631446404976,-14.0
2.7985604933551644,-2.0
2.7995578420698313,7.0
2.800555190784498,14.0
2.801552539499165,-12.0
2.8025498882138318,4.0
2.8035472369284986,14.0
2.8045445856431654,-8.0
2.8055419343578323,-4.0
2.806539283072499,-2.0
2.807536631787166,0.0
2.808533980501833,-1.0
2.8095313292164996,10.0
2.8105286779311665,9.0
2.8115260266458333,4.0
2.8125233753605,10.0
2.813520724075167,5.0
2.814518072789834,4.0
2.8155154215045006,1.0
2.8165127702191675,-3.0
2.8175101189338343,-7.0
2.818507467648501,-8.0
2.819504816363168,-13.0
2.820502165077835,-12.0
2.8214995137925016,-8.0
2.8224968625071685,-7.0
2.8234942112218353,-7.0
2.824491559936502,-8.0
2.825488908651169,-6.0
2.8264862573658363,9.0
2.827483606080503,14.0
2.82848095479517,9.0
2.8294783035098368,13.0
2.8304756522245036,12.0
2.8314730009391704,8.0
2.8324703496538373,6.0
2.833467698368504,5.0
2.834465047083171,4.0
2.8354623957978378,4.0
2.8364597445125046,-4.0
2.8374570932271714,-9.0
2.8384544419418383,-12.0
2.839451790656505,-11.0
2.840449139371172,-12.0
2.8414464880858388,-9.0
2.8424438368005056,-6.0
2.8434411855151724,-7.0
2.8444385342298393,-9.0
2.845435882944506,-2.0
2.846433231659173,6.0
2.84743058037384,10.0
2.8484279290885066,11.0
2.8494252778031735,12.0
2.8504226265178403,12.0
2.851419975232507,7.0
2.852417323947174,6.0
2.853414672661841,5.0
2.8544120213765076,3.0
2.8554093700911745,0.0
2.8564067188058413,-7.0
2.857404067520508,-8.0
2.858401416235175,-11.0
2.859398764949842,-14.0
2.8603961136645086,-11.0
2.8613934623791755,-8.0
2.8623908110938423,-5.0
2.863388159808509,-6.0
2.864385508523176,-8.0
2.865382857237843,-2.0
2.8663802059525096,5.0
2.8673775546671765,9.0
2.8683749033818433,12.0
2.86937225209651,12.0
2.870369600811177,12.0
2.871366949525844,10.0
2.8723642982405106,7.0
2.8733616469551775,5.0
2.8743589956698448,2.0
2.8753563443845116,-1.0
2.8763536930991784,-6.0
2.8773510418138453,-8.0
2.878348390528512,-8.0
2.879345739243179,-14.0
2.8803430879578458,-12.0
2.8813404366725126,-7.0
2.8823377853871794,-6.0
2.8833351341018463,-7.0
2.884332482816513,-5.0
2.88532983153118,0.0
2.886327180245847,3.0
2.8873245289605136,8.0
2.8883218776751804,10.0
2.8893192263898473,13.0
2.890316575104514,13.0
2.891313923819181,8.0
2.892311272533848,6.0
2.8933086212485146,5.0
2.8943059699631815,4.0
2.8953033186778483,1.0
2.896300667392515,-5.0
2.897298016107182,-9.0
2.898295364821849,-10.0
2.8992927135365156,-11.0
2.9002900622511825,-12.0
2.9012874109658493,-8.0
2.902284759680516,-13.0
2.903282108395183,-8.0
2.90427945710985,-3.0
2.9052768058245166,1.0
2.9062741545391835,4.0
2.9072715032538503,9.0
2.908268851968517,9.0
2.909266200683184,12.0
2.910263549397851,17.0
2.9112608981125176,9.0
2.9122582468271845,6.0
2.9132555955418513,3.0
2.914252944256518,2.0
2.915250292971185,0.0
2.916247641685852,-7.0
2.9172449904005187,-11.0
2.9182423391151855,-11.0
2.9192396878298523,-12.0
2.920237036544519,-11.0
2.921234385259186,-8.0
2.9222317339738533,-8.0
2.92322908268852,-6.0
2.924226431403187,-5.0
2.9252237801178538,1.0
2.9262211288325206,5.0
2.9272184775471874,9.0
2.9282158262618543,11.0
2.929213174976521,15.0
2.930210523691188,14.0
2.931207872405855,6.0
2.9322052211205216,5.0
2.9332025698351885,6.0
2.9341999185498553,3.0
2.935197267264522,1.0
2.936194615979189,-5.0
2.937191964693856,-8.0
2.9381893134085226,-10.0
2.9391866621231895,-12.0
2.9401840108378563,-13.0
2.941181359552523,-8.0
2.94217870826719,-6.0
2.943176056981857,-4.0
2.9441734056965236,-6.0
2.9451707544111905,0.0
2.9461681031258573,6.0
2.947165451840524,7.0
2.948162800555191,12.0
2.949160149269858,14.0
2.9501574979845246,13.0
2.9511548466991915,7.0
2.9521521954138583,5.0
2.953149544128525,4.0
2.954146892843192,3.0
2.955144241557859,-1.0
2.9561415902725257,-4.0
2.9571389389871925,-8.0
2.9581362877018593,-11.0
2.959133636416526,-12.0
2.960130985131193,-10.0
2.96112833384586,-10.0
2.9621256825605267,-8.0
2.9631230312751935,-5.0
2.9641203799898603,-5.0
2.965117728704527,1.0
2.966115077419194,6.0
2.967112426133861,10.0
2.9681097748485277,12.0
2.969107123563195,12.0
2.970104472277862,11.0
2.9711018209925286,6.0
2.9720991697071955,7.0
2.9730965184218623,3.0
2.974093867136529,4.0
2.975091215851196,1.0
2.976088564565863,-8.0
2.9770859132805296,-11.0
2.9780832619951965,-11.0
2.9790806107098633,-12.0
2.98007795942453,-11.0
2.981075308139197,-6.0
2.982072656853864,-5.0
2.9830700055685306,-3.0
2.9840673542831975,-5.0
2.9850647029978643,1.0
2.986062051712531,7.0
2.987059400427198,9.0
2.988056749141865,12.0
2.9890540978565316,14.0
2.9900514465711985,11.0
2.9910487952858653,5.0
2.992046144000532,5.0
2.993043492715199,1.0
2.994040841429866,3.0
2.9950381901445327,0.0
2.9960355388591995,-3.0
2.9970328875738663,-8.0
2.998030236288533,-11.0
2.9990275850032,-11.0
3.000024933717867,-10.0
3.0010222824325337,-6.0
3.0020196311472005,-8.0
3.0030169798618673,-7.0
3.004014328576534,-5.0
3.005011677291201,1.0
3.006009026005868,5.0
3.0070063747205347,8.0
3.0080037234352015,12.0
3.0090010721498683,16.0
3.009998420864535,12.0
3.010995769579202,8.0
3.011993118293869,5.0
3.0129904670085357,2.0
3.0139878157232025,2.0
3.0149851644378693,-2.0
3.015982513152536,-5.0
3.0169798618672035,-11.0
3.0179772105818703,-10.0
3.018974559296537,-10.0
3.019971908011204,-9.0
3.020969256725871,-7.0
3.0219666054405376,-7.0
3.0229639541552045,-5.0
3.0239613028698713,-7.0
3.024958651584538,-2.0
3.025956000299205,6.0
3.026953349013872,8.0
3.0279506977285386,11.0
3.0289480464432055,14.0
3.0299453951578723,12.0
3.030942743872539,6.0
3.031940092587206,4.0
3.032937441301873,4.0
3.0339347900165397,2.0
3.0349321387312065,3.0
3.0359294874458733,-5.0
3.03692683616054,-9.0
3.037924184875207,-12.0
3.038921533589874,-15.0
3.0399188823045407,-10.0
3.0409162310192075,-7.0
3.0419135797338743,-6.0
3.042910928448541,-7.0
3.043908277163208,-4.0
3.044905625877875,0.0
3.0459029745925417,7.0
3.0469003233072085,9.0
3.0478976720218753,11.0
3.048895020736542,14.0
3.049892369451209,12.0
3.050889718165876,4.0
3.0518870668805427,5.0
3.0528844155952095,6.0
3.0538817643098763,4.0
3.054879113024543,-2.0
3.05587646173921,-6.0
3.056873810453877,-9.0
3.0578711591685437,-10.0
3.0588685078832105,-12.0
3.0598658565978774,-13.0
3.060863205312544,-5.0
3.061860554027211,-4.0
3.062857902741878,-6.0
3.0638552514565447,-7.0
3.064852600171212,-2.0
3.065849948885879,5.0
3.0668472976005456,10.0
3.0678446463152125,11.0
3.0688419950298793,12.0
3.069839343744546,10.0
3.070836692459213,8.0
3.07183404117388,6.0
3.0728313898885466,4.0
3.0738287386032135,3.0
3.0748260873178803,1.0
3.075823436032547,-6.0
3.076820784747214,-9.0
3.077818133461881,-12.0
3.0788154821765477,-10.0
3.0798128308912145,-12.0
3.0808101796058813,-5.0
3.081807528320548,-7.0
3.082804877035215,-8.0
3.083802225749882,-7.0
3.0847995744645487,-2.0
3.0857969231792155,6.0
3.0867942718938823,10.0
3.087791620608549,11.0
3.088788969323216,11.0
3.089786318037883,12.0
3.0907836667525497,9.0
3.0917810154672165,8.0
3.0927783641818833,4.0
3.09377571289655,3.0
3.094773061611217,0.0
3.095770410325884,-7.0
3.0967677590405507,-10.0
3.0977651077552175,-10.0
3.0987624564698844,-13.0
3.099759805184551,-13.0
3.100757153899218,-6.0
3.101754502613885,-7.0
3.1027518513285517,-7.0
3.1037492000432185,-6.0
3.1047465487578854,1.0
3.105743897472552,7.0
3.106741246187219,9.0
3.107738594901886,13.0
3.1087359436165527,11.0
3.1097332923312195,11.0
3.1107306410458864,8.0
3.1117279897605536,5.0
3.1127253384752205,3.0
3.1137226871898873,4.0
3.114720035904554,3.0
3.115717384619221,-5.0
3.116714733333888,-9.0
3.1177120820485547,-11.0
3.1187094307632215,-12.0
3.1197067794778883,-9.0
3.120704128192555,-7.0
3.121701476907222,-5.0
3.122698825621889,-7.0
3.1236961743365557,-6.0
3.1246935230512225,-1.0
3.1256908717658893,5.0
3.126688220480556,10.0
3.127685569195223,10.0
3.12868291790989,13.0
3.1296802666245567,13.0
3.1306776153392235,7.0
3.1316749640538903,5.0
3.132672312768557,5.0
3.133669661483224,4.0
3.134667010197891,-1.0
3.1356643589125577,-6.0
3.1366617076272245,-10.0
3.1376590563418914,-11.0
3.138656405056558,-15.0
3.139653753771225,-13.0
3.140651102485892,-5.0
3.1416484512005587,-4.0
3.1426457999152255,-4.0
3.1436431486298924,-4.0
3.144640497344559,-1.0
3.145637846059226,7.0
3.146635194773893,12.0
3.1476325434885597,12.0
3.1486298922032265,12.0
3.1496272409178934,12.0
3.15062458963256,8.0
3.151621938347227,5.0
3.152619287061894,4.0
3.1536166357765607,4.0
3.1546139844912275,1.0
3.1556113332058944,-7.0
3.156608681920561,-9.0
3.157606030635228,-11.0
3.158603379349895,-15.0
3.159600728064562,-11.0
3.160598076779229,-5.0
3.161595425493896,-7.0
3.1625927742085627,-9.0
3.1635901229232295,-5.0
3.1645874716378963,1.0
3.165584820352563,5.0
3.16658216906723,8.0
3.167579517781897,11.0
3.1685768664965637,12.0
3.1695742152112305,12.0
3.1705715639258973,6.0
3.171568912640564,6.0
3.172566261355231,6.0
3.173563610069898,4.0
3.1745609587845647,0.0
3.1755583074992315,-6.0
3.1765556562138983,-8.0
3.177553004928565,-11.0
3.178550353643232,-13.0
3.179547702357899,-11.0
3.1805450510725657,-8.0
3.1815423997872325,-7.0
3.1825397485018994,-8.0
3.183537097216566,-5.0
3.184534445931233,2.0
3.1855317946459,4.0
3.1865291433605667,11.0
3.1875264920752335,11.0
3.1885238407899004,13.0
3.189521189504567,13.0
3.190518538219234,7.0
3.191515886933901,5.0
3.1925132356485677,2.0
3.1935105843632345,2.0
3.1945079330779014,0.0
3.195505281792568,-4.0
3.196502630507235,-8.0
3.197499979221902,-11.0
3.1984973279365687,-13.0
3.1994946766512355,-11.0
3.2004920253659024,-8.0
3.201489374080569,-6.0
3.202486722795236,-3.0
3.203484071509903,-5.0
3.2044814202245697,0.0
3.2054787689392366,8.0
3.206476117653904,9.0
3.2074734663685707,11.0
3.2084708150832375,14.0
3.2094681637979043,12.0
3.210465512512571,8.0
3.211462861227238,6.0
3.212460209941905,5.0
3.2134575586565717,4.0
3.2144549073712385,-2.0
3.2154522560859053,-9.0
3.216449604800572,-10.0
3.217446953515239,-10.0
3.218444302229906,-12.0
3.2194416509445727,-9.0
3.2204389996592395,-5.0
3.2214363483739064,-6.0
3.222433697088573,-7.0
3.22343104580324,-5.0
3.224428394517907,0.0
3.2254257432325737,6.0
3.2264230919472405,8.0
3.2274204406619074,9.0
3.228417789376574,13.0
3.229415138091241,9.0
3.230412486805908,5.0
3.2314098355205747,6.0
3.2324071842352415,5.0
3.2334045329499084,5.0
3.234401881664575,-2.0
3.235399230379242,-4.0
3.236396579093909,-10.0
3.2373939278085757,-12.0
3.2383912765232425,-13.0
3.2393886252379094,-9.0
3.240385973952576,-8.0
3.241383322667243,-6.0
3.24238067138191,-7.0
3.2433780200965767,-6.0
3.2443753688112436,0.0
3.2453727175259104,6.0
3.2463700662405772,10.0
3.247367414955244,11.0
3.248364763669911,16.0
3.2493621123845777,12.0
3.2503594610992446,5.0
3.2513568098139114,5.0
3.2523541585285782,4.0
3.253351507243245,4.0
3.2543488559579123,0.0
3.255346204672579,-5.0
3.256343553387246,-10.0
3.257340902101913,-11.0
3.2583382508165797,-13.0
3.2593355995312465,-9.0
3.2603329482459134,-8.0
3.26133029696058,-8.0
3.262327645675247,-9.0
3.263324994389914,-7.0
3.2643223431045807,2.0
3.2653196918192475,8.0
3.2663170405339144,12.0
3.267314389248581,9.0
3.268311737963248,16.0
3.269309086677915,12.0
3.2703064353925817,7.0
3.2713037841072485,6.0
3.2723011328219154,5.0
3.273298481536582,3.0
3.274295830251249,-3.0
3.275293178965916,-7.0
3.2762905276805827,-12.0
3.2772878763952495,-11.0
3.2782852251099164,-12.0
3.279282573824583,-11.0
3.28027992253925,-7.0
3.281277271253917,-5.0
3.2822746199685837,-6.0
3.2832719686832506,-5.0
3.2842693173979174,1.0
3.285266666112584,8.0
3.286264014827251,9.0
3.287261363541918,12.0
3.2882587122565847,14.0
3.2892560609712516,14.0
3.2902534096859184,8.0
3.2912507584005852,5.0
3.292248107115252,5.0
3.293245455829919,5.0
3.2942428045445857,0.0
3.2952401532592526,-8.0
3.2962375019739194,-9.0
3.2972348506885862,-11.0
3.298232199403253,-14.0
3.29922954811792,-11.0
3.3002268968325867,-6.0
3.3012242455472536,-6.0
3.302221594261921,-8.0
3.3032189429765877,-8.0
3.3042162916912545,0.0
3.3052136404059214,8.0
3.306210989120588,9.0
3.307208337835255,10.0
3.308205686549922,13.0
3.3092030352645887,12.0
3.3102003839792555,6.0
3.3111977326939224,6.0
3.312195081408589,3.0
3.313192430123256,4.0
3.314189778837923,-3.0
3.3151871275525897,-8.0
3.3161844762672565,-11.0
3.3171818249819234,-11.0
3.31817917369659,-11.0
3.319176522411257,-9.0
3.320173871125924,-6.0
3.3211712198405907,-5.0
3.3221685685552576,-6.0
3.3231659172699244,-4.0
3.324163265984591,0.0
3.325160614699258,6.0
3.326157963413925,11.0
3.3271553121285917,12.0
3.3281526608432586,13.0
3.3291500095579254,11.0
3.3301473582725922,6.0
3.331144706987259,5.0
3.332142055701926,6.0
3.3331394044165927,2.0
3.3341367531312596,-3.0
3.3351341018459264,-8.0
3.3361314505605932,-10.0
3.33712879927526,-12.0
3.338126147989927,-11.0
3.3391234967045937,-11.0
3.3401208454192606,-6.0
3.3411181941339274,-6.0
3.3421155428485942,-7.0
3.343112891563261,-4.0
3.344110240277928,0.0
3.3451075889925947,10.0
3.3461049377072616,11.0
3.3471022864219284,9.0
3.3480996351365953,12.0
3.3490969838512625,12.0
3.3500943325659294,8.0
3.351091681280596,4.0
3.352089029995263,3.0
3.35308637870993,2.0
3.3540837274245967,-2.0
3.3550810761392635,-7.0
3.3560784248539304,-9.0
3.357075773568597,-11.0
3.358073122283264,-13.0
3.359070470997931,-10.0
3.3600678197125977,-7.0
3.3610651684272645,-6.0
3.3620625171419314,-7.0
3.363059865856598,-4.0
3.364057214571265,3.0
3.365054563285932,9.0
3.3660519120005987,10.0
3.3670492607152656,12.0
3.3680466094299324,13.0
3.3690439581445992,11.0
3.370041306859266,6.0
3.371038655573933,5.0
3.3720360042885997,3.0
3.3730333530032666,5.0
3.3740307017179334,-2.0
3.3750280504326002,-8.0
3.376025399147267,-9.0
3.377022747861934,-11.0
3.3780200965766007,-12.0
3.3790174452912676,-9.0
3.3800147940059344,-6.0
3.3810121427206012,-7.0
3.382009491435268,-4.0
3.383006840149935,-6.0
3.3840041888646017,1.0
3.3850015375792686,8.0
3.3859988862939354,9.0
3.3869962350086023,11.0
3.387993583723269,14.0
3.388990932437936,12.0
3.3899882811526028,7.0
3.3909856298672696,6.0
3.3919829785819364,3.0
3.3929803272966033,2.0
3.39397767601127,-3.0
3.394975024725937,-8.0
3.3959723734406038,-11.0
3.396969722155271,-10.0
3.397967070869938,-12.0
3.3989644195846047,-8.0
3.3999617682992715,-6.0
3.4009591170139384,-7.0
3.401956465728605,-7.0
3.402953814443272,-5.0
3.403951163157939,3.0
3.4049485118726057,8.0
3.4059458605872726,11.0
3.4069432093019394,11.0
3.4079405580166062,13.0
3.408937906731273,9.0
3.40993525544594,6.0
3.4109326041606067,6.0
3.4119299528752736,5.0
3.4129273015899404,3.0
3.4139246503046072,-2.0
3.414921999019274,-7.0
3.415919347733941,-8.0
3.4169166964486077,-10.0
3.4179140451632746,-12.0
3.4189113938779414,-10.0
3.4199087425926082,-5.0
3.420906091307275,-7.0
3.421903440021942,-8.0
3.4229007887366087,-8.0
3.4238981374512756,1.0
3.4248954861659424,10.0
3.4258928348806093,9.0
3.426890183595276,11.0
3.427887532309943,14.0
3.4288848810246098,10.0
3.4298822297392766,7.0
3.4308795784539434,8.0
3.4318769271686103,4.0
3.432874275883277,4.0
3.433871624597944,-2.0
3.4348689733126108,-8.0
3.4358663220272776,-11.0
3.4368636707419444,-12.0
3.4378610194566113,-12.0
3.438858368171278,-10.0
3.439855716885945,-6.0
3.4408530656006118,-7.0
3.4418504143152786,-6.0
3.4428477630299454,-4.0
3.4438451117446123,1.0
3.4448424604592796,7.0
3.4458398091739464,9.0
3.4468371578886132,13.0
3.44783450660328,13.0
3.448831855317947,10.0
3.4498292040326137,6.0
3.4508265527472806,4.0
3.4518239014619474,3.0
3.4528212501766142,4.0
3.453818598891281,-3.0
3.454815947605948,-8.0
3.4558132963206147,-8.0
3.4568106450352816,-11.0
3.4578079937499484,-12.0
3.4588053424646152,-10.0
3.459802691179282,-5.0
3.460800039893949,-10.0
3.4617973886086157,-6.0
3.4627947373232826,-4.0
3.4637920860379494,0.0
3.4647894347526162,7.0
3.465786783467283,11.0
3.46678413218195,11.0
3.4677814808966168,12.0
3.4687788296112836,11.0
3.4697761783259504,6.0
3.4707735270406173,6.0
3.471770875755284,5.0
3.472768224469951,2.0
3.4737655731846178,-3.0
3.4747629218992846,-8.0
3.4757602706139514,-9.0
3.4767576193286183,-8.0
3.477754968043285,-12.0
3.478752316757952,-11.0
3.4797496654726188,-8.0
3.4807470141872856,-5.0
3.4817443629019524,-7.0
3.4827417116166193,-3.0
3.483739060331286,2.0
3.484736409045953,9.0
3.4857337577606198,8.0
3.4867311064752866,10.0
3.4877284551899534,13.0
3.4887258039046203,12.0
3.489723152619287,9.0
3.490720501333954,7.0
3.4917178500486212,1.0
3.492715198763288,3.0
3.493712547477955,-2.0
3.4947098961926217,-8.0
3.4957072449072886,-10.0
3.4967045936219554,-12.0
3.4977019423366222,-12.0
3.498699291051289,-11.0
3.499696639765956,-5.0
3.5006939884806227,-7.0
3.5016913371952896,-7.0
3.5026886859099564,-5.0
3.5036860346246232,2.0
3.50468338333929,7.0
3.505680732053957,11.0
3.5066780807686238,9.0
3.5076754294832906,13.0
3.5086727781979574,11.0
3.5096701269126243,7.0
3.510667475627291,7.0
3.511664824341958,5.0
3.5126621730566248,3.0
3.5136595217712916,-1.0
3.5146568704859584,-9.0
3.5156542192006253,-9.0
3.516651567915292,-13.0
3.517648916629959,-15.0
3.5186462653446258,-8.0
3.5196436140592926,-6.0
3.5206409627739594,-8.0
3.5216383114886263,-6.0
3.522635660203293,-2.0
3.52363300891796,1.0
3.5246303576326268,9.0
3.5256277063472936,9.0
3.5266250550619604,12.0
3.5276224037766273,13.0
3.528619752491294,12.0
3.529617101205961,5.0
3.530614449920628,6.0
3.5316117986352946,4.0
3.5326091473499615,1.0
3.5336064960646283,-2.0
3.534603844779295,-7.0
3.535601193493962,-9.0
3.536598542208629,-10.0
3.5375958909232956,-11.0
3.5385932396379625,-9.0
3.5395905883526297,-7.0
3.5405879370672966,-8.0
3.5415852857819634,-7.0
3.5425826344966302,-7.0
3.543579983211297,1.0
3.544577331925964,8.0
3.5455746806406307,10.0
3.5465720293552976,11.0
3.5475693780699644,11.0
3.5485667267846313,10.0
3.549564075499298,6.0
3.550561424213965,6.0
3.5515587729286318,4.0
3.5525561216432986,5.0
3.5535534703579654,-2.0
3.5545508190726323,-7.0
3.555548167787299,-10.0
3.556545516501966,-12.0
3.5575428652166328,-12.0
3.5585402139312996,-11.0
3.5595375626459664,-7.0
3.5605349113606333,-7.0
3.5615322600753,-6.0
3.562529608789967,-3.0
3.5635269575046338,4.0
3.5645243062193006,7.0
3.5655216549339674,11.0
3.5665190036486343,13.0
3.567516352363301,12.0
3.568513701077968,11.0
3.569511049792635,5.0
3.5705083985073016,5.0
3.5715057472219685,2.0
3.5725030959366353,4.0
3.573500444651302,-2.0
3.574497793365969,-8.0
3.575495142080636,-9.0
3.5764924907953026,-11.0
3.5774898395099695,-12.0
3.5784871882246363,-8.0
3.579484536939303,-5.0
3.58048188565397,-9.0
3.581479234368637,-5.0
3.5824765830833036,-4.0
3.5834739317979705,3.0
3.5844712805126373,7.0
3.585468629227304,10.0
3.5864659779419714,12.0
3.5874633266566383,11.0
3.588460675371305,12.0
3.589458024085972,8.0
3.5904553728006388,5.0
3.5914527215153056,3.0
3.5924500702299724,3.0
3.5934474189446393,-3.0
3.594444767659306,-7.0
3.595442116373973,-10.0
3.5964394650886398,-10.0
3.5974368138033066,-13.0
3.5984341625179734,-8.0
3.5994315112326403,-6.0
3.600428859947307,-7.0
3.601426208661974,-7.0
3.6024235573766408,-4.0
3.6034209060913076,4.0
3.6044182548059744,9.0
3.6054156035206413,11.0
3.606412952235308,12.0
3.607410300949975,13.0
3.608407649664642,12.0
3.6094049983793086,7.0
3.6104023470939755,5.0
3.6113996958086423,4.0
3.612397044523309,3.0
3.613394393237976,-3.0
3.614391741952643,-7.0
3.6153890906673096,-10.0
3.6163864393819765,-12.0
3.6173837880966433,-13.0
3.61838113681131,-9.0
3.619378485525977,-6.0
3.620375834240644,-5.0
3.6213731829553106,-8.0
3.6223705316699775,-5.0
3.6233678803846443,3.0
3.624365229099311,10.0
3.625362577813978,9.0
3.626359926528645,12.0
3.6273572752433116,12.0
3.6283546239579785,10.0
3.6293519726726453,6.0
3.630349321387312,4.0
3.631346670101979,4.0
3.632344018816646,2.0
3.6333413675313126,-1.0
3.63433871624598,-9.0
3.6353360649606468,-10.0
3.6363334136753136,-13.0
3.6373307623899804,-13.0
3.6383281111046473,-8.0
3.639325459819314,-5.0
3.640322808533981,-7.0
3.6413201572486478,-8.0
3.6423175059633146,-4.0
3.6433148546779814,4.0
3.6443122033926483,10.0
3.645309552107315,9.0
3.646306900821982,11.0
3.647304249536649,14.0
3.6483015982513156,12.0
3.6492989469659824,4.0
3.6502962956806493,5.0
3.651293644395316,5.0
3.652290993109983,4.0
3.65328834182465,-4.0
3.6542856905393166,-10.0
3.6552830392539835,-9.0
3.6562803879686503,-12.0
3.657277736683317,-15.0
3.658275085397984,-9.0
3.659272434112651,-5.0
3.6602697828273176,-4.0
3.6612671315419845,-6.0
3.6622644802566513,-3.0
3.663261828971318,4.0
3.664259177685985,8.0
3.665256526400652,10.0
3.6662538751153186,12.0
3.6672512238299855,12.0
3.6682485725446523,8.0
3.669245921259319,6.0
3.670243269973986,6.0
3.671240618688653,4.0
3.6722379674033196,2.0
3.6732353161179865,-2.0
3.6742326648326533,-8.0
3.67523001354732,-12.0
3.676227362261987,-11.0
3.677224710976654,-11.0
3.6782220596913207,-8.0
3.6792194084059875,-7.0
3.6802167571206543,-7.0
3.681214105835321,-7.0
3.6822114545499884,-6.0
3.6832088032646553,3.0
3.684206151979322,6.0
3.685203500693989,9.0
3.6862008494086558,13.0
3.6871981981233226,14.0
3.6881955468379894,8.0
3.6891928955526563,7.0
3.690190244267323,4.0
3.69118759298199,5.0
3.692184941696657,2.0
3.6931822904113236,-4.0
3.6941796391259905,-8.0
3.6951769878406573,-10.0
3.696174336555324,-10.0
3.697171685269991,-12.0
3.698169033984658,-7.0
3.6991663826993246,-3.0
3.7001637314139915,-4.0
3.7011610801286583,-7.0
3.702158428843325,-4.0
3.703155777557992,2.0
3.704153126272659,8.0
3.7051504749873256,9.0
3.7061478237019925,11.0
3.7071451724166593,13.0
3.708142521131326,11.0
3.709139869845993,7.0
3.71013721856066,6.0
3.7111345672753266,3.0
3.7121319159899935,1.0
3.7131292647046603,-1.0
3.714126613419327,-10.0
3.715123962133994,-11.0
3.716121310848661,-11.0
3.7171186595633277,-12.0
3.7181160082779945,-8.0
3.7191133569926613,-7.0
3.720110705707328,-7.0
3.721108054421995,-8.0
3.722105403136662,-4.0
3.7231027518513287,2.0
3.7241001005659955,7.0
3.7250974492806623,9.0
3.726094797995329,14.0
3.727092146709996,13.0
3.728089495424663,10.0
3.72908684413933,8.0
3.730084192853997,6.0
3.731081541568664,5.0
3.7320788902833306,2.0
3.7330762389979975,-4.0
3.7340735877126643,-9.0
3.735070936427331,-9.0
3.736068285141998,-11.0
3.737065633856665,-11.0
3.7380629825713316,-9.0
3.7390603312859985,-7.0
3.7400576800006653,-9.0
3.741055028715332,-8.0
3.742052377429999,-2.0
3.743049726144666,4.0
3.7440470748593326,10.0
3.7450444235739995,11.0
3.7460417722886663,12.0
3.747039121003333,12.0
3.748036469718,10.0
3.749033818432667,6.0
3.7500311671473336,7.0
3.7510285158620005,4.0
3.7520258645766673,3.0
3.753023213291334,-2.0
3.754020562006001,-8.0
3.755017910720668,-10.0
3.7560152594353347,-12.0
3.7570126081500015,-15.0
3.7580099568646683,-8.0
3.759007305579335,-5.0
3.760004654294002,-6.0
3.761002003008669,-6.0
3.7619993517233357,-4.0
3.7629967004380025,3.0
3.7639940491526693,8.0
3.764991397867336,12.0
3.765988746582003,12.0
3.76698609529667,14.0
3.7679834440113367,10.0
3.7689807927260035,6.0
3.7699781414406703,4.0
3.770975490155337,4.0
3.771972838870004,0.0
3.772970187584671,-4.0
3.7739675362993377,-11.0
3.7749648850140045,-10.0
3.7759622337286713,-11.0
3.7769595824433386,-12.0
3.7779569311580055,-8.0
3.7789542798726723,-5.0
3.779951628587339,-5.0
3.780948977302006,-9.0
3.781946326016673,-1.0
3.7829436747313396,6.0
3.7839410234460065,8.0
3.7849383721606733,7.0
3.78593572087534,13.0
3.786933069590007,13.0
3.787930418304674,9.0
3.7889277670193406,7.0
3.7899251157340075,5.0
3.7909224644486743,3.0
3.791919813163341,2.0
3.792917161878008,-1.0
3.793914510592675,-10.0
3.7949118593073417,-11.0
3.7959092080220085,-11.0
3.7969065567366753,-13.0
3.797903905451342,-9.0
3.798901254166009,-7.0
3.799898602880676,-4.0
3.8008959515953427,-6.0
3.8018933003100095,-2.0
3.8028906490246763,4.0
3.803887997739343,6.0
3.80488534645401,9.0
3.805882695168677,11.0
3.8068800438833437,12.0
3.8078773925980105,11.0
3.8088747413126773,7.0
3.809872090027344,4.0
3.810869438742011,2.0
3.811866787456678,4.0
3.8128641361713447,-4.0
3.8138614848860115,-9.0
3.8148588336006783,-8.0
3.815856182315345,-10.0
3.816853531030012,-11.0
3.817850879744679,-11.0
3.8188482284593457,-8.0
3.8198455771740125,-6.0
3.8208429258886794,-7.0
3.821840274603346,-3.0
3.822837623318013,3.0
3.82383497203268,9.0
3.824832320747347,10.0
3.825829669462014,13.0
3.826827018176681,13.0
3.8278243668913476,12.0
3.8288217156060145,7.0
3.8298190643206813,5.0
3.830816413035348,2.0
3.831813761750015,-2.0
3.832811110464682,-4.0
3.8338084591793486,-7.0
3.8348058078940155,-9.0
3.8358031566086823,-11.0
3.836800505323349,-13.0
3.837797854038016,-8.0
3.838795202752683,-7.0
3.8397925514673497,-6.0
3.8407899001820165,-7.0
3.8417872488966833,-4.0
3.84278459761135,3.0
3.843781946326017,9.0
3.844779295040684,11.0
3.8457766437553507,12.0
3.8467739924700175,14.0
3.8477713411846843,10.0
3.848768689899351,7.0
3.849766038614018,6.0
3.850763387328685,5.0
3.8517607360433517,1.0
3.8527580847580185,-3.0
3.8537554334726853,-11.0
3.854752782187352,-10.0
3.855750130902019,-13.0
3.856747479616686,-13.0
3.8577448283313527,-8.0
3.8587421770460195,-6.0
3.8597395257606864,-6.0
3.860736874475353,-6.0
3.86173422319002,-4.0
3.862731571904687,3.0
3.8637289206193537,8.0
3.8647262693340205,12.0
3.8657236180486874,12.0
3.866720966763354,15.0
3.867718315478021,10.0
3.868715664192688,4.0
3.8697130129073547,5.0
3.8707103616220215,3.0
3.871707710336689,3.0
3.8727050590513556,-3.0
3.8737024077660225,-8.0
3.8746997564806893,-11.0
3.875697105195356,-13.0
3.876694453910023,-15.0
3.87769180262469,-7.0
3.8786891513393567,-6.0
3.8796865000540235,-8.0
3.8806838487686903,-6.0
3.881681197483357,-5.0
3.882678546198024,5.0
3.883675894912691,9.0
3.8846732436273577,10.0
3.8856705923420245,12.0
3.8866679410566913,12.0
3.887665289771358,9.0
3.888662638486025,6.0
3.889659987200692,7.0
3.8906573359153587,5.0
3.8916546846300255,1.0
3.8926520333446923,-4.0
3.893649382059359,-9.0
3.894646730774026,-12.0
3.895644079488693,-12.0
3.8966414282033597,-12.0
3.8976387769180265,-8.0
3.8986361256326933,-7.0
3.89963347434736,-6.0
3.900630823062027,-7.0
3.901628171776694,-4.0
3.9026255204913607,3.0
3.9036228692060275,9.0
3.9046202179206944,12.0
3.905617566635361,16.0
3.906614915350028,14.0
3.907612264064695,9.0
3.9086096127793617,6.0
3.9096069614940285,5.0
3.9106043102086954,3.0
3.911601658923362,3.0
3.912599007638029,-3.0
3.913596356352696,-10.0
3.9145937050673627,-9.0
3.9155910537820295,-12.0
3.9165884024966964,-14.0
3.917585751211363,-8.0
3.91858309992603,-7.0
3.9195804486406973,-6.0
3.920577797355364,-7.0
3.921575146070031,-4.0
3.922572494784698,4.0
3.9235698434993647,9.0
3.9245671922140315,9.0
3.9255645409286983,15.0
3.926561889643365,12.0
3.927559238358032,10.0
3.928556587072699,6.0
3.9295539357873657,4.0
3.9305512845020325,4.0
3.9315486332166993,3.0
3.932545981931366,-4.0
3.933543330646033,-9.0
3.9345406793607,-10.0
3.9355380280753667,-11.0
3.9365353767900335,-11.0
3.9375327255047003,-6.0
3.938530074219367,-5.0
3.939527422934034,-7.0
3.940524771648701,-6.0
3.9415221203633677,-3.0
3.9425194690780345,4.0
3.9435168177927014,8.0
3.944514166507368,10.0
3.945511515222035,11.0
3.946508863936702,14.0
3.9475062126513687,8.0
3.9485035613660355,6.0
3.9495009100807024,3.0
3.950498258795369,4.0
3.951495607510036,1.0
3.952492956224703,-3.0
3.9534903049393697,-8.0
3.9544876536540365,-10.0
3.9554850023687034,-11.0
3.95648235108337,-11.0
3.957479699798037,-8.0
3.958477048512704,-6.0
3.9594743972273707,-6.0
3.9604717459420375,-5.0
3.9614690946567044,-5.0
3.962466443371371,4.0
3.963463792086038,11.0
3.964461140800705,11.0
3.9654584895153717,12.0
3.966455838230039,14.0
3.967453186944706,9.0
3.9684505356593727,4.0
3.9694478843740395,4.0
3.9704452330887063,6.0
3.971442581803373,1.0
3.97243993051804,-6.0
3.973437279232707,-8.0
3.9744346279473737,-11.0
3.9754319766620405,-12.0
3.9764293253767073,-12.0
3.977426674091374,-8.0
3.978424022806041,-9.0
3.979421371520708,-6.0
3.9804187202353747,-4.0
3.9814160689500415,-3.0
3.9824134176647084,4.0
3.983410766379375,9.0
3.984408115094042,12.0
3.985405463808709,12.0
3.9864028125233757,11.0
3.9874001612380425,10.0
3.9883975099527094,11.0
3.989394858667376,6.0
3.990392207382043,4.0
3.99138955609671,2.0
3.9923869048113767,-3.0
3.9933842535260435,-10.0
3.9943816022407104,-11.0
3.995378950955377,-13.0
3.996376299670044,-13.0
3.997373648384711,-8.0
3.9983709970993777,-6.0
3.9993683458140445,-7.0
4.000365694528711,-8.0
4.001363043243378,-2.0
4.002360391958045,4.0
4.003357740672712,9.0
4.004355089387379,8.0
4.0053524381020456,13.0
4.006349786816712,14.0
4.007347135531379,8.0
4.008344484246046,7.0
4.009341832960713,4.0
4.01033918167538,2.0
4.011336530390047,3.0
4.012333879104713,-4.0
4.01333122781938,-8.0
4.014328576534047,-12.0
4.015325925248714,-11.0
4.016323273963381,-11.0
4.017320622678048,-8.0
4.018317971392714,-7.0
4.019315320107381,-7.0
4.020312668822048,-6.0
4.021310017536715,-2.0
4.022307366251382,4.0
4.023304714966049,9.0
4.024302063680715,11.0
4.025299412395382,13.0
4.026296761110049,14.0
4.027294109824716,10.0
4.028291458539383,6.0
4.02928880725405,5.0
4.030286155968716,4.0
4.031283504683383,3.0
4.03228085339805,-3.0
4.033278202112717,-8.0
4.034275550827384,-11.0
4.035272899542051,-13.0
4.036270248256717,-13.0
4.037267596971384,-7.0
4.038264945686052,-6.0
4.039262294400719,-7.0
4.040259643115386,-5.0
4.0412569918300525,-4.0
4.042254340544719,4.0
4.043251689259386,8.0
4.044249037974053,9.0
4.04524638668872,12.0
4.046243735403387,14.0
4.0472410841180535,9.0
4.04823843283272,8.0
4.049235781547387,5.0
4.050233130262054,4.0
4.051230478976721,2.0
4.052227827691388,-4.0
4.0532251764060545,-9.0
4.054222525120721,-10.0
4.055219873835388,-11.0
4.056217222550055,-13.0
4.057214571264722,-10.0
4.058211919979389,-7.0
4.0592092686940555,-7.0
4.060206617408722,-6.0
4.061203966123389,-3.0
4.062201314838056,2.0
4.063198663552723,10.0
4.06419601226739,13.0
4.0651933609820565,14.0
4.066190709696723,12.0
4.06718805841139,9.0
4.068185407126057,6.0
4.069182755840724,3.0
4.070180104555391,3.0
4.0711774532700575,2.0
4.072174801984724,-3.0
4.073172150699391,-8.0
4.074169499414058,-10.0
4.075166848128725,-12.0
4.076164196843392,-11.0
4.0771615455580585,-7.0
4.078158894272725,-6.0
4.079156242987392,-8.0
4.080153591702059,-5.0
4.081150940416726,-2.0
4.082148289131393,5.0
4.0831456378460596,10.0
4.084142986560726,9.0
4.085140335275393,12.0
4.08613768399006,13.0
4.087135032704727,9.0
4.088132381419394,6.0
4.089129730134061,4.0
4.090127078848727,4.0
4.091124427563394,3.0
4.092121776278061,-4.0
4.093119124992728,-8.0
4.094116473707395,-11.0
4.095113822422062,-14.0
4.096111171136728,-12.0
4.097108519851395,-5.0
4.098105868566062,-5.0
4.099103217280729,-8.0
4.100100565995396,-7.0
4.101097914710063,-3.0
4.102095263424729,4.0
4.103092612139396,11.0
4.104089960854063,9.0
4.10508730956873,12.0
4.106084658283397,13.0
4.107082006998064,8.0
4.10807935571273,5.0
4.109076704427397,2.0
4.110074053142064,4.0
4.111071401856731,4.0
4.112068750571398,-5.0
4.113066099286065,-8.0
4.114063448000731,-11.0
4.115060796715398,-10.0
4.116058145430065,-11.0
4.117055494144732,-9.0
4.118052842859399,-5.0
4.119050191574066,-7.0
4.120047540288732,-5.0
4.121044889003399,-3.0
4.122042237718066,5.0
4.123039586432733,12.0
4.1240369351474,11.0
4.125034283862067,12.0
4.126031632576733,12.0
4.1270289812914,8.0
4.128026330006067,6.0
4.129023678720734,4.0
4.130021027435401,3.0
4.131018376150068,0.0
4.1320157248647345,-3.0
4.133013073579402,-8.0
4.134010422294069,-9.0
4.135007771008736,-14.0
4.136005119723403,-12.0
4.1370024684380695,-8.0
4.137999817152736,-7.0
4.138997165867403,-7.0
4.13999451458207,-7.0
4.140991863296737,-2.0
4.141989212011404,4.0
4.1429865607260705,9.0
4.143983909440737,11.0
4.144981258155404,14.0
4.145978606870071,14.0
4.146975955584738,8.0
4.147973304299405,5.0
4.1489706530140715,4.0
4.149968001728738,3.0
4.150965350443405,2.0
4.151962699158072,-5.0
4.152960047872739,-7.0
4.153957396587406,-10.0
4.1549547453020725,-12.0
4.155952094016739,-12.0
4.156949442731406,-7.0
4.157946791446073,-4.0
4.15894414016074,-7.0
4.159941488875407,-5.0
4.1609388375900735,-2.0
4.16193618630474,3.0
4.162933535019407,8.0
4.163930883734074,10.0
4.164928232448741,13.0
4.165925581163408,12.0
4.1669229298780746,8.0
4.167920278592741,5.0
4.168917627307408,3.0
4.169914976022075,4.0
4.170912324736742,0.0
4.171909673451409,-4.0
4.172907022166076,-8.0
4.173904370880742,-9.0
4.174901719595409,-12.0
4.175899068310076,-11.0
4.176896417024743,-8.0
4.17789376573941,-7.0
4.178891114454077,-7.0
4.179888463168743,-7.0
4.18088581188341,-2.0
4.181883160598077,4.0
4.182880509312744,9.0
4.183877858027411,10.0
4.184875206742078,12.0
4.185872555456744,13.0
4.186869904171411,8.0
4.187867252886078,6.0
4.188864601600745,7.0
4.189861950315412,4.0
4.190859299030079,2.0
4.191856647744745,-6.0
4.192853996459412,-9.0
4.193851345174079,-11.0
4.194848693888746,-12.0
4.195846042603413,-12.0
4.19684339131808,-8.0
4.197840740032746,-7.0
4.198838088747413,-7.0
4.19983543746208,-8.0
4.200832786176747,-1.0
4.201830134891414,7.0
4.202827483606081,10.0
4.203824832320747,9.0
4.204822181035414,10.0
4.205819529750081,13.0
4.206816878464748,10.0
4.207814227179415,7.0
4.208811575894082,6.0
4.2098089246087484,4.0
4.210806273323415,0.0
4.211803622038082,-5.0
4.212800970752749,-10.0
4.213798319467416,-9.0
4.214795668182083,-10.0
4.2157930168967495,-12.0
4.216790365611416,-8.0
4.217787714326083,-7.0
4.21878506304075,-8.0
4.219782411755417,-8.0
4.220779760470084,0.0
4.2217771091847505,5.0
4.222774457899417,9.0
4.223771806614084,9.0
4.224769155328751,12.0
4.225766504043418,13.0
4.226763852758085,9.0
4.227761201472752,6.0
4.228758550187419,6.0
4.229755898902086,4.0
4.230753247616753,0.0
4.23175059633142,-3.0
4.2327479450460865,-7.0
4.233745293760753,-8.0
4.23474264247542,-11.0
4.235739991190087,-11.0
4.236737339904754,-4.0
4.237734688619421,-6.0
4.2387320373340875,-7.0
4.239729386048754,-8.0
4.240726734763421,-4.0
4.241724083478088,3.0
4.242721432192755,9.0
4.243718780907422,8.0
4.2447161296220886,13.0
4.245713478336755,9.0
4.246710827051422,6.0
4.247708175766089,5.0
4.248705524480756,5.0
4.249702873195423,5.0
4.25070022191009,5.0
4.251697570624756,-3.0
4.252694919339423,-9.0
4.25369226805409,-8.0
4.254689616768757,-14.0
4.255686965483424,-11.0
4.256684314198091,-8.0
4.257681662912757,-12.0
4.258679011627424,-11.0
4.259676360342091,-9.0
4.260673709056758,-2.0
4.261671057771425,12.0
4.262668406486092,16.0
4.263665755200758,14.0
4.264663103915425,15.0
4.265660452630092,15.0
4.266657801344759,8.0
4.267655150059426,3.0
4.268652498774093,4.0
4.269649847488759,3.0
4.270647196203426,-1.0
4.271644544918093,-8.0
4.27264189363276,-13.0
4.273639242347427,-10.0
4.274636591062094,-13.0
4.27563393977676,-12.0
4.276631288491427,-5.0
4.277628637206094,-8.0
4.278625985920761,-7.0
4.279623334635428,-7.0
4.280620683350095,0.0
4.281618032064761,5.0
4.282615380779428,12.0
4.283612729494095,10.0
4.284610078208762,12.0
4.285607426923429,12.0
4.286604775638096,9.0
4.2876021243527624,8.0
4.288599473067429,5.0
4.289596821782096,1.0
4.290594170496763,1.0
4.29159151921143,-5.0
4.292588867926097,-9.0
4.2935862166407635,-9.0
4.29458356535543,-13.0
4.295580914070097,-11.0
4.296578262784764,-7.0
4.297575611499431,-7.0
4.298572960214098,-8.0
4.2995703089287645,-6.0
4.300567657643431,-2.0
4.301565006358098,7.0
4.302562355072765,10.0
4.303559703787432,11.0
4.304557052502099,11.0
4.3055544012167655,13.0
4.306551749931432,8.0
4.307549098646099,8.0
4.308546447360766,6.0
4.309543796075433,6.0
4.3105411447901,2.0
4.3115384935047665,-3.0
4.312535842219433,-10.0
4.3135331909341,-11.0
4.314530539648767,-11.0
4.315527888363434,-11.0
4.316525237078101,-7.0
4.3175225857927675,-8.0
4.318519934507434,-8.0
4.319517283222101,-6.0
4.320514631936768,-1.0
4.321511980651435,7.0
4.322509329366102,10.0
4.323506678080769,10.0
4.324504026795436,14.0
4.325501375510103,11.0
4.32649872422477,8.0
4.327496072939437,6.0
4.328493421654104,4.0
4.32949077036877,2.0
4.330488119083437,-2.0
4.331485467798104,-5.0
4.332482816512771,-9.0
4.333480165227438,-10.0
4.334477513942105,-11.0
4.335474862656771,-10.0
4.336472211371438,-5.0
4.337469560086105,-6.0
4.338466908800772,-7.0
4.339464257515439,-7.0
4.340461606230106,-2.0
4.341458954944772,7.0
4.342456303659439,11.0
4.343453652374106,10.0
4.344451001088773,10.0
4.34544834980344,11.0
4.346445698518107,10.0
4.347443047232773,8.0
4.34844039594744,6.0
4.349437744662107,4.0
4.350435093376774,-3.0
4.351432442091441,-8.0
4.352429790806108,-8.0
4.353427139520774,-9.0
4.354424488235441,-12.0
4.355421836950108,-11.0
4.356419185664775,-7.0
4.357416534379442,-5.0
4.358413883094109,-7.0
4.359411231808775,-7.0
4.360408580523442,-1.0
4.361405929238109,6.0
4.362403277952776,10.0
4.363400626667443,9.0
4.36439797538211,11.0
4.365395324096776,12.0
4.366392672811443,9.0
4.36739002152611,7.0
4.368387370240777,5.0
4.369384718955444,3.0
4.370382067670111,1.0
4.3713794163847774,-6.0
4.372376765099444,-9.0
4.373374113814111,-12.0
4.374371462528778,-14.0
4.375368811243445,-12.0
4.376366159958112,-7.0
4.3773635086727785,-7.0
4.378360857387445,-7.0
4.379358206102112,-9.0
4.380355554816779,-2.0
4.381352903531446,6.0
4.382350252246113,10.0
4.3833476009607795,10.0
4.384344949675446,11.0
4.385342298390113,12.0
4.38633964710478,10.0
4.387336995819447,10.0
4.388334344534114,9.0
4.3893316932487805,6.0
4.390329041963447,1.0
4.391326390678114,-6.0
4.392323739392781,-12.0
4.393321088107448,-14.0
4.394318436822115,-16.0
4.3953157855367815,-13.0
4.396313134251448,-7.0
4.397310482966115,-4.0
4.398307831680782,-5.0
4.399305180395449,-7.0
4.400302529110116,-5.0
4.4012998778247825,5.0
4.402297226539449,9.0
4.403294575254116,11.0
4.404291923968783,14.0
4.40528927268345,14.0
4.406286621398117,10.0
4.4072839701127835,7.0
4.40828131882745,1.0
4.409278667542117,4.0
4.410276016256784,-1.0
4.411273364971451,-3.0
4.412270713686118,-8.0
4.4132680624007845,-11.0
4.414265411115451,-13.0
4.415262759830118,-11.0
4.416260108544785,-6.0
4.417257457259452,-6.0
4.41825480597412,-8.0
4.419252154688786,-5.0
4.420249503403453,-1.0
4.42124685211812,5.0
4.422244200832787,11.0
4.423241549547454,11.0
4.424238898262121,14.0
4.425236246976787,14.0
4.426233595691454,6.0
4.427230944406121,6.0
4.428228293120788,1.0
4.429225641835455,3.0
4.430222990550122,0.0
4.431220339264788,-5.0
4.432217687979455,-9.0
4.433215036694122,-10.0
4.434212385408789,-13.0
4.435209734123456,-13.0
4.436207082838123,-5.0
4.437204431552789,-8.0
4.438201780267456,-5.0
4.439199128982123,-6.0
4.44019647769679,-1.0
4.441193826411457,5.0
4.442191175126124,13.0
4.44318852384079,10.0
4.444185872555457,14.0
4.445183221270124,12.0
4.446180569984791,8.0
4.447177918699458,8.0
4.448175267414125,5.0
4.4491726161287914,4.0
4.450169964843458,-2.0
4.451167313558125,-5.0
4.452164662272792,-11.0
4.453162010987459,-12.0
4.454159359702126,-12.0
4.4551567084167925,-11.0
4.456154057131459,-5.0
4.457151405846126,-5.0
4.458148754560793,-4.0
4.45914610327546,-7.0
4.460143451990127,-2.0
4.4611408007047935,4.0
4.46213814941946,11.0
4.463135498134127,12.0
4.464132846848794,12.0
4.465130195563461,11.0
4.466127544278128,6.0
4.4671248929927945,6.0
4.468122241707461,3.0
4.469119590422128,6.0
4.470116939136795,2.0
4.471114287851462,-6.0
4.472111636566129,-10.0
4.4731089852807955,-11.0
4.474106333995462,-11.0
4.475103682710129,-10.0
4.476101031424796,-7.0
4.477098380139463,-7.0
4.47809572885413,-6.0
4.4790930775687965,-4.0
4.480090426283463,0.0
4.48108777499813,6.0
4.482085123712797,8.0
4.483082472427464,9.0
4.484079821142131,13.0
4.4850771698567975,11.0
4.486074518571464,7.0
4.487071867286131,5.0
4.488069216000798,5.0
4.489066564715465,5.0
4.490063913430132,1.0
4.4910612621447985,-8.0
4.492058610859465,-10.0
4.493055959574132,-10.0
4.494053308288799,-12.0
4.495050657003466,-12.0
4.496048005718133,-5.0
4.4970453544327995,-4.0
4.498042703147466,-7.0
4.499040051862133,-6.0
4.5000374005768,1.0
4.501034749291467,4.0
4.502032098006134,10.0
4.5030294467208005,10.0
4.504026795435467,14.0
4.505024144150134,11.0
4.506021492864801,8.0
4.507018841579468,8.0
4.508016190294135,4.0
4.5090135390088015,5.0
4.510010887723468,4.0
4.511008236438135,-6.0
4.512005585152802,-12.0
4.51300293386747,-13.0
4.514000282582137,-12.0
4.514997631296803,-11.0
4.51599498001147,-5.0
4.516992328726137,-7.0
4.517989677440804,-8.0
4.518987026155471,-6.0
4.519984374870138,0.0
4.520981723584804,7.0
4.521979072299471,8.0
4.522976421014138,10.0
4.523973769728805,14.0
4.524971118443472,13.0
4.525968467158139,8.0
4.526965815872805,6.0
4.527963164587472,3.0
4.528960513302139,4.0
4.529957862016806,-2.0
4.530955210731473,-7.0
4.53195255944614,-10.0
4.5329499081608065,-9.0
4.533947256875473,-9.0
4.53494460559014,-10.0
4.535941954304807,-6.0
4.536939303019474,-7.0
4.537936651734141,-9.0
4.5389340004488075,-7.0
4.539931349163474,0.0
4.540928697878141,6.0
4.541926046592808,8.0
4.542923395307475,11.0
4.543920744022142,14.0
4.5449180927368085,13.0
4.545915441451475,8.0
4.546912790166142,6.0
4.547910138880809,3.0
4.548907487595476,4.0
4.549904836310143,0.0
4.5509021850248095,-5.0
4.551899533739476,-10.0
4.552896882454143,-11.0
4.55389423116881,-12.0
4.554891579883477,-11.0
4.555888928598144,-6.0
4.5568862773128105,-6.0
4.557883626027477,-8.0
4.558880974742144,-6.0
4.559878323456811,0.0
4.560875672171478,4.0
4.561873020886145,10.0
4.5628703696008115,10.0
4.563867718315478,12.0
4.564865067030145,13.0
4.565862415744812,8.0
4.566859764459479,7.0
4.567857113174146,4.0
4.5688544618888125,4.0
4.569851810603479,1.0
4.570849159318146,-7.0
4.571846508032813,-11.0
4.57284385674748,-11.0
4.573841205462147,-13.0
4.5748385541768135,-10.0
4.57583590289148,-5.0
4.576833251606147,-8.0
4.577830600320814,-8.0
4.578827949035481,-3.0
4.579825297750148,1.0
4.5808226464648145,7.0
4.581819995179481,9.0
4.582817343894148,11.0
4.583814692608815,12.0
4.584812041323482,11.0
4.585809390038149,6.0
4.5868067387528155,6.0
4.587804087467482,4.0
4.588801436182149,4.0
4.589798784896816,0.0
4.590796133611483,-8.0
4.59179348232615,-10.0
4.5927908310408165,-11.0
4.593788179755483,-13.0
4.59478552847015,-11.0
4.595782877184817,-5.0
4.596780225899484,-7.0
4.597777574614151,-7.0
4.5987749233288175,-5.0
4.599772272043484,-1.0
4.600769620758151,9.0
4.601766969472818,10.0
4.602764318187485,12.0
4.603761666902152,13.0
4.6047590156168186,13.0
4.605756364331485,4.0
4.606753713046152,6.0
4.60775106176082,4.0
4.608748410475487,3.0
4.609745759190154,-2.0
4.6107431079048204,-7.0
4.611740456619487,-11.0
4.612737805334154,-10.0
4.613735154048821,-14.0
4.614732502763488,-11.0
4.615729851478155,-5.0
4.6167272001928215,-6.0
4.617724548907488,-5.0
4.618721897622155,-6.0
4.619719246336822,-1.0
4.620716595051489,7.0
4.621713943766156,11.0
4.6227112924808225,12.0
4.623708641195489,12.0
4.624705989910156,11.0
4.625703338624823,6.0
4.62670068733949,7.0
4.627698036054157,6.0
4.6286953847688235,2.0
4.62969273348349,-1.0
4.630690082198157,-8.0
4.631687430912824,-8.0
4.632684779627491,-9.0
4.633682128342158,-14.0
4.6346794770568245,-10.0
4.635676825771491,-10.0
4.636674174486158,-8.0
4.637671523200825,-8.0
4.638668871915492,-5.0
4.639666220630159,1.0
4.6406635693448255,5.0
4.641660918059492,11.0
4.642658266774159,12.0
4.643655615488826,13.0
4.644652964203493,13.0
4.64565031291816,8.0
4.6466476616328265,4.0
4.647645010347493,4.0
4.64864235906216,5.0
4.649639707776827,0.0
4.650637056491494,-8.0
4.651634405206161,-8.0
4.6526317539208275,-12.0
4.653629102635494,-11.0
4.654626451350161,-11.0
4.655623800064828,-7.0
4.656621148779495,-7.0
4.657618497494162,-5.0
4.6586158462088285,-4.0
4.659613194923495,0.0
4.660610543638162,5.0
4.661607892352829,9.0
4.662605241067496,10.0
4.663602589782163,12.0
4.6645999384968295,12.0
4.665597287211496,8.0
4.666594635926163,6.0
4.66759198464083,4.0
4.668589333355497,2.0
4.669586682070164,0.0
4.6705840307848305,-6.0
4.671581379499497,-8.0
4.672578728214164,-10.0
4.673576076928831,-14.0
4.674573425643498,-11.0
4.675570774358165,-8.0
4.6765681230728315,-8.0
4.677565471787498,-8.0
4.678562820502165,-5.0
4.679560169216832,1.0
4.680557517931499,8.0
4.681554866646166,12.0
4.6825522153608325,10.0
4.683549564075499,13.0
4.684546912790166,10.0
4.685544261504833,5.0
4.6865416102195,4.0
4.687538958934167,5.0
4.688536307648834,4.0
4.6895336563635,0.0
4.690531005078167,-4.0
4.691528353792834,-10.0
4.692525702507501,-12.0
4.693523051222168,-13.0
4.694520399936835,-11.0
4.695517748651501,-7.0
4.696515097366168,-5.0
4.697512446080835,-5.0
4.698509794795502,-7.0
4.699507143510169,3.0
4.700504492224836,7.0
4.701501840939502,10.0
4.702499189654169,11.0
4.703496538368837,12.0
4.704493887083504,9.0
4.705491235798171,8.0
4.7064885845128375,7.0
4.707485933227504,4.0
4.708483281942171,4.0
4.709480630656838,1.0
4.710477979371505,-7.0
4.711475328086172,-11.0
4.7124726768008385,-11.0
4.713470025515505,-13.0
4.714467374230172,-9.0
4.715464722944839,-6.0
4.716462071659506,-7.0
4.717459420374173,-7.0
4.7184567690888395,-4.0
4.719454117803506,0.0
4.720451466518173,8.0
4.72144881523284,8.0
4.722446163947507,11.0
4.723443512662174,14.0
4.7244408613768405,11.0
4.725438210091507,7.0
4.726435558806174,5.0
4.727432907520841,4.0
4.728430256235508,3.0
4.729427604950175,1.0
4.7304249536648415,-7.0
4.731422302379508,-10.0
4.732419651094175,-11.0
4.733416999808842,-12.0
4.734414348523509,-10.0
4.735411697238176,-7.0
4.7364090459528425,-4.0
4.737406394667509,-5.0
4.738403743382176,-5.0
4.739401092096843,1.0
4.74039844081151,6.0
4.741395789526177,9.0
4.7423931382408435,12.0
4.74339048695551,14.0
4.744387835670177,11.0
4.745385184384844,7.0
4.746382533099511,5.0
4.747379881814178,3.0
4.7483772305288445,2.0
4.749374579243511,-2.0
4.750371927958178,-9.0
4.751369276672845,-10.0
4.752366625387512,-8.0
4.753363974102179,-14.0
4.7543613228168455,-11.0
4.755358671531512,-8.0
4.756356020246179,-9.0
4.757353368960846,-7.0
4.758350717675513,-8.0
4.75934806639018,3.0
4.7603454151048465,9.0
4.761342763819513,12.0
4.76234011253418,10.0
4.763337461248847,13.0
4.764334809963514,11.0
4.765332158678181,5.0
4.7663295073928476,5.0
4.767326856107514,6.0
4.768324204822181,1.0
4.769321553536848,-2.0
4.770318902251515,-6.0
4.771316250966182,-7.0
4.772313599680849,-10.0
4.773310948395515,-12.0
4.774308297110182,-11.0
4.775305645824849,-11.0
4.776302994539516,-16.0
4.777300343254183,-16.0
4.77829769196885,-13.0
4.779295040683516,1.0
4.780292389398183,14.0
4.78128973811285,26.0
4.782287086827517,25.0
4.783284435542184,9.0
4.784281784256851,20.0
4.785279132971517,-4.0
4.786276481686184,24.0
4.787273830400851,20.0
4.788271179115518,-3.0
4.789268527830185,-13.0
4.790265876544852,-16.0
4.791263225259518,-20.0
4.792260573974185,-8.0
4.793257922688852,-5.0
4.794255271403519,-14.0
4.795252620118186,-40.0
4.796249968832853,-30.0
4.797247317547519,5.0
4.798244666262187,38.0
4.799242014976854,15.0
4.800239363691521,11.0
4.801236712406188,11.0
4.8022340611208545,8.0
4.803231409835521,-9.0
4.804228758550188,27.0
4.805226107264855,33.0
4.806223455979522,0.0
4.807220804694189,-21.0
4.8082181534088555,-35.0
4.809215502123522,-40.0
4.810212850838189,-9.0
4.811210199552856,7.0
4.812207548267523,17.0
4.81320489698219,62.0
4.8142022456968565,33.0
4.815199594411523,-13.0
4.81619694312619,-47.0
4.817194291840857,-18.0
4.818191640555524,-3.0
4.819188989270191,-1.0
4.8201863379848575,14.0
4.821183686699524,15.0
4.822181035414191,12.0
4.823178384128858,-12.0
4.824175732843525,-39.0
4.825173081558192,0.0
4.8261704302728585,51.0
4.827167778987525,33.0
4.828165127702192,3.0
4.829162476416859,-22.0
4.830159825131526,-35.0
4.831157173846193,-27.0
4.8321545225608595,-30.0
4.833151871275526,-66.0
4.834149219990193,7.0
4.83514656870486,83.0
4.836143917419527,64.0
4.837141266134194,-33.0
4.8381386148488605,-13.0
4.839135963563527,-9.0
4.840133312278194,-16.0
4.841130660992861,-15.0
4.842128009707528,-3.0
4.843125358422195,-6.0
4.8441227071368615,22.0
4.845120055851528,47.0
4.846117404566195,41.0
4.847114753280862,16.0
4.848112101995529,-56.0
4.849109450710196,10.0
4.850106799424863,61.0
4.851104148139529,14.0
4.852101496854196,-47.0
4.853098845568863,-59.0
4.85409619428353,-35.0
4.855093542998197,15.0
4.856090891712864,-6.0
4.85708824042753,-41.0
4.858085589142197,-7.0
4.859082937856864,56.0
4.860080286571531,45.0
4.861077635286198,-15.0
4.862074984000865,-58.0
4.863072332715531,-30.0
4.864069681430198,21.0
4.865067030144865,-1.0
4.866064378859532,-13.0
4.867061727574199,74.0
4.868059076288866,120.0
4.869056425003532,1.0
4.870053773718199,-116.0
4.871051122432866,-5.0
4.872048471147533,24.0
4.8730458198622,2.0
4.874043168576867,-35.0
4.875040517291533,-14.0
4.8760378660062,-90.0
4.877035214720867,-16.0
4.878032563435534,37.0
4.879029912150201,53.0
4.880027260864868,4.0
4.881024609579534,12.0
4.882021958294201,25.0
4.883019307008868,32.0
4.884016655723535,27.0
4.885014004438202,12.0
4.886011353152869,9.0
4.887008701867535,-13.0
4.888006050582202,-46.0
4.889003399296869,0.0
4.890000748011536,0.0
4.890998096726203,-38.0
4.89199544544087,-146.0
4.892992794155537,-74.0
4.893990142870204,117.0
4.894987491584871,31.0
4.895984840299538,27.0
4.896982189014205,57.0
4.8979795377288715,44.0
4.898976886443538,21.0
4.899974235158205,-21.0
4.900971583872872,-37.0
4.901968932587539,-20.0
4.902966281302206,5.0
4.9039636300168725,-111.0
4.904960978731539,43.0
4.905958327446206,80.0
4.906955676160873,44.0
4.90795302487554,27.0
4.908950373590207,-5.0
4.9099477223048735,-9.0
4.91094507101954,-2.0
4.911942419734207,-53.0
4.912939768448874,-20.0
4.913937117163541,8.0
4.914934465878208,-7.0
4.9159318145928745,-20.0
4.916929163307541,-6.0
4.917926512022208,0.0
4.918923860736875,-5.0
4.919921209451542,-11.0
4.920918558166209,6.0
4.9219159068808755,18.0
4.922913255595542,-19.0
4.923910604310209,14.0
4.924907953024876,31.0
4.925905301739543,-3.0
4.92690265045421,-29.0
4.9278999991688766,-41.0
4.928897347883543,-71.0
4.92989469659821,-28.0
4.930892045312877,80.0
4.931889394027544,32.0
4.932886742742211,-33.0
4.933884091456878,94.0
4.934881440171544,-25.0
4.935878788886211,-25.0
4.936876137600878,45.0
4.937873486315545,31.0
4.938870835030212,8.0
4.939868183744879,-68.0
4.940865532459545,16.0
4.941862881174212,57.0
4.942860229888879,24.0
4.943857578603546,-4.0
4.944854927318213,48.0
4.94585227603288,20.0
4.946849624747546,-23.0
4.947846973462213,-61.0
4.94884432217688,-2.0
4.949841670891547,13.0
4.950839019606214,-39.0
4.951836368320881,-24.0
4.952833717035547,-10.0
4.953831065750214,7.0
4.954828414464881,5.0
4.955825763179548,3.0
4.956823111894215,-27.0
4.957820460608882,-44.0
4.958817809323548,-17.0
4.959815158038215,22.0
4.960812506752882,-7.0
4.961809855467549,77.0
4.962807204182216,35.0
4.963804552896883,-62.0
4.964801901611549,-34.0
4.965799250326216,40.0
4.966796599040883,45.0
4.96779394775555,20.0
4.968791296470217,4.0
4.969788645184884,-10.0
4.9707859938995504,-35.0
4.971783342614217,-1.0
4.972780691328884,-25.0
4.973778040043551,19.0
4.974775388758218,74.0
4.975772737472885,52.0
4.9767700861875515,32.0
4.977767434902218,-68.0
4.978764783616885,-122.0
4.979762132331552,-68.0
4.980759481046219,47.0
4.981756829760886,2.0
4.9827541784755525,-22.0
4.983751527190219,-96.0
4.984748875904886,86.0
4.985746224619553,115.0
4.98674357333422,90.0
4.9877409220488875,42.0
4.988738270763554,-70.0
4.989735619478221,-76.0
4.990732968192888,-70.0
4.991730316907555,45.0
4.992727665622222,94.0
4.9937250143368885,56.0
4.994722363051555,34.0
4.995719711766222,-20.0
4.996717060480889,-121.0
4.997714409195556,-179.0
4.998711757910223,-46.0
4.9997091066248895,1.0
5.000706455339556,-4.0
5.001703804054223,81.0
5.00270115276889,54.0
5.003698501483557,15.0
5.004695850198224,-42.0
5.0056931989128906,-38.0
5.006690547627557,-80.0
5.007687896342224,106.0
5.008685245056891,148.0
5.009682593771558,107.0
5.010679942486225,92.0
5.011677291200892,-121.0
5.012674639915558,-231.0
5.013671988630225,-94.0
5.014669337344892,-8.0
5.015666686059559,-3.0
5.016664034774226,206.0
5.017661383488893,81.0
5.018658732203559,24.0
5.019656080918226,62.0
5.020653429632893,-87.0
5.02165077834756,1.0
5.022648127062227,119.0
5.023645475776894,-11.0
5.02464282449156,-67.0
5.025640173206227,-84.0
5.026637521920894,-19.0
5.027634870635561,-96.0
5.028632219350228,-111.0
5.029629568064895,105.0
5.030626916779561,2.0
5.031624265494228,-142.0
5.032621614208895,12.0
5.033618962923562,191.0
5.034616311638229,118.0
5.035613660352896,-81.0
5.036611009067562,-58.0
5.037608357782229,90.0
5.038605706496896,-48.0
5.039603055211563,-59.0
5.04060040392623,-50.0
5.041597752640897,-68.0
5.042595101355563,64.0
5.04359245007023,48.0
5.044589798784897,-24.0
5.045587147499564,12.0
5.046584496214231,130.0
5.047581844928898,72.0
5.0485791936435644,-100.0
5.049576542358231,-104.0
5.050573891072898,-10.0
5.051571239787565,82.0
5.052568588502232,84.0
5.053565937216899,39.0
5.0545632859315655,23.0
5.055560634646232,-27.0
5.056557983360899,-40.0
5.057555332075566,-55.0
5.058552680790233,-15.0
5.0595500295049,-55.0
5.0605473782195665,-14.0
5.061544726934233,-60.0
5.0625420756489,-69.0
5.063539424363567,15.0
5.064536773078234,45.0
5.065534121792901,29.0
5.0665314705075675,78.0
5.067528819222234,88.0
5.068526167936901,35.0
5.069523516651568,18.0
5.070520865366235,-52.0
5.071518214080902,-140.0
5.0725155627955685,-109.0
5.073512911510235,-15.0
5.074510260224902,-8.0
5.075507608939569,79.0
5.076504957654236,139.0
