Time,EMG
0.0,10.144318936877085
0.000996710854181202,13.144318936877085
0.001993421708362404,24.144318936877085
0.002990132562543606,40.144318936877085
0.003986843416724808,24.144318936877085
0.00498355427090601,29.144318936877085
0.005980265125087212,25.144318936877085
0.006976975979268414,17.144318936877085
0.007973686833449616,11.144318936877085
0.008970397687630818,5.1443189368770845
0.00996710854181202,1.1443189368770845
0.01096381939599322,-10.855681063122915
0.011960530250174423,-23.855681063122915
0.012957241104355626,-30.855681063122915
0.013953951958536827,-33.855681063122915
0.014950662812718028,-29.855681063122915
0.01594737366689923,-34.855681063122915
0.016944084521080434,-23.855681063122915
0.017940795375261637,-12.855681063122915
0.018937506229442836,-7.8556810631229155
0.01993421708362404,17.144318936877085
0.02093092793780524,24.144318936877085
0.02192763879198644,35.144318936877085
0.022924349646167644,28.144318936877085
0.023921060500348847,28.144318936877085
0.02491777135453005,26.144318936877085
0.025914482208711252,15.144318936877085
0.02691119306289245,11.144318936877085
0.027907903917073654,6.1443189368770845
0.028904614771254857,-0.8556810631229155
0.029901325625436057,6.1443189368770845
0.03089803647961726,1.1443189368770845
0.03189474733379846,-10.855681063122915
0.032891458187979665,-21.855681063122915
0.03388816904216087,-30.855681063122915
0.03488487989634207,-36.855681063122915
0.03588159075052327,-34.855681063122915
0.03687830160470447,-22.855681063122915
0.03787501245888567,-14.855681063122915
0.038871723313066875,-8.855681063122915
0.03986843416724808,-3.8556810631229155
0.04086514502142928,3.1443189368770845
0.04186185587561048,23.144318936877085
0.042858566729791686,25.144318936877085
0.04385527758397288,28.144318936877085
0.044851988438154085,34.144318936877085
0.04584869929233529,31.144318936877085
0.04684541014651649,20.144318936877085
0.04784212100069769,18.144318936877085
0.048838831854878896,16.144318936877085
0.0498355427090601,13.144318936877085
0.0508322535632413,-10.855681063122915
0.051828964417422504,-26.855681063122915
0.0528256752716037,-29.855681063122915
0.0538223861257849,-30.855681063122915
0.054819096979966106,-41.855681063122915
0.05581580783414731,-30.855681063122915
0.05681251868832851,-11.855681063122915
0.057809229542509714,-6.8556810631229155
0.05880594039669092,-5.8556810631229155
0.05980265125087211,1.1443189368770845
0.060799362105053316,12.144318936877085
0.06179607295923452,20.144318936877085
0.06279278381341573,26.144318936877085
0.06378949466759692,28.144318936877085
0.06478620552177812,26.144318936877085
0.06578291637595933,22.144318936877085
0.06677962723014053,22.144318936877085
0.06777633808432174,16.144318936877085
0.06877304893850293,11.144318936877085
0.06976975979268414,6.1443189368770845
0.07076647064686534,-9.855681063122915
0.07176318150104655,-24.855681063122915
0.07275989235522774,-23.855681063122915
0.07375660320940894,-30.855681063122915
0.07475331406359015,-34.855681063122915
0.07575002491777134,-29.855681063122915
0.07674673577195255,-27.855681063122915
0.07774344662613375,-22.855681063122915
0.07874015748031496,-6.8556810631229155
0.07973686833449616,-3.8556810631229155
0.08073357918867735,12.144318936877085
0.08173029004285856,35.144318936877085
0.08272700089703976,38.144318936877085
0.08372371175122097,33.144318936877085
0.08472042260540216,33.144318936877085
0.08571713345958337,26.144318936877085
0.08671384431376457,18.144318936877085
0.08771055516794576,16.144318936877085
0.08870726602212697,7.1443189368770845
0.08970397687630817,8.144318936877085
0.09070068773048938,-2.8556810631229155
0.09169739858467058,-22.855681063122915
0.09269410943885178,-37.855681063122915
0.09369082029303298,-37.855681063122915
0.09468753114721419,-36.855681063122915
0.09568424200139539,-38.855681063122915
0.09668095285557658,-28.855681063122915
0.09767766370975779,-8.855681063122915
0.09867437456393899,1.1443189368770845
0.0996710854181202,9.144318936877085
0.1006677962723014,16.144318936877085
0.1016645071264826,26.144318936877085
0.1026612179806638,26.144318936877085
0.10365792883484501,35.144318936877085
0.1046546396890262,33.144318936877085
0.1056513505432074,29.144318936877085
0.10664806139738861,23.144318936877085
0.1076447722515698,14.144318936877085
0.10864148310575102,1.1443189368770845
0.10963819395993221,-12.855681063122915
0.11063490481411342,-17.855681063122915
0.11163161566829462,-31.855681063122915
0.11262832652247581,-31.855681063122915
0.11362503737665702,-24.855681063122915
0.11462174823083822,-20.855681063122915
0.11561845908501943,-10.855681063122915
0.11661516993920062,-7.8556810631229155
0.11761188079338183,-19.855681063122915
0.11860859164756303,-19.855681063122915
0.11960530250174423,1.1443189368770845
0.12060201335592544,14.144318936877085
0.12159872421010663,29.144318936877085
0.12259543506428784,31.144318936877085
0.12359214591846904,31.144318936877085
0.12458885677265025,30.144318936877085
0.12558556762683146,19.144318936877085
0.12658227848101264,11.144318936877085
0.12757898933519385,12.144318936877085
0.12857570018937506,0.14431893687708452
0.12957241104355624,-10.855681063122915
0.13056912189773745,-10.855681063122915
0.13156583275191866,-8.855681063122915
0.13256254360609987,-13.855681063122915
0.13355925446028105,-27.855681063122915
0.13455596531446226,-26.855681063122915
0.13555267616864347,-22.855681063122915
0.13654938702282465,-20.855681063122915
0.13754609787700586,-7.8556810631229155
0.13854280873118707,-2.8556810631229155
0.13953951958536828,-7.8556810631229155
0.14053623043954946,-4.8556810631229155
0.14153294129373067,29.144318936877085
0.14252965214791188,23.144318936877085
0.1435263630020931,27.144318936877085
0.14452307385627428,32.144318936877085
0.14551978471045549,29.144318936877085
0.1465164955646367,25.144318936877085
0.14751320641881788,10.144318936877085
0.1485099172729991,-2.8556810631229155
0.1495066281271803,9.144318936877085
0.1505033389813615,2.1443189368770845
0.1515000498355427,-18.855681063122915
0.1524967606897239,-26.855681063122915
0.1534934715439051,-29.855681063122915
0.1544901823980863,-39.855681063122915
0.1554868932522675,-35.855681063122915
0.1564836041064487,-28.855681063122915
0.15748031496062992,-25.855681063122915
0.1584770258148111,-4.8556810631229155
0.1594737366689923,10.144318936877085
0.16047044752317352,17.144318936877085
0.1614671583773547,33.144318936877085
0.1624638692315359,40.144318936877085
0.16346058008571712,40.144318936877085
0.16445729093989833,33.144318936877085
0.1654540017940795,23.144318936877085
0.16645071264826072,9.144318936877085
0.16744742350244193,-4.8556810631229155
0.16844413435662312,8.144318936877085
0.16944084521080433,4.1443189368770845
0.17043755606498553,-7.8556810631229155
0.17143426691916674,-27.855681063122915
0.17243097777334793,-27.855681063122915
0.17342768862752914,-31.855681063122915
0.17442439948171035,-33.855681063122915
0.17542111033589153,-24.855681063122915
0.17641782119007274,-8.855681063122915
0.17741453204425395,8.144318936877085
0.17841124289843516,8.144318936877085
0.17940795375261634,-3.8556810631229155
0.18040466460679755,-9.855681063122915
0.18140137546097876,-4.8556810631229155
0.18239808631515997,17.144318936877085
0.18339479716934115,36.144318936877085
0.18439150802352236,42.144318936877085
0.18538821887770357,41.144318936877085
0.18638492973188475,41.144318936877085
0.18738164058606596,17.144318936877085
0.18837835144024717,-3.8556810631229155
0.18937506229442838,-0.8556810631229155
0.19037177314860956,1.1443189368770845
0.19136848400279077,-22.855681063122915
0.19236519485697198,-36.855681063122915
0.19336190571115316,-36.855681063122915
0.19435861656533437,-35.855681063122915
0.19535532741951558,-35.855681063122915
0.1963520382736968,-19.855681063122915
0.19734874912787798,-17.855681063122915
0.19834545998205919,-8.855681063122915
0.1993421708362404,-5.8556810631229155
0.20033888169042158,3.1443189368770845
0.2013355925446028,24.144318936877085
0.202332303398784,32.144318936877085
0.2033290142529652,29.144318936877085
0.2043257251071464,37.144318936877085
0.2053224359613276,33.144318936877085
0.2063191468155088,22.144318936877085
0.20731585766969002,4.1443189368770845
0.2083125685238712,9.144318936877085
0.2093092793780524,7.1443189368770845
0.21030599023223362,-13.855681063122915
0.2113027010864148,-30.855681063122915
0.212299411940596,-34.855681063122915
0.21329612279477722,-30.855681063122915
0.21429283364895843,-33.855681063122915
0.2152895445031396,-37.855681063122915
0.21628625535732082,-28.855681063122915
0.21728296621150203,-3.8556810631229155
0.21827967706568321,18.144318936877085
0.21927638791986442,19.144318936877085
0.22027309877404563,18.144318936877085
0.22126980962822684,26.144318936877085
0.22226652048240803,27.144318936877085
0.22326323133658924,33.144318936877085
0.22425994219077044,36.144318936877085
0.22525665304495163,25.144318936877085
0.22625336389913284,20.144318936877085
0.22725007475331405,14.144318936877085
0.22824678560749526,-0.8556810631229155
0.22924349646167644,-14.855681063122915
0.23024020731585765,-15.855681063122915
0.23123691817003886,-21.855681063122915
0.23223362902422004,-26.855681063122915
0.23323033987840125,-30.855681063122915
0.23422705073258246,-32.855681063122915
0.23522376158676367,-30.855681063122915
0.23622047244094485,-20.855681063122915
0.23721718329512606,-14.855681063122915
0.23821389414930727,-10.855681063122915
0.23921060500348845,-6.8556810631229155
0.24020731585766966,6.1443189368770845
0.24120402671185087,16.144318936877085
0.24220073756603208,18.144318936877085
0.24319744842021326,32.144318936877085
0.24419415927439447,40.144318936877085
0.24519087012857568,38.144318936877085
0.2461875809827569,36.144318936877085
0.24718429183693807,22.144318936877085
0.24818100269111928,3.1443189368770845
0.2491777135453005,-11.855681063122915
0.2501744243994817,-19.855681063122915
0.2511711352536629,-26.855681063122915
0.2521678461078441,-18.855681063122915
0.2531645569620253,-18.855681063122915
0.2541612678162065,-17.855681063122915
0.2551579786703877,-20.855681063122915
0.2561546895245689,-23.855681063122915
0.2571514003787501,-21.855681063122915
0.2581481112329313,-14.855681063122915
0.2591448220871125,-5.8556810631229155
0.2601415329412937,-2.8556810631229155
0.2611382437954749,24.144318936877085
0.26213495464965614,29.144318936877085
0.2631316655038373,31.144318936877085
0.2641283763580185,43.144318936877085
0.26512508721219974,40.144318936877085
0.2661217980663809,27.144318936877085
0.2671185089205621,7.1443189368770845
0.26811521977474334,-10.855681063122915
0.2691119306289245,-15.855681063122915
0.2701086414831057,-13.855681063122915
0.27110535233728694,-19.855681063122915
0.2721020631914681,-25.855681063122915
0.2730987740456493,-24.855681063122915
0.27409548489983054,-27.855681063122915
0.2750921957540117,-31.855681063122915
0.27608890660819296,-26.855681063122915
0.27708561746237415,-16.855681063122915
0.2780823283165553,-10.855681063122915
0.27907903917073656,0.14431893687708452
0.28007575002491775,20.144318936877085
0.28107246087909893,25.144318936877085
0.28206917173328017,27.144318936877085
0.28306588258746135,25.144318936877085
0.28406259344164253,30.144318936877085
0.28505930429582377,33.144318936877085
0.28605601515000495,28.144318936877085
0.2870527260041862,22.144318936877085
0.28804943685836737,13.144318936877085
0.28904614771254855,6.1443189368770845
0.2900428585667298,-2.8556810631229155
0.29103956942091097,-20.855681063122915
0.29203628027509215,-30.855681063122915
0.2930329911292734,-36.855681063122915
0.29402970198345457,-27.855681063122915
0.29502641283763575,-28.855681063122915
0.296023123691817,-29.855681063122915
0.2970198345459982,-20.855681063122915
0.29801654540017936,-7.8556810631229155
0.2990132562543606,-8.855681063122915
0.3000099671085418,2.1443189368770845
0.301006677962723,22.144318936877085
0.3020033888169042,16.144318936877085
0.3030000996710854,36.144318936877085
0.3039968105252666,47.144318936877085
0.3049935213794478,45.144318936877085
0.305990232233629,40.144318936877085
0.3069869430878102,7.1443189368770845
0.3079836539419914,-3.8556810631229155
0.3089803647961726,1.1443189368770845
0.3099770756503538,-6.8556810631229155
0.310973786504535,-25.855681063122915
0.3119704973587162,-33.855681063122915
0.3129672082128974,-38.855681063122915
0.3139639190670786,-38.855681063122915
0.31496062992125984,-31.855681063122915
0.315957340775441,-25.855681063122915
0.3169540516296222,-2.8556810631229155
0.31795076248380344,3.1443189368770845
0.3189474733379846,0.14431893687708452
0.3199441841921658,14.144318936877085
0.32094089504634704,26.144318936877085
0.3219376059005282,26.144318936877085
0.3229343167547094,17.144318936877085
0.32393102760889064,13.144318936877085
0.3249277384630718,18.144318936877085
0.32592444931725306,21.144318936877085
0.32692116017143424,19.144318936877085
0.3279178710256154,18.144318936877085
0.32891458187979666,13.144318936877085
0.32991129273397785,3.1443189368770845
0.330908003588159,-11.855681063122915
0.33190471444234027,-25.855681063122915
0.33290142529652145,-21.855681063122915
0.33389813615070263,-23.855681063122915
0.33489484700488387,-26.855681063122915
0.33589155785906505,-21.855681063122915
0.33688826871324623,-17.855681063122915
0.33788497956742747,-20.855681063122915
0.33888169042160865,-17.855681063122915
0.3398784012757899,4.1443189368770845
0.34087511212997107,13.144318936877085
0.34187182298415225,21.144318936877085
0.3428685338383335,28.144318936877085
0.34386524469251467,40.144318936877085
0.34486195554669585,30.144318936877085
0.3458586664008771,26.144318936877085
0.3468553772550583,17.144318936877085
0.34785208810923945,5.1443189368770845
0.3488487989634207,1.1443189368770845
0.3498455098176019,-4.8556810631229155
0.35084222067178306,-20.855681063122915
0.3518389315259643,-23.855681063122915
0.3528356423801455,-25.855681063122915
0.3538323532343267,-33.855681063122915
0.3548290640885079,-38.855681063122915
0.3558257749426891,-37.855681063122915
0.3568224857968703,-8.855681063122915
0.3578191966510515,-5.8556810631229155
0.3588159075052327,1.1443189368770845
0.3598126183594139,14.144318936877085
0.3608093292135951,27.144318936877085
0.3618060400677763,30.144318936877085
0.3628027509219575,30.144318936877085
0.3637994617761387,32.144318936877085
0.36479617263031994,21.144318936877085
0.3657928834845011,18.144318936877085
0.3667895943386823,14.144318936877085
0.36778630519286354,11.144318936877085
0.3687830160470447,4.1443189368770845
0.3697797269012259,-8.855681063122915
0.37077643775540714,-22.855681063122915
0.3717731486095883,-26.855681063122915
0.3727698594637695,-23.855681063122915
0.37376657031795074,-26.855681063122915
0.3747632811721319,-35.855681063122915
0.3757599920263131,-30.855681063122915
0.37675670288049434,-6.8556810631229155
0.3777534137346755,-14.855681063122915
0.37875012458885676,-7.8556810631229155
0.37974683544303794,11.144318936877085
0.3807435462972191,25.144318936877085
0.38174025715140036,32.144318936877085
0.38273696800558155,27.144318936877085
0.38373367885976273,33.144318936877085
0.38473038971394397,43.144318936877085
0.38572710056812515,32.144318936877085
0.38672381142230633,19.144318936877085
0.38772052227648757,10.144318936877085
0.38871723313066875,-2.8556810631229155
0.38971394398485,-14.855681063122915
0.39071065483903117,-33.855681063122915
0.39170736569321235,-36.855681063122915
0.3927040765473936,-38.855681063122915
0.39370078740157477,-42.855681063122915
0.39469749825575595,-37.855681063122915
0.3956942091099372,-24.855681063122915
0.39669091996411837,-5.8556810631229155
0.39768763081829955,2.1443189368770845
0.3986843416724808,15.144318936877085
0.399681052526662,16.144318936877085
0.40067776338084315,19.144318936877085
0.4016744742350244,27.144318936877085
0.4026711850892056,32.144318936877085
0.4036678959433868,35.144318936877085
0.404664606797568,28.144318936877085
0.4056613176517492,19.144318936877085
0.4066580285059304,15.144318936877085
0.4076547393601116,7.1443189368770845
0.4086514502142928,11.144318936877085
0.409648161068474,-6.8556810631229155
0.4106448719226552,-22.855681063122915
0.4116415827768364,-33.855681063122915
0.4126382936310176,-37.855681063122915
0.4136350044851988,-39.855681063122915
0.41463171533938004,-38.855681063122915
0.4156284261935612,-27.855681063122915
0.4166251370477424,-12.855681063122915
0.41762184790192364,-1.8556810631229155
0.4186185587561048,5.1443189368770845
0.419615269610286,9.144318936877085
0.42061198046446724,24.144318936877085
0.4216086913186484,29.144318936877085
0.4226054021728296,25.144318936877085
0.42360211302701084,31.144318936877085
0.424598823881192,34.144318936877085
0.4255955347353732,32.144318936877085
0.42659224558955444,17.144318936877085
0.4275889564437356,11.144318936877085
0.42858566729791686,0.14431893687708452
0.42958237815209804,-7.8556810631229155
0.4305790890062792,-16.855681063122915
0.43157579986046046,-26.855681063122915
0.43257251071464164,-27.855681063122915
0.4335692215688228,-39.855681063122915
0.43456593242300406,-46.855681063122915
0.43556264327718525,-31.855681063122915
0.43655935413136643,-7.8556810631229155
0.43755606498554767,8.144318936877085
0.43855277583972885,3.1443189368770845
0.43954948669391003,7.1443189368770845
0.44054619754809127,19.144318936877085
0.44154290840227245,26.144318936877085
0.4425396192564537,36.144318936877085
0.44353633011063487,34.144318936877085
0.44453304096481605,25.144318936877085
0.4455297518189973,19.144318936877085
0.44652646267317847,11.144318936877085
0.44752317352735965,10.144318936877085
0.4485198843815409,1.1443189368770845
0.44951659523572207,-15.855681063122915
0.45051330608990325,-27.855681063122915
0.4515100169440845,-11.855681063122915
0.4525067277982657,-19.855681063122915
0.4535034386524469,-36.855681063122915
0.4545001495066281,-42.855681063122915
0.4554968603608093,-28.855681063122915
0.4564935712149905,-18.855681063122915
0.4574902820691717,-8.855681063122915
0.4584869929233529,1.1443189368770845
0.4594837037775341,10.144318936877085
0.4604804146317153,20.144318936877085
0.4614771254858965,28.144318936877085
0.4624738363400777,30.144318936877085
0.4634705471942589,36.144318936877085
0.4644672580484401,37.144318936877085
0.4654639689026213,32.144318936877085
0.4664606797568025,15.144318936877085
0.46745739061098374,11.144318936877085
0.4684541014651649,4.1443189368770845
0.4694508123193461,-13.855681063122915
0.47044752317352734,-28.855681063122915
0.4714442340277085,-30.855681063122915
0.4724409448818897,-30.855681063122915
0.47343765573607094,-41.855681063122915
0.4744343665902521,-38.855681063122915
0.4754310774444333,-31.855681063122915
0.47642778829861454,-22.855681063122915
0.4774244991527957,1.1443189368770845
0.4784212100069769,8.144318936877085
0.47941792086115814,20.144318936877085
0.4804146317153393,34.144318936877085
0.48141134256952056,35.144318936877085
0.48240805342370174,32.144318936877085
0.4834047642778829,27.144318936877085
0.48440147513206416,25.144318936877085
0.48539818598624535,26.144318936877085
0.4863948968404265,17.144318936877085
0.48739160769460776,5.1443189368770845
0.48838831854878895,-3.8556810631229155
0.48938502940297013,-17.855681063122915
0.49038174025715137,-23.855681063122915
0.49137845111133255,-26.855681063122915
0.4923751619655138,-29.855681063122915
0.49337187281969497,-32.855681063122915
0.49436858367387615,-36.855681063122915
0.4953652945280574,-26.855681063122915
0.49636200538223857,-8.855681063122915
0.49735871623641975,-4.8556810631229155
0.498355427090601,-2.8556810631229155
0.49935213794478217,13.144318936877085
0.5003488487989634,28.144318936877085
0.5013455596531445,31.144318936877085
0.5023422705073258,36.144318936877085
0.503338981361507,29.144318936877085
0.5043356922156882,25.144318936877085
0.5053324030698694,22.144318936877085
0.5063291139240506,8.144318936877085
0.5073258247782317,3.1443189368770845
0.508322535632413,0.14431893687708452
0.5093192464865942,-4.8556810631229155
0.5103159573407754,-25.855681063122915
0.5113126681949566,-26.855681063122915
0.5123093790491378,-22.855681063122915
0.513306089903319,-32.855681063122915
0.5143028007575002,-29.855681063122915
0.5152995116116814,-20.855681063122915
0.5162962224658626,-8.855681063122915
0.5172929333200438,-2.8556810631229155
0.518289644174225,1.1443189368770845
0.5192863550284063,6.1443189368770845
0.5202830658825874,20.144318936877085
0.5212797767367686,21.144318936877085
0.5222764875909498,24.144318936877085
0.523273198445131,36.144318936877085
0.5242699092993123,26.144318936877085
0.5252666201534935,20.144318936877085
0.5262633310076746,15.144318936877085
0.5272600418618558,6.1443189368770845
0.528256752716037,3.1443189368770845
0.5292534635702182,-13.855681063122915
0.5302501744243995,-26.855681063122915
0.5312468852785807,-25.855681063122915
0.5322435961327618,-25.855681063122915
0.533240306986943,-24.855681063122915
0.5342370178411242,-27.855681063122915
0.5352337286953054,-27.855681063122915
0.5362304395494867,-22.855681063122915
0.5372271504036679,-9.855681063122915
0.538223861257849,1.1443189368770845
0.5392205721120302,3.1443189368770845
0.5402172829662114,19.144318936877085
0.5412139938203927,28.144318936877085
0.5422107046745739,30.144318936877085
0.5432074155287551,33.144318936877085
0.5442041263829362,38.144318936877085
0.5452008372371174,31.144318936877085
0.5461975480912986,19.144318936877085
0.5471942589454799,3.1443189368770845
0.5481909697996611,-1.8556810631229155
0.5491876806538423,-13.855681063122915
0.5501843915080235,-19.855681063122915
0.5511811023622046,-27.855681063122915
0.5521778132163859,-32.855681063122915
0.5531745240705671,-34.855681063122915
0.5541712349247483,-30.855681063122915
0.5551679457789295,-29.855681063122915
0.5561646566331107,-20.855681063122915
0.5571613674872918,4.1443189368770845
0.5581580783414731,17.144318936877085
0.5591547891956543,10.144318936877085
0.5601515000498355,17.144318936877085
0.5611482109040167,21.144318936877085
0.5621449217581979,23.144318936877085
0.5631416326123792,29.144318936877085
0.5641383434665603,32.144318936877085
0.5651350543207415,28.144318936877085
0.5661317651749227,19.144318936877085
0.5671284760291039,6.1443189368770845
0.5681251868832851,1.1443189368770845
0.5691218977374664,-0.8556810631229155
0.5701186085916475,-23.855681063122915
0.5711153194458287,-22.855681063122915
0.5721120303000099,-20.855681063122915
0.5731087411541911,-31.855681063122915
0.5741054520083724,-28.855681063122915
0.5751021628625536,-20.855681063122915
0.5760988737167347,-17.855681063122915
0.5770955845709159,-11.855681063122915
0.5780922954250971,-3.8556810631229155
0.5790890062792783,4.1443189368770845
0.5800857171334596,18.144318936877085
0.5810824279876408,30.144318936877085
0.5820791388418219,34.144318936877085
0.5830758496960031,35.144318936877085
0.5840725605501843,27.144318936877085
0.5850692714043655,21.144318936877085
0.5860659822585468,14.144318936877085
0.587062693112728,-2.8556810631229155
0.5880594039669091,-3.8556810631229155
0.5890561148210903,-19.855681063122915
0.5900528256752715,-24.855681063122915
0.5910495365294528,-18.855681063122915
0.592046247383634,-24.855681063122915
0.5930429582378152,-32.855681063122915
0.5940396690919963,-33.855681063122915
0.5950363799461775,-25.855681063122915
0.5960330908003587,-11.855681063122915
0.59702980165454,-8.855681063122915
0.5980265125087212,-1.8556810631229155
0.5990232233629024,11.144318936877085
0.6000199342170836,28.144318936877085
0.6010166450712647,29.144318936877085
0.602013355925446,24.144318936877085
0.6030100667796272,34.144318936877085
0.6040067776338084,37.144318936877085
0.6050034884879896,24.144318936877085
0.6060001993421708,12.144318936877085
0.6069969101963519,4.1443189368770845
0.6079936210505332,-2.8556810631229155
0.6089903319047144,-13.855681063122915
0.6099870427588956,-23.855681063122915
0.6109837536130768,-22.855681063122915
0.611980464467258,-25.855681063122915
0.6129771753214392,-27.855681063122915
0.6139738861756204,-29.855681063122915
0.6149705970298016,-20.855681063122915
0.6159673078839828,-10.855681063122915
0.616964018738164,0.14431893687708452
0.6179607295923452,2.1443189368770845
0.6189574404465265,8.144318936877085
0.6199541513007076,14.144318936877085
0.6209508621548888,20.144318936877085
0.62194757300907,27.144318936877085
0.6229442838632512,28.144318936877085
0.6239409947174324,28.144318936877085
0.6249377055716137,26.144318936877085
0.6259344164257948,17.144318936877085
0.626931127279976,11.144318936877085
0.6279278381341572,-1.8556810631229155
0.6289245489883384,-11.855681063122915
0.6299212598425197,-22.855681063122915
0.6309179706967009,-19.855681063122915
0.631914681550882,-23.855681063122915
0.6329113924050632,-26.855681063122915
0.6339081032592444,-32.855681063122915
0.6349048141134256,-26.855681063122915
0.6359015249676069,-11.855681063122915
0.6368982358217881,-7.8556810631229155
0.6378949466759692,-6.8556810631229155
0.6388916575301504,6.1443189368770845
0.6398883683843316,23.144318936877085
0.6408850792385129,27.144318936877085
0.6418817900926941,25.144318936877085
0.6428785009468753,27.144318936877085
0.6438752118010564,26.144318936877085
0.6448719226552376,29.144318936877085
0.6458686335094188,19.144318936877085
0.6468653443636001,5.1443189368770845
0.6478620552177813,9.144318936877085
0.6488587660719625,-2.8556810631229155
0.6498554769261436,-15.855681063122915
0.6508521877803248,-34.855681063122915
0.6518488986345061,-39.855681063122915
0.6528456094886873,-32.855681063122915
0.6538423203428685,-30.855681063122915
0.6548390311970497,-17.855681063122915
0.6558357420512309,-1.8556810631229155
0.656832452905412,0.14431893687708452
0.6578291637595933,4.1443189368770845
0.6588258746137745,11.144318936877085
0.6598225854679557,19.144318936877085
0.6608192963221369,15.144318936877085
0.661816007176318,33.144318936877085
0.6628127180304992,46.144318936877085
0.6638094288846805,36.144318936877085
0.6648061397388617,21.144318936877085
0.6658028505930429,5.1443189368770845
0.6667995614472241,-6.8556810631229155
0.6677962723014053,-3.8556810631229155
0.6687929831555866,-7.8556810631229155
0.6697896940097677,-16.855681063122915
0.6707864048639489,-24.855681063122915
0.6717831157181301,-31.855681063122915
0.6727798265723113,-41.855681063122915
0.6737765374264925,-39.855681063122915
0.6747732482806738,-33.855681063122915
0.6757699591348549,-22.855681063122915
0.6767666699890361,-7.8556810631229155
0.6777633808432173,-2.8556810631229155
0.6787600916973985,5.1443189368770845
0.6797568025515798,34.144318936877085
0.680753513405761,38.144318936877085
0.6817502242599421,33.144318936877085
0.6827469351141233,44.144318936877085
0.6837436459683045,40.144318936877085
0.6847403568224857,28.144318936877085
0.685737067676667,14.144318936877085
0.6867337785308482,5.1443189368770845
0.6877304893850293,2.1443189368770845
0.6887272002392105,-12.855681063122915
0.6897239110933917,-21.855681063122915
0.690720621947573,-23.855681063122915
0.6917173328017542,-31.855681063122915
0.6927140436559354,-40.855681063122915
0.6937107545101165,-34.855681063122915
0.6947074653642977,-23.855681063122915
0.6957041762184789,-10.855681063122915
0.6967008870726602,-2.8556810631229155
0.6976975979268414,-3.8556810631229155
0.6986943087810226,8.144318936877085
0.6996910196352037,25.144318936877085
0.7006877304893849,27.144318936877085
0.7016844413435661,29.144318936877085
0.7026811521977474,37.144318936877085
0.7036778630519286,30.144318936877085
0.7046745739061098,26.144318936877085
0.705671284760291,11.144318936877085
0.7066679956144721,4.1443189368770845
0.7076647064686534,4.1443189368770845
0.7086614173228346,-7.8556810631229155
0.7096581281770158,-21.855681063122915
0.710654839031197,-25.855681063122915
0.7116515498853782,-29.855681063122915
0.7126482607395593,-28.855681063122915
0.7136449715937406,-25.855681063122915
0.7146416824479218,-20.855681063122915
0.715638393302103,-10.855681063122915
0.7166351041562842,-2.8556810631229155
0.7176318150104654,4.1443189368770845
0.7186285258646467,5.1443189368770845
0.7196252367188278,18.144318936877085
0.720621947573009,23.144318936877085
0.7216186584271902,20.144318936877085
0.7226153692813714,24.144318936877085
0.7236120801355526,35.144318936877085
0.7246087909897339,29.144318936877085
0.725605501843915,11.144318936877085
0.7266022126980962,3.1443189368770845
0.7275989235522774,6.1443189368770845
0.7285956344064586,-7.8556810631229155
0.7295923452606399,-29.855681063122915
0.7305890561148211,-30.855681063122915
0.7315857669690022,-28.855681063122915
0.7325824778231834,-34.855681063122915
0.7335791886773646,-33.855681063122915
0.7345758995315458,-39.855681063122915
0.7355726103857271,-17.855681063122915
0.7365693212399083,1.1443189368770845
0.7375660320940894,16.144318936877085
0.7385627429482706,16.144318936877085
0.7395594538024518,37.144318936877085
0.7405561646566331,35.144318936877085
0.7415528755108143,31.144318936877085
0.7425495863649955,31.144318936877085
0.7435462972191766,24.144318936877085
0.7445430080733578,16.144318936877085
0.745539718927539,1.1443189368770845
0.7465364297817203,3.1443189368770845
0.7475331406359015,8.144318936877085
0.7485298514900827,-7.8556810631229155
0.7495265623442638,-30.855681063122915
0.750523273198445,-32.855681063122915
0.7515199840526262,-29.855681063122915
0.7525166949068075,-26.855681063122915
0.7535134057609887,-24.855681063122915
0.7545101166151699,-14.855681063122915
0.755506827469351,-9.855681063122915
0.7565035383235322,-3.8556810631229155
0.7575002491777135,-3.8556810631229155
0.7584969600318947,4.1443189368770845
0.7594936708860759,19.144318936877085
0.7604903817402571,24.144318936877085
0.7614870925944383,14.144318936877085
0.7624838034486194,14.144318936877085
0.7634805143028007,27.144318936877085
0.7644772251569819,19.144318936877085
0.7654739360111631,6.1443189368770845
0.7664706468653443,19.144318936877085
0.7674673577195255,23.144318936877085
0.7684640685737067,2.1443189368770845
0.7694607794278879,-19.855681063122915
0.7704574902820691,-28.855681063122915
0.7714542011362503,-22.855681063122915
0.7724509119904315,-22.855681063122915
0.7734476228446127,-31.855681063122915
0.774444333698794,-33.855681063122915
0.7754410445529751,-20.855681063122915
0.7764377554071563,-17.855681063122915
0.7774344662613375,3.1443189368770845
0.7784311771155187,13.144318936877085
0.7794278879697,24.144318936877085
0.7804245988238812,24.144318936877085
0.7814213096780623,28.144318936877085
0.7824180205322435,33.144318936877085
0.7834147313864247,24.144318936877085
0.7844114422406059,13.144318936877085
0.7854081530947872,3.1443189368770845
0.7864048639489684,11.144318936877085
0.7874015748031495,6.1443189368770845
0.7883982856573307,-11.855681063122915
0.7893949965115119,-21.855681063122915
0.7903917073656931,-22.855681063122915
0.7913884182198744,-26.855681063122915
0.7923851290740556,-20.855681063122915
0.7933818399282367,-21.855681063122915
0.7943785507824179,-20.855681063122915
0.7953752616365991,-14.855681063122915
0.7963719724907804,-9.855681063122915
0.7973686833449616,4.1443189368770845
0.7983653941991428,14.144318936877085
0.799362105053324,24.144318936877085
0.8003588159075051,22.144318936877085
0.8013555267616863,22.144318936877085
0.8023522376158676,25.144318936877085
0.8033489484700488,32.144318936877085
0.80434565932423,29.144318936877085
0.8053423701784111,16.144318936877085
0.8063390810325923,4.1443189368770845
0.8073357918867736,1.1443189368770845
0.8083325027409548,-18.855681063122915
0.809329213595136,-32.855681063122915
0.8103259244493172,-30.855681063122915
0.8113226353034984,-24.855681063122915
0.8123193461576795,-25.855681063122915
0.8133160570118608,-25.855681063122915
0.814312767866042,-17.855681063122915
0.8153094787202232,-9.855681063122915
0.8163061895744044,5.1443189368770845
0.8173029004285856,10.144318936877085
0.8182996112827668,5.1443189368770845
0.819296322136948,14.144318936877085
0.8202930329911292,19.144318936877085
0.8212897438453104,27.144318936877085
0.8222864546994916,32.144318936877085
0.8232831655536728,21.144318936877085
0.824279876407854,19.144318936877085
0.8252765872620352,14.144318936877085
0.8262732981162164,5.1443189368770845
0.8272700089703976,-3.8556810631229155
0.8282667198245788,-14.855681063122915
0.8292634306787601,-18.855681063122915
0.8302601415329413,-24.855681063122915
0.8312568523871224,-28.855681063122915
0.8322535632413036,-33.855681063122915
0.8332502740954848,-27.855681063122915
0.834246984949666,-25.855681063122915
0.8352436958038473,-20.855681063122915
0.8362404066580285,-10.855681063122915
0.8372371175122096,3.1443189368770845
0.8382338283663908,16.144318936877085
0.839230539220572,24.144318936877085
0.8402272500747532,29.144318936877085
0.8412239609289345,31.144318936877085
0.8422206717831157,35.144318936877085
0.8432173826372968,34.144318936877085
0.844214093491478,34.144318936877085
0.8452108043456592,24.144318936877085
0.8462075151998405,10.144318936877085
0.8472042260540217,-2.8556810631229155
0.8482009369082029,-10.855681063122915
0.849197647762384,-22.855681063122915
0.8501943586165652,-15.855681063122915
0.8511910694707464,-23.855681063122915
0.8521877803249277,-40.855681063122915
0.8531844911791089,-43.855681063122915
0.8541812020332901,-27.855681063122915
0.8551779128874712,-6.8556810631229155
0.8561746237416524,-3.8556810631229155
0.8571713345958337,-5.8556810631229155
0.8581680454500149,-2.8556810631229155
0.8591647563041961,20.144318936877085
0.8601614671583773,29.144318936877085
0.8611581780125585,36.144318936877085
0.8621548888667396,40.144318936877085
0.8631515997209209,24.144318936877085
0.8641483105751021,24.144318936877085
0.8651450214292833,12.144318936877085
0.8661417322834645,5.1443189368770845
0.8671384431376457,1.1443189368770845
0.868135153991827,-11.855681063122915
0.8691318648460081,-28.855681063122915
0.8701285757001893,-31.855681063122915
0.8711252865543705,-28.855681063122915
0.8721219974085517,-33.855681063122915
0.8731187082627329,-30.855681063122915
0.8741154191169141,-22.855681063122915
0.8751121299710953,-5.8556810631229155
0.8761088408252765,-7.8556810631229155
0.8771055516794577,-5.8556810631229155
0.8781022625336389,7.1443189368770845
0.8790989733878201,21.144318936877085
0.8800956842420014,29.144318936877085
0.8810923950961825,31.144318936877085
0.8820891059503637,28.144318936877085
0.8830858168045449,30.144318936877085
0.8840825276587261,26.144318936877085
0.8850792385129074,11.144318936877085
0.8860759493670886,10.144318936877085
0.8870726602212697,9.144318936877085
0.8880693710754509,-5.8556810631229155
0.8890660819296321,-19.855681063122915
0.8900627927838133,-26.855681063122915
0.8910595036379946,-29.855681063122915
0.8920562144921758,-36.855681063122915
0.8930529253463569,-36.855681063122915
0.8940496362005381,-23.855681063122915
0.8950463470547193,-10.855681063122915
0.8960430579089006,-1.8556810631229155
0.8970397687630818,2.1443189368770845
0.898036479617263,5.1443189368770845
0.8990331904714441,19.144318936877085
0.9000299013256253,27.144318936877085
0.9010266121798065,27.144318936877085
0.9020233230339878,33.144318936877085
0.903020033888169,25.144318936877085
0.9040167447423502,24.144318936877085
0.9050134555965313,17.144318936877085
0.9060101664507125,7.1443189368770845
0.9070068773048938,6.1443189368770845
0.908003588159075,-7.8556810631229155
0.9090002990132562,-27.855681063122915
0.9099970098674374,-34.855681063122915
0.9109937207216185,-31.855681063122915
0.9119904315757997,-33.855681063122915
0.912987142429981,-26.855681063122915
0.9139838532841622,-23.855681063122915
0.9149805641383434,-10.855681063122915
0.9159772749925246,-3.8556810631229155
0.9169739858467058,-1.8556810631229155
0.9179706967008869,4.1443189368770845
0.9189674075550682,19.144318936877085
0.9199641184092494,34.144318936877085
0.9209608292634306,42.144318936877085
0.9219575401176118,43.144318936877085
0.922954250971793,38.144318936877085
0.9239509618259742,22.144318936877085
0.9249476726801554,11.144318936877085
0.9259443835343366,8.144318936877085
0.9269410943885178,-2.8556810631229155
0.927937805242699,-18.855681063122915
0.9289345160968802,-30.855681063122915
0.9299312269510615,-34.855681063122915
0.9309279378052426,-39.855681063122915
0.9319246486594238,-35.855681063122915
0.932921359513605,-26.855681063122915
0.9339180703677862,-10.855681063122915
0.9349147812219675,0.14431893687708452
0.9359114920761487,-2.8556810631229155
0.9369082029303298,-2.8556810631229155
0.937904913784511,-2.8556810631229155
0.9389016246386922,10.144318936877085
0.9398983354928734,18.144318936877085
0.9408950463470547,35.144318936877085
0.9418917572012359,41.144318936877085
0.942888468055417,27.144318936877085
0.9438851789095982,26.144318936877085
0.9448818897637794,22.144318936877085
0.9458786006179607,10.144318936877085
0.9468753114721419,5.1443189368770845
0.9478720223263231,-8.855681063122915
0.9488687331805042,-26.855681063122915
0.9498654440346854,-35.855681063122915
0.9508621548888666,-34.855681063122915
0.9518588657430479,-33.855681063122915
0.9528555765972291,-30.855681063122915
0.9538522874514103,-28.855681063122915
0.9548489983055914,-20.855681063122915
0.9558457091597726,-1.8556810631229155
0.9568424200139538,16.144318936877085
0.9578391308681351,12.144318936877085
0.9588358417223163,24.144318936877085
0.9598325525764975,37.144318936877085
0.9608292634306786,31.144318936877085
0.9618259742848598,25.144318936877085
0.9628226851390411,28.144318936877085
0.9638193959932223,24.144318936877085
0.9648161068474035,9.144318936877085
0.9658128177015847,2.1443189368770845
0.9668095285557659,1.1443189368770845
0.967806239409947,-3.8556810631229155
0.9688029502641283,-14.855681063122915
0.9697996611183095,-30.855681063122915
0.9707963719724907,-39.855681063122915
0.9717930828266719,-39.855681063122915
0.972789793680853,-29.855681063122915
0.9737865045350343,-16.855681063122915
0.9747832153892155,-1.8556810631229155
0.9757799262433967,9.144318936877085
0.9767766370975779,12.144318936877085
0.9777733479517591,4.1443189368770845
0.9787700588059403,13.144318936877085
0.9797667696601216,19.144318936877085
0.9807634805143027,20.144318936877085
0.9817601913684839,24.144318936877085
0.9827569022226651,22.144318936877085
0.9837536130768463,20.144318936877085
0.9847503239310276,13.144318936877085
0.9857470347852088,8.144318936877085
0.9867437456393899,5.1443189368770845
0.9877404564935711,-6.8556810631229155
0.9887371673477523,-19.855681063122915
0.9897338782019335,-29.855681063122915
0.9907305890561148,-29.855681063122915
0.991727299910296,-26.855681063122915
0.9927240107644771,-31.855681063122915
0.9937207216186583,-23.855681063122915
0.9947174324728395,-10.855681063122915
0.9957141433270208,0.14431893687708452
0.996710854181202,4.1443189368770845
0.9977075650353832,13.144318936877085
0.9987042758895643,20.144318936877085
0.9997009867437455,19.144318936877085
1.0006976975979267,22.144318936877085
1.001694408452108,27.144318936877085
1.002691119306289,19.144318936877085
1.0036878301604704,18.144318936877085
1.0046845410146517,27.144318936877085
1.0056812518688327,10.144318936877085
1.006677962723014,-6.8556810631229155
1.007674673577195,-14.855681063122915
1.0086713844313764,-18.855681063122915
1.0096680952855577,-18.855681063122915
1.0106648061397387,-18.855681063122915
1.01166151699392,-22.855681063122915
1.0126582278481011,-26.855681063122915
1.0136549387022824,-14.855681063122915
1.0146516495564635,-18.855681063122915
1.0156483604106448,-8.855681063122915
1.016645071264826,-6.8556810631229155
1.0176417821190071,3.1443189368770845
1.0186384929731884,16.144318936877085
1.0196352038273695,29.144318936877085
1.0206319146815508,28.144318936877085
1.021628625535732,28.144318936877085
1.0226253363899132,27.144318936877085
1.0236220472440944,16.144318936877085
1.0246187580982755,12.144318936877085
1.0256154689524568,9.144318936877085
1.026612179806638,8.144318936877085
1.0276088906608192,-7.8556810631229155
1.0286056015150005,-24.855681063122915
1.0296023123691815,-22.855681063122915
1.0305990232233628,-20.855681063122915
1.031595734077544,-23.855681063122915
1.0325924449317252,-29.855681063122915
1.0335891557859065,-25.855681063122915
1.0345858666400876,-22.855681063122915
1.0355825774942689,-10.855681063122915
1.03657928834845,-4.8556810631229155
1.0375759992026312,2.1443189368770845
1.0385727100568125,24.144318936877085
1.0395694209109936,35.144318936877085
1.0405661317651749,20.144318936877085
1.041562842619356,28.144318936877085
1.0425595534735372,31.144318936877085
1.0435562643277185,18.144318936877085
1.0445529751818996,8.144318936877085
1.045549686036081,5.1443189368770845
1.046546396890262,-9.855681063122915
1.0475431077444433,-10.855681063122915
1.0485398185986246,4.1443189368770845
1.0495365294528056,2.1443189368770845
1.050533240306987,-8.855681063122915
1.051529951161168,-28.855681063122915
1.0525266620153493,-31.855681063122915
1.0535233728695304,-20.855681063122915
1.0545200837237116,-17.855681063122915
1.055516794577893,-11.855681063122915
1.056513505432074,-1.8556810631229155
1.0575102162862553,4.1443189368770845
1.0585069271404364,17.144318936877085
1.0595036379946177,22.144318936877085
1.060500348848799,19.144318936877085
1.06149705970298,22.144318936877085
1.0624937705571613,19.144318936877085
1.0634904814113424,17.144318936877085
1.0644871922655237,19.144318936877085
1.065483903119705,6.1443189368770845
1.066480613973886,6.1443189368770845
1.0674773248280673,4.1443189368770845
1.0684740356822484,-14.855681063122915
1.0694707465364297,-28.855681063122915
1.0704674573906108,-31.855681063122915
1.071464168244792,-26.855681063122915
1.0724608790989734,-21.855681063122915
1.0734575899531544,-16.855681063122915
1.0744543008073357,-11.855681063122915
1.0754510116615168,-3.8556810631229155
1.076447722515698,-4.8556810631229155
1.0774444333698794,2.1443189368770845
1.0784411442240605,15.144318936877085
1.0794378550782417,23.144318936877085
1.0804345659324228,15.144318936877085
1.0814312767866041,28.144318936877085
1.0824279876407854,33.144318936877085
1.0834246984949665,28.144318936877085
1.0844214093491478,13.144318936877085
1.0854181202033288,-4.8556810631229155
1.0864148310575101,-4.8556810631229155
1.0874115419116914,-10.855681063122915
1.0884082527658725,-23.855681063122915
1.0894049636200538,-21.855681063122915
1.0904016744742349,-10.855681063122915
1.0913983853284162,-10.855681063122915
1.0923950961825972,-19.855681063122915
1.0933918070367785,-22.855681063122915
1.0943885178909598,-18.855681063122915
1.0953852287451409,-17.855681063122915
1.0963819395993222,-7.8556810631229155
1.0973786504535032,4.1443189368770845
1.0983753613076845,20.144318936877085
1.0993720721618658,27.144318936877085
1.100368783016047,24.144318936877085
1.1013654938702282,33.144318936877085
1.1023622047244093,23.144318936877085
1.1033589155785906,17.144318936877085
1.1043556264327719,15.144318936877085
1.105352337286953,8.144318936877085
1.1063490481411342,1.1443189368770845
1.1073457589953153,-2.8556810631229155
1.1083424698494966,-9.855681063122915
1.1093391807036777,-25.855681063122915
1.110335891557859,-25.855681063122915
1.1113326024120402,-27.855681063122915
1.1123293132662213,-22.855681063122915
1.1133260241204026,-16.855681063122915
1.1143227349745837,-6.8556810631229155
1.115319445828765,-10.855681063122915
1.1163161566829463,1.1443189368770845
1.1173128675371273,1.1443189368770845
1.1183095783913086,18.144318936877085
1.1193062892454897,26.144318936877085
1.120303000099671,16.144318936877085
1.1212997109538523,20.144318936877085
1.1222964218080334,27.144318936877085
1.1232931326622146,16.144318936877085
1.1242898435163957,7.1443189368770845
1.125286554370577,-2.8556810631229155
1.1262832652247583,3.1443189368770845
1.1272799760789394,-0.8556810631229155
1.1282766869331207,-18.855681063122915
1.1292733977873017,-25.855681063122915
1.130270108641483,-26.855681063122915
1.131266819495664,-25.855681063122915
1.1322635303498454,-28.855681063122915
1.1332602412040267,-18.855681063122915
1.1342569520582078,-9.855681063122915
1.135253662912389,-4.8556810631229155
1.1362503737665701,-1.8556810631229155
1.1372470846207514,3.1443189368770845
1.1382437954749327,20.144318936877085
1.1392405063291138,38.144318936877085
1.140237217183295,29.144318936877085
1.1412339280374761,25.144318936877085
1.1422306388916574,20.144318936877085
1.1432273497458387,16.144318936877085
1.1442240606000198,4.1443189368770845
1.145220771454201,-1.8556810631229155
1.1462174823083822,4.1443189368770845
1.1472141931625635,1.1443189368770845
1.1482109040167447,-10.855681063122915
1.1492076148709258,-19.855681063122915
1.1502043257251071,-21.855681063122915
1.1512010365792882,-17.855681063122915
1.1521977474334695,-13.855681063122915
1.1531944582876505,-12.855681063122915
1.1541911691418318,-7.8556810631229155
1.1551878799960131,-6.8556810631229155
1.1561845908501942,-10.855681063122915
1.1571813017043755,1.1443189368770845
1.1581780125585566,22.144318936877085
1.1591747234127379,19.144318936877085
1.1601714342669192,14.144318936877085
1.1611681451211002,17.144318936877085
1.1621648559752815,17.144318936877085
1.1631615668294626,18.144318936877085
1.1641582776836439,12.144318936877085
1.1651549885378252,1.1443189368770845
1.1661516993920062,-2.8556810631229155
1.1671484102461875,-2.8556810631229155
1.1681451211003686,-19.855681063122915
1.16914183195455,-23.855681063122915
1.170138542808731,-20.855681063122915
1.1711352536629123,-25.855681063122915
1.1721319645170936,-19.855681063122915
1.1731286753712746,-11.855681063122915
1.174125386225456,-3.8556810631229155
1.175122097079637,4.1443189368770845
1.1761188079338183,3.1443189368770845
1.1771155187879996,3.1443189368770845
1.1781122296421807,13.144318936877085
1.179108940496362,12.144318936877085
1.180105651350543,12.144318936877085
1.1811023622047243,10.144318936877085
1.1820990730589056,19.144318936877085
1.1830957839130867,12.144318936877085
1.184092494767268,8.144318936877085
1.185089205621449,6.1443189368770845
1.1860859164756303,8.144318936877085
1.1870826273298116,5.1443189368770845
1.1880793381839927,-3.8556810631229155
1.189076049038174,-7.8556810631229155
1.190072759892355,-13.855681063122915
1.1910694707465364,-23.855681063122915
1.1920661816007174,-22.855681063122915
1.1930628924548987,-10.855681063122915
1.19405960330908,-9.855681063122915
1.195056314163261,-12.855681063122915
1.1960530250174424,-2.8556810631229155
1.1970497358716234,-3.8556810631229155
1.1980464467258047,6.1443189368770845
1.199043157579986,23.144318936877085
1.200039868434167,30.144318936877085
1.2010365792883484,29.144318936877085
1.2020332901425295,14.144318936877085
1.2030300009967108,8.144318936877085
1.204026711850892,8.144318936877085
1.2050234227050731,2.1443189368770845
1.2060201335592544,-4.8556810631229155
1.2070168444134355,-11.855681063122915
1.2080135552676168,-26.855681063122915
1.2090102661217978,-20.855681063122915
1.2100069769759791,-15.855681063122915
1.2110036878301604,-15.855681063122915
1.2120003986843415,-5.8556810631229155
1.2129971095385228,-6.8556810631229155
1.2139938203927039,-4.8556810631229155
1.2149905312468852,0.14431893687708452
1.2159872421010665,-1.8556810631229155
1.2169839529552475,-1.8556810631229155
1.2179806638094288,8.144318936877085
1.21897737466361,17.144318936877085
1.2199740855177912,20.144318936877085
1.2209707963719725,20.144318936877085
1.2219675072261535,19.144318936877085
1.2229642180803348,18.144318936877085
1.223960928934516,27.144318936877085
1.2249576397886972,15.144318936877085
1.2259543506428785,1.1443189368770845
1.2269510614970596,-4.8556810631229155
1.2279477723512409,-26.855681063122915
1.228944483205422,-39.855681063122915
1.2299411940596032,-33.855681063122915
1.2309379049137843,-28.855681063122915
1.2319346157679656,-20.855681063122915
1.2329313266221469,-7.8556810631229155
1.233928037476328,1.1443189368770845
1.2349247483305092,4.1443189368770845
1.2359214591846903,4.1443189368770845
1.2369181700388716,18.144318936877085
1.237914880893053,20.144318936877085
1.238911591747234,21.144318936877085
1.2399083026014153,20.144318936877085
1.2409050134555963,15.144318936877085
1.2419017243097776,15.144318936877085
1.242898435163959,8.144318936877085
1.24389514601814,1.1443189368770845
1.2448918568723213,-3.8556810631229155
1.2458885677265024,-1.8556810631229155
1.2468852785806837,-6.8556810631229155
1.2478819894348647,-17.855681063122915
1.248878700289046,-23.855681063122915
1.2498754111432273,-19.855681063122915
1.2508721219974084,-15.855681063122915
1.2518688328515897,-10.855681063122915
1.2528655437057707,-9.855681063122915
1.253862254559952,-11.855681063122915
1.2548589654141333,2.1443189368770845
1.2558556762683144,7.1443189368770845
1.2568523871224957,12.144318936877085
1.2578490979766768,21.144318936877085
1.258845808830858,12.144318936877085
1.2598425196850394,13.144318936877085
1.2608392305392204,21.144318936877085
1.2618359413934017,23.144318936877085
1.2628326522475828,20.144318936877085
1.263829363101764,9.144318936877085
1.2648260739559454,-5.8556810631229155
1.2658227848101264,-10.855681063122915
1.2668194956643077,-16.855681063122915
1.2678162065184888,-21.855681063122915
1.26881291737267,-22.855681063122915
1.2698096282268512,-27.855681063122915
1.2708063390810325,-14.855681063122915
1.2718030499352138,11.144318936877085
1.2727997607893948,8.144318936877085
1.2737964716435761,-2.8556810631229155
1.2747931824977572,-4.8556810631229155
1.2757898933519385,-5.8556810631229155
1.2767866042061198,-0.8556810631229155
1.2777833150603009,13.144318936877085
1.2787800259144821,24.144318936877085
1.2797767367686632,20.144318936877085
1.2807734476228445,11.144318936877085
1.2817701584770258,17.144318936877085
1.2827668693312069,12.144318936877085
1.2837635801853882,10.144318936877085
1.2847602910395692,-2.8556810631229155
1.2857570018937505,-8.855681063122915
1.2867537127479316,-12.855681063122915
1.287750423602113,-23.855681063122915
1.2887471344562942,-13.855681063122915
1.2897438453104753,-15.855681063122915
1.2907405561646565,-16.855681063122915
1.2917372670188376,-10.855681063122915
1.292733977873019,-2.8556810631229155
1.2937306887272002,2.1443189368770845
1.2947273995813813,-2.8556810631229155
1.2957241104355626,-6.8556810631229155
1.2967208212897436,8.144318936877085
1.297717532143925,13.144318936877085
1.2987142429981062,24.144318936877085
1.2997109538522873,19.144318936877085
1.3007076647064686,16.144318936877085
1.3017043755606497,17.144318936877085
1.302701086414831,1.1443189368770845
1.3036977972690122,0.14431893687708452
1.3046945081231933,0.14431893687708452
1.3056912189773746,0.14431893687708452
1.3066879298315557,-4.8556810631229155
1.307684640685737,-11.855681063122915
1.308681351539918,-13.855681063122915
1.3096780623940993,-9.855681063122915
1.3106747732482806,-10.855681063122915
1.3116714841024617,-13.855681063122915
1.312668194956643,-6.8556810631229155
1.313664905810824,-3.8556810631229155
1.3146616166650054,-5.8556810631229155
1.3156583275191867,-0.8556810631229155
1.3166550383733677,1.1443189368770845
1.317651749227549,11.144318936877085
1.31864846008173,18.144318936877085
1.3196451709359114,20.144318936877085
1.3206418817900927,20.144318936877085
1.3216385926442737,13.144318936877085
1.322635303498455,12.144318936877085
1.323632014352636,4.1443189368770845
1.3246287252068174,-2.8556810631229155
1.3256254360609985,-10.855681063122915
1.3266221469151798,-15.855681063122915
1.327618857769361,-18.855681063122915
1.3286155686235421,-19.855681063122915
1.3296122794777234,-3.8556810631229155
1.3306089903319045,6.1443189368770845
1.3316057011860858,-1.8556810631229155
1.332602412040267,-7.8556810631229155
1.3335991228944482,-12.855681063122915
1.3345958337486294,-10.855681063122915
1.3355925446028105,1.1443189368770845
1.3365892554569918,11.144318936877085
1.337585966311173,20.144318936877085
1.3385826771653542,21.144318936877085
1.3395793880195355,12.144318936877085
1.3405760988737165,8.144318936877085
1.3415728097278978,11.144318936877085
1.3425695205820791,12.144318936877085
1.3435662314362602,4.1443189368770845
1.3445629422904415,-3.8556810631229155
1.3455596531446226,-12.855681063122915
1.3465563639988039,1.1443189368770845
1.347553074852985,5.1443189368770845
1.3485497857071662,-10.855681063122915
1.3495464965613475,-19.855681063122915
1.3505432074155286,-21.855681063122915
1.3515399182697099,-15.855681063122915
1.352536629123891,-10.855681063122915
1.3535333399780722,-2.8556810631229155
1.3545300508322535,-4.8556810631229155
1.3555267616864346,-3.8556810631229155
1.356523472540616,7.1443189368770845
1.357520183394797,10.144318936877085
1.3585168942489783,9.144318936877085
1.3595136051031596,13.144318936877085
1.3605103159573406,10.144318936877085
1.361507026811522,18.144318936877085
1.362503737665703,20.144318936877085
1.3635004485198843,9.144318936877085
1.3644971593740653,5.1443189368770845
1.3654938702282466,0.14431893687708452
1.366490581082428,-7.8556810631229155
1.367487291936609,-17.855681063122915
1.3684840027907903,-17.855681063122915
1.3694807136449714,-18.855681063122915
1.3704774244991527,-15.855681063122915
1.371474135353334,-12.855681063122915
1.372470846207515,-6.8556810631229155
1.3734675570616963,-8.855681063122915
1.3744642679158774,2.1443189368770845
1.3754609787700587,-2.8556810631229155
1.37645768962424,3.1443189368770845
1.377454400478421,5.1443189368770845
1.3784511113326023,17.144318936877085
1.3794478221867834,32.144318936877085
1.3804445330409647,26.144318936877085
1.381441243895146,18.144318936877085
1.382437954749327,8.144318936877085
1.3834346656035084,3.1443189368770845
1.3844313764576894,-3.8556810631229155
1.3854280873118707,1.1443189368770845
1.3864247981660518,-2.8556810631229155
1.387421509020233,-16.855681063122915
1.3884182198744144,-23.855681063122915
1.3894149307285955,-25.855681063122915
1.3904116415827767,-23.855681063122915
1.3914083524369578,-7.8556810631229155
1.3924050632911391,-6.8556810631229155
1.3934017741453204,4.1443189368770845
1.3943984849995015,1.1443189368770845
1.3953951958536828,-2.8556810631229155
1.3963919067078638,8.144318936877085
1.3973886175620451,19.144318936877085
1.3983853284162264,15.144318936877085
1.3993820392704075,17.144318936877085
1.4003787501245888,23.144318936877085
1.4013754609787699,19.144318936877085
1.4023721718329512,11.144318936877085
1.4033688826871322,3.1443189368770845
1.4043655935413135,-1.8556810631229155
1.4053623043954948,-2.8556810631229155
1.4063590152496759,-17.855681063122915
1.4073557261038572,-26.855681063122915
1.4083524369580382,-19.855681063122915
1.4093491478122195,-7.8556810631229155
1.4103458586664008,-15.855681063122915
1.411342569520582,-19.855681063122915
1.4123392803747632,-15.855681063122915
1.4133359912289443,-5.8556810631229155
1.4143327020831256,-5.8556810631229155
1.4153294129373069,1.1443189368770845
1.416326123791488,4.1443189368770845
1.4173228346456692,19.144318936877085
1.4183195454998503,25.144318936877085
1.4193162563540316,20.144318936877085
1.4203129672082129,21.144318936877085
1.421309678062394,26.144318936877085
1.4223063889165752,25.144318936877085
1.4233030997707563,16.144318936877085
1.4242998106249376,-1.8556810631229155
1.4252965214791187,-7.8556810631229155
1.4262932323333,-15.855681063122915
1.4272899431874813,-20.855681063122915
1.4282866540416623,-15.855681063122915
1.4292833648958436,-13.855681063122915
1.4302800757500247,-13.855681063122915
1.431276786604206,-23.855681063122915
1.4322734974583873,-23.855681063122915
1.4332702083125684,-18.855681063122915
1.4342669191667496,-12.855681063122915
1.4352636300209307,-5.8556810631229155
1.436260340875112,1.1443189368770845
1.4372570517292933,22.144318936877085
1.4382537625834744,37.144318936877085
1.4392504734376557,38.144318936877085
1.4402471842918367,42.144318936877085
1.441243895146018,36.144318936877085
1.4422406060001993,9.144318936877085
1.4432373168543804,1.1443189368770845
1.4442340277085617,5.1443189368770845
1.4452307385627428,6.1443189368770845
1.446227449416924,-1.8556810631229155
1.4472241602711051,-17.855681063122915
1.4482208711252864,-19.855681063122915
1.4492175819794677,-30.855681063122915
1.4502142928336488,-37.855681063122915
1.45121100368783,-42.855681063122915
1.4522077145420111,-29.855681063122915
1.4532044253961924,-7.8556810631229155
1.4542011362503737,-3.8556810631229155
1.4551978471045548,-0.8556810631229155
1.456194557958736,0.14431893687708452
1.4571912688129172,12.144318936877085
1.4581879796670985,28.144318936877085
1.4591846905212797,36.144318936877085
1.4601814013754608,26.144318936877085
1.4611781122296421,17.144318936877085
1.4621748230838232,19.144318936877085
1.4631715339380045,22.144318936877085
1.4641682447921855,9.144318936877085
1.4651649556463668,0.14431893687708452
1.4661616665005481,-10.855681063122915
1.4671583773547292,-18.855681063122915
1.4681550882089105,-19.855681063122915
1.4691517990630916,-27.855681063122915
1.4701485099172729,-35.855681063122915
1.4711452207714542,-30.855681063122915
1.4721419316256352,-8.855681063122915
1.4731386424798165,-4.8556810631229155
1.4741353533339976,-4.8556810631229155
1.4751320641881789,-13.855681063122915
1.4761287750423602,-2.8556810631229155
1.4771254858965412,20.144318936877085
1.4781221967507225,48.144318936877085
1.4791189076049036,43.144318936877085
1.480115618459085,35.144318936877085
1.4811123293132662,20.144318936877085
1.4821090401674473,22.144318936877085
1.4831057510216286,17.144318936877085
1.4841024618758096,-2.8556810631229155
1.485099172729991,-7.8556810631229155
1.486095883584172,-8.855681063122915
1.4870925944383533,-25.855681063122915
1.4880893052925346,-29.855681063122915
1.4890860161467157,-27.855681063122915
1.490082727000897,-31.855681063122915
1.491079437855078,-22.855681063122915
1.4920761487092593,-12.855681063122915
1.4930728595634406,-6.8556810631229155
1.4940695704176217,0.14431893687708452
1.495066281271803,1.1443189368770845
1.496062992125984,7.1443189368770845
1.4970597029801653,19.144318936877085
1.4980564138343466,17.144318936877085
1.4990531246885277,20.144318936877085
1.500049835542709,22.144318936877085
1.50104654639689,23.144318936877085
1.5020432572510714,20.144318936877085
1.5030399681052524,8.144318936877085
1.5040366789594337,2.1443189368770845
1.505033389813615,-2.8556810631229155
1.506030100667796,-10.855681063122915
1.5070268115219774,-19.855681063122915
1.5080235223761584,-24.855681063122915
1.5090202332303397,-26.855681063122915
1.510016944084521,-26.855681063122915
1.511013654938702,-21.855681063122915
1.5120103657928834,-4.8556810631229155
1.5130070766470645,8.144318936877085
1.5140037875012458,2.1443189368770845
1.515000498355427,-6.8556810631229155
1.5159972092096081,-7.8556810631229155
1.5169939200637894,4.1443189368770845
1.5179906309179705,20.144318936877085
1.5189873417721518,35.144318936877085
1.519984052626333,35.144318936877085
1.5209807634805141,27.144318936877085
1.5219774743346954,16.144318936877085
1.5229741851888765,9.144318936877085
1.5239708960430578,-0.8556810631229155
1.5249676068972389,-9.855681063122915
1.5259643177514202,-13.855681063122915
1.5269610286056015,-28.855681063122915
1.5279577394597825,-18.855681063122915
1.5289544503139638,-11.855681063122915
1.529951161168145,-12.855681063122915
1.5309478720223262,-15.855681063122915
1.5319445828765075,-5.8556810631229155
1.5329412937306885,-8.855681063122915
1.5339380045848698,-6.8556810631229155
1.534934715439051,6.1443189368770845
1.5359314262932322,7.1443189368770845
1.5369281371474135,13.144318936877085
1.5379248480015946,9.144318936877085
1.5389215588557759,12.144318936877085
1.539918269709957,29.144318936877085
1.5409149805641382,21.144318936877085
1.5419116914183193,22.144318936877085
1.5429084022725006,18.144318936877085
1.5439051131266819,1.1443189368770845
1.544901823980863,-7.8556810631229155
1.5458985348350442,-14.855681063122915
1.5468952456892253,-19.855681063122915
1.5478919565434066,-20.855681063122915
1.548888667397588,-18.855681063122915
1.549885378251769,-18.855681063122915
1.5508820891059503,-18.855681063122915
1.5518787999601313,-10.855681063122915
1.5528755108143126,-9.855681063122915
1.553872221668494,-6.8556810631229155
1.554868932522675,-8.855681063122915
1.5558656433768563,-4.8556810631229155
1.5568623542310374,17.144318936877085
1.5578590650852187,37.144318936877085
1.5588557759394,32.144318936877085
1.559852486793581,29.144318936877085
1.5608491976477623,24.144318936877085
1.5618459085019434,15.144318936877085
1.5628426193561247,2.1443189368770845
1.5638393302103057,-2.8556810631229155
1.564836041064487,-0.8556810631229155
1.5658327519186683,-10.855681063122915
1.5668294627728494,-9.855681063122915
1.5678261736270307,-15.855681063122915
1.5688228844812118,-21.855681063122915
1.569819595335393,-31.855681063122915
1.5708163061895744,-26.855681063122915
1.5718130170437554,-20.855681063122915
1.5728097278979367,-12.855681063122915
1.5738064387521178,-5.8556810631229155
1.574803149606299,-7.8556810631229155
1.5757998604604804,5.1443189368770845
1.5767965713146614,32.144318936877085
1.5777932821688427,30.144318936877085
1.5787899930230238,24.144318936877085
1.579786703877205,24.144318936877085
1.5807834147313862,21.144318936877085
1.5817801255855675,23.144318936877085
1.5827768364397488,14.144318936877085
1.5837735472939298,5.1443189368770845
1.5847702581481111,-7.8556810631229155
1.5857669690022922,-19.855681063122915
1.5867636798564735,-21.855681063122915
1.5877603907106548,-23.855681063122915
1.5887571015648358,-11.855681063122915
1.5897538124190171,-10.855681063122915
1.5907505232731982,-17.855681063122915
1.5917472341273795,-19.855681063122915
1.5927439449815608,-14.855681063122915
1.5937406558357419,-9.855681063122915
1.5947373666899232,-1.8556810631229155
1.5957340775441042,1.1443189368770845
1.5967307883982855,14.144318936877085
1.5977274992524668,17.144318936877085
1.598724210106648,29.144318936877085
1.5997209209608292,33.144318936877085
1.6007176318150103,20.144318936877085
1.6017143426691915,15.144318936877085
1.6027110535233726,13.144318936877085
1.603707764377554,-2.8556810631229155
1.6047044752317352,-10.855681063122915
1.6057011860859163,-8.855681063122915
1.6066978969400976,-15.855681063122915
1.6076946077942786,-13.855681063122915
1.60869131864846,-16.855681063122915
1.6096880295026412,-19.855681063122915
1.6106847403568223,-23.855681063122915
1.6116814512110036,-19.855681063122915
1.6126781620651847,-11.855681063122915
1.613674872919366,-3.8556810631229155
1.6146715837735472,5.1443189368770845
1.6156682946277283,2.1443189368770845
1.6166650054819096,15.144318936877085
1.6176617163360907,18.144318936877085
1.618658427190272,14.144318936877085
1.619655138044453,24.144318936877085
1.6206518488986343,36.144318936877085
1.6216485597528156,20.144318936877085
1.6226452706069967,8.144318936877085
1.623641981461178,9.144318936877085
1.624638692315359,-4.8556810631229155
1.6256354031695404,-4.8556810631229155
1.6266321140237217,-23.855681063122915
1.6276288248779027,-33.855681063122915
1.628625535732084,-21.855681063122915
1.629622246586265,-14.855681063122915
1.6306189574404464,-9.855681063122915
1.6316156682946277,-26.855681063122915
1.6326123791488087,-15.855681063122915
1.63360909000299,-2.8556810631229155
1.634605800857171,0.14431893687708452
1.6356025117113524,20.144318936877085
1.6365992225655337,32.144318936877085
1.6375959334197148,28.144318936877085
1.638592644273896,25.144318936877085
1.6395893551280771,23.144318936877085
1.6405860659822584,11.144318936877085
1.6415827768364395,17.144318936877085
1.6425794876906208,14.144318936877085
1.643576198544802,-0.8556810631229155
1.6445729093989832,-1.8556810631229155
1.6455696202531644,-7.8556810631229155
1.6465663311073455,-30.855681063122915
1.6475630419615268,-36.855681063122915
1.648559752815708,-23.855681063122915
1.6495564636698892,-17.855681063122915
1.6505531745240705,-16.855681063122915
1.6515498853782515,-9.855681063122915
1.6525465962324328,-1.8556810631229155
1.6535433070866141,-3.8556810631229155
1.6545400179407952,-10.855681063122915
1.6555367287949765,0.14431893687708452
1.6565334396491576,12.144318936877085
1.6575301505033389,26.144318936877085
1.6585268613575201,24.144318936877085
1.6595235722117012,35.144318936877085
1.6605202830658825,33.144318936877085
1.6615169939200636,29.144318936877085
1.6625137047742449,15.144318936877085
1.663510415628426,4.1443189368770845
1.6645071264826072,-4.8556810631229155
1.6655038373367885,-12.855681063122915
1.6665005481909696,-30.855681063122915
1.667497259045151,-31.855681063122915
1.668493969899332,-23.855681063122915
1.6694906807535133,-27.855681063122915
1.6704873916076945,-22.855681063122915
1.6714841024618756,-16.855681063122915
1.672480813316057,-13.855681063122915
1.673477524170238,-10.855681063122915
1.6744742350244193,-6.8556810631229155
1.6754709458786006,1.1443189368770845
1.6764676567327816,18.144318936877085
1.677464367586963,26.144318936877085
1.678461078441144,29.144318936877085
1.6794577892953253,38.144318936877085
1.6804545001495064,38.144318936877085
1.6814512110036877,29.144318936877085
1.682447921857869,14.144318936877085
1.68344463271205,5.1443189368770845
1.6844413435662313,17.144318936877085
1.6854380544204124,12.144318936877085
1.6864347652745937,-14.855681063122915
1.687431476128775,-38.855681063122915
1.688428186982956,-39.855681063122915
1.6894248978371373,-37.855681063122915
1.6904216086913184,-48.855681063122915
1.6914183195454997,-51.855681063122915
1.692415030399681,-42.855681063122915
1.693411741253862,-38.855681063122915
1.6944084521080434,-31.855681063122915
1.6954051629622244,-21.855681063122915
1.6964018738164057,9.144318936877085
1.697398584670587,37.144318936877085
1.698395295524768,55.144318936877085
1.6993920063789494,78.14431893687708
1.7003887172331305,70.14431893687708
1.7013854280873117,56.144318936877085
1.7023821389414928,50.144318936877085
1.703378849795674,36.144318936877085
1.7043755606498554,20.144318936877085
1.7053722715040365,8.144318936877085
1.7063689823582178,-11.855681063122915
1.7073656932123988,-23.855681063122915
1.7083624040665801,-23.855681063122915
1.7093591149207614,-36.855681063122915
1.7103558257749425,-68.85568106312292
1.7113525366291238,-79.85568106312292
1.7123492474833049,-63.855681063122915
1.7133459583374862,-52.855681063122915
1.7143426691916674,-38.855681063122915
1.7153393800458485,-17.855681063122915
1.7163360909000298,16.144318936877085
1.7173328017542109,39.144318936877085
1.7183295126083922,54.144318936877085
1.7193262234625732,65.14431893687708
1.7203229343167545,62.144318936877085
1.7213196451709358,59.144318936877085
1.722316356025117,50.144318936877085
1.7233130668792982,32.144318936877085
1.7243097777334793,15.144318936877085
1.7253064885876606,10.144318936877085
1.7263031994418419,-11.855681063122915
1.727299910296023,-20.855681063122915
1.7282966211502042,-33.855681063122915
1.7292933320043853,-48.855681063122915
1.7302900428585666,-51.855681063122915
1.7312867537127479,-45.855681063122915
1.732283464566929,-46.855681063122915
1.7332801754211102,-37.855681063122915
1.7342768862752913,-33.855681063122915
1.7352735971294726,-26.855681063122915
1.736270307983654,0.14431893687708452
1.737267018837835,22.144318936877085
1.7382637296920163,41.144318936877085
1.7392604405461973,52.144318936877085
1.7402571514003786,61.144318936877085
1.7412538622545597,60.144318936877085
1.742250573108741,46.144318936877085
1.7432472839629223,36.144318936877085
1.7442439948171033,34.144318936877085
1.7452407056712846,24.144318936877085
1.7462374165254657,-6.8556810631229155
1.747234127379647,-27.855681063122915
1.7482308382338283,-29.855681063122915
1.7492275490880094,-37.855681063122915
1.7502242599421907,-47.855681063122915
1.7512209707963717,-66.85568106312292
1.752217681650553,-68.85568106312292
1.7532143925047343,-39.855681063122915
1.7542111033589154,-28.855681063122915
1.7552078142130967,-28.855681063122915
1.7562045250672778,0.14431893687708452
1.757201235921459,24.144318936877085
1.7581979467756401,41.144318936877085
1.7591946576298214,56.144318936877085
1.7601913684840027,63.144318936877085
1.7611880793381838,68.14431893687708
1.762184790192365,53.144318936877085
1.7631815010465461,50.144318936877085
1.7641782119007274,41.144318936877085
1.7651749227549087,14.144318936877085
1.7661716336090898,-17.855681063122915
1.767168344463271,-33.855681063122915
1.7681650553174522,-46.855681063122915
1.7691617661716335,-58.855681063122915
1.7701584770258147,-66.85568106312292
1.7711551878799958,-61.855681063122915
1.7721518987341771,-45.855681063122915
1.7731486095883582,-31.855681063122915
1.7741453204425395,-28.855681063122915
1.7751420312967208,-19.855681063122915
1.7761387421509018,11.144318936877085
1.7771354530050831,29.144318936877085
1.7781321638592642,36.144318936877085
1.7791288747134455,42.144318936877085
1.7801255855676266,49.144318936877085
1.7811222964218079,56.144318936877085
1.7821190072759892,45.144318936877085
1.7831157181301702,40.144318936877085
1.7841124289843515,42.144318936877085
1.7851091398385326,29.144318936877085
1.7861058506927139,3.1443189368770845
1.7871025615468952,-26.855681063122915
1.7880992724010762,-35.855681063122915
1.7890959832552575,-43.855681063122915
1.7900926941094386,-58.855681063122915
1.79108940496362,-55.855681063122915
1.7920861158178012,-45.855681063122915
1.7930828266719823,-46.855681063122915
1.7940795375261636,-31.855681063122915
1.7950762483803446,-19.855681063122915
1.796072959234526,3.1443189368770845
1.797069670088707,22.144318936877085
1.7980663809428883,40.144318936877085
1.7990630917970696,49.144318936877085
1.8000598026512507,65.14431893687708
1.801056513505432,65.14431893687708
1.802053224359613,51.144318936877085
1.8030499352137943,38.144318936877085
1.8040466460679756,39.144318936877085
1.8050433569221567,22.144318936877085
1.806040067776338,-8.855681063122915
1.807036778630519,-33.855681063122915
1.8080334894847003,-47.855681063122915
1.8090302003388816,-60.855681063122915
1.8100269111930627,-55.855681063122915
1.811023622047244,-56.855681063122915
1.812020332901425,-58.855681063122915
1.8130170437556064,-48.855681063122915
1.8140137546097876,-37.855681063122915
1.8150104654639687,-15.855681063122915
1.81600717631815,21.144318936877085
1.817003887172331,34.144318936877085
1.8180005980265124,33.144318936877085
1.8189973088806934,46.144318936877085
1.8199940197348747,61.144318936877085
1.820990730589056,55.144318936877085
1.821987441443237,45.144318936877085
1.8229841522974184,33.144318936877085
1.8239808631515995,22.144318936877085
1.8249775740057808,25.144318936877085
1.825974284859962,11.144318936877085
1.8269709957141431,-15.855681063122915
1.8279677065683244,-39.855681063122915
1.8289644174225055,-51.855681063122915
1.8299611282766868,-62.855681063122915
1.830957839130868,-63.855681063122915
1.8319545499850491,-47.855681063122915
1.8329512608392304,-38.855681063122915
1.8339479716934115,-42.855681063122915
1.8349446825475928,-20.855681063122915
1.8359413934017739,12.144318936877085
1.8369381042559552,29.144318936877085
1.8379348151101365,42.144318936877085
1.8389315259643175,57.144318936877085
1.8399282368184988,56.144318936877085
1.84092494767268,58.144318936877085
1.8419216585268612,55.144318936877085
1.8429183693810425,35.144318936877085
1.8439150802352235,23.144318936877085
1.8449117910894048,14.144318936877085
1.845908501943586,-7.8556810631229155
1.8469052127977672,-19.855681063122915
1.8479019236519485,-30.855681063122915
1.8488986345061296,-54.855681063122915
1.8498953453603109,-57.855681063122915
1.850892056214492,-56.855681063122915
1.8518887670686732,-50.855681063122915
1.8528854779228545,-43.855681063122915
1.8538821887770356,-29.855681063122915
1.8548788996312169,2.1443189368770845
1.855875610485398,38.144318936877085
1.8568723213395792,47.144318936877085
1.8578690321937603,48.144318936877085
1.8588657430479416,45.144318936877085
1.859862453902123,42.144318936877085
1.860859164756304,29.144318936877085
1.8618558756104853,17.144318936877085
1.8628525864646663,14.144318936877085
1.8638492973188476,13.144318936877085
1.864846008173029,0.14431893687708452
1.86584271902721,-30.855681063122915
1.8668394298813913,-32.855681063122915
1.8678361407355724,-29.855681063122915
1.8688328515897537,-43.855681063122915
1.869829562443935,-35.855681063122915
1.870826273298116,-30.855681063122915
1.8718229841522973,-12.855681063122915
1.8728196950064784,-6.8556810631229155
1.8738164058606597,-0.8556810631229155
1.8748131167148407,7.1443189368770845
1.875809827569022,21.144318936877085
1.8768065384232033,25.144318936877085
1.8778032492773844,25.144318936877085
1.8787999601315657,36.144318936877085
1.8797966709857468,32.144318936877085
1.880793381839928,27.144318936877085
1.8817900926941094,18.144318936877085
1.8827868035482904,9.144318936877085
1.8837835144024717,3.1443189368770845
1.8847802252566528,-5.8556810631229155
1.885776936110834,-27.855681063122915
1.8867736469650154,-33.855681063122915
1.8877703578191964,-36.855681063122915
1.8887670686733777,-28.855681063122915
1.8897637795275588,-33.855681063122915
1.89076049038174,-28.855681063122915
1.8917572012359214,-3.8556810631229155
1.8927539120901025,-10.855681063122915
1.8937506229442838,-20.855681063122915
1.8947473337984648,-15.855681063122915
1.8957440446526461,30.144318936877085
1.8967407555068272,50.144318936877085
1.8977374663610085,59.144318936877085
1.8987341772151898,50.144318936877085
1.8997308880693708,33.144318936877085
1.9007275989235521,25.144318936877085
1.9017243097777332,22.144318936877085
1.9027210206319145,5.1443189368770845
1.9037177314860958,3.1443189368770845
1.9047144423402769,-10.855681063122915
1.9057111531944582,-34.855681063122915
1.9067078640486392,-37.855681063122915
1.9077045749028205,-33.855681063122915
1.9087012857570018,-30.855681063122915
1.909697996611183,-28.855681063122915
1.9106947074653642,-22.855681063122915
1.9116914183195453,-15.855681063122915
1.9126881291737265,-13.855681063122915
1.9136848400279076,-0.8556810631229155
1.914681550882089,8.144318936877085
1.9156782617362702,18.144318936877085
1.9166749725904513,27.144318936877085
1.9176716834446326,30.144318936877085
1.9186683942988136,34.144318936877085
1.919665105152995,28.144318936877085
1.9206618160071762,22.144318936877085
1.9216585268613573,16.144318936877085
1.9226552377155386,5.1443189368770845
1.9236519485697197,4.1443189368770845
1.924648659423901,-4.8556810631229155
1.9256453702780822,-19.855681063122915
1.9266420811322633,-30.855681063122915
1.9276387919864446,-33.855681063122915
1.9286355028406257,-38.855681063122915
1.929632213694807,-38.855681063122915
1.9306289245489883,-31.855681063122915
1.9316256354031693,-19.855681063122915
1.9326223462573506,1.1443189368770845
1.9336190571115317,8.144318936877085
1.934615767965713,21.144318936877085
1.935612478819894,32.144318936877085
1.9366091896740754,35.144318936877085
1.9376059005282567,25.144318936877085
1.9386026113824377,29.144318936877085
1.939599322236619,25.144318936877085
1.9405960330908,25.144318936877085
1.9415927439449814,14.144318936877085
1.9425894547991627,4.1443189368770845
1.9435861656533437,8.144318936877085
1.944582876507525,-2.8556810631229155
1.945579587361706,-24.855681063122915
1.9465762982158874,-27.855681063122915
1.9475730090700687,-31.855681063122915
1.9485697199242498,-38.855681063122915
1.949566430778431,-37.855681063122915
1.9505631416326121,-12.855681063122915
1.9515598524867934,-7.8556810631229155
1.9525565633409747,-8.855681063122915
1.9535532741951558,-12.855681063122915
1.954549985049337,-10.855681063122915
1.9555466959035182,17.144318936877085
1.9565434067576994,29.144318936877085
1.9575401176118805,41.144318936877085
1.9585368284660618,47.144318936877085
1.959533539320243,38.144318936877085
1.9605302501744242,33.144318936877085
1.9615269610286055,17.144318936877085
1.9625236718827865,6.1443189368770845
1.9635203827369678,-1.8556810631229155
1.9645170935911491,-4.8556810631229155
1.9655138044453302,-20.855681063122915
1.9665105152995115,-30.855681063122915
1.9675072261536926,-33.855681063122915
1.9685039370078738,-45.855681063122915
1.9695006478620551,-42.855681063122915
1.9704973587162362,-29.855681063122915
1.9714940695704175,-21.855681063122915
1.9724907804245986,-10.855681063122915
1.9734874912787799,-2.8556810631229155
1.974484202132961,15.144318936877085
1.9754809129871422,41.144318936877085
1.9764776238413235,42.144318936877085
1.9774743346955046,43.144318936877085
1.978471045549686,40.144318936877085
1.979467756403867,29.144318936877085
1.9804644672580483,20.144318936877085
1.9814611781122295,11.144318936877085
1.9824578889664106,2.1443189368770845
1.983454599820592,-1.8556810631229155
1.984451310674773,-2.8556810631229155
1.9854480215289543,-19.855681063122915
1.9864447323831356,-41.855681063122915
1.9874414432373166,-43.855681063122915
1.988438154091498,-34.855681063122915
1.989434864945679,-24.855681063122915
1.9904315757998603,-19.855681063122915
1.9914282866540416,-6.8556810631229155
1.9924249975082227,-5.8556810631229155
1.993421708362404,1.1443189368770845
1.994418419216585,6.1443189368770845
1.9954151300707663,22.144318936877085
1.9964118409249474,25.144318936877085
1.9974085517791287,25.144318936877085
1.99840526263331,22.144318936877085
1.999401973487491,26.144318936877085
2.0003986843416723,30.144318936877085
2.0013953951958534,23.144318936877085
2.0023921060500345,12.144318936877085
2.003388816904216,2.1443189368770845
2.004385527758397,-1.8556810631229155
2.005382238612578,-20.855681063122915
2.0063789494667597,-35.855681063122915
2.0073756603209407,-30.855681063122915
2.008372371175122,-28.855681063122915
2.0093690820293033,-34.855681063122915
2.0103657928834844,-39.855681063122915
2.0113625037376655,-25.855681063122915
2.0123592145918465,-6.8556810631229155
2.013355925446028,2.1443189368770845
2.014352636300209,4.1443189368770845
2.01534934715439,30.144318936877085
2.0163460580085717,36.144318936877085
2.0173427688627528,30.144318936877085
2.018339479716934,38.144318936877085
2.0193361905711154,38.144318936877085
2.0203329014252964,36.144318936877085
2.0213296122794775,21.144318936877085
2.0223263231336586,4.1443189368770845
2.02332303398784,-7.8556810631229155
2.024319744842021,-12.855681063122915
2.0253164556962022,-27.855681063122915
2.0263131665503837,-28.855681063122915
2.027309877404565,-32.855681063122915
2.028306588258746,-28.855681063122915
2.029303299112927,-30.855681063122915
2.0303000099671085,-30.855681063122915
2.0312967208212895,-15.855681063122915
2.0322934316754706,-3.8556810631229155
2.033290142529652,-4.8556810631229155
2.034286853383833,-2.8556810631229155
2.0352835642380143,12.144318936877085
2.036280275092196,30.144318936877085
2.037276985946377,32.144318936877085
2.038273696800558,38.144318936877085
2.039270407654739,48.144318936877085
2.0402671185089205,48.144318936877085
2.0412638293631016,33.144318936877085
2.0422605402172826,10.144318936877085
2.043257251071464,-2.8556810631229155
2.0442539619256452,-18.855681063122915
2.0452506727798263,-31.855681063122915
2.0462473836340074,-40.855681063122915
2.047244094488189,-39.855681063122915
2.04824080534237,-30.855681063122915
2.049237516196551,-28.855681063122915
2.0502342270507325,-20.855681063122915
2.0512309379049136,-14.855681063122915
2.0522276487590947,-19.855681063122915
2.053224359613276,-6.8556810631229155
2.0542210704674573,7.1443189368770845
2.0552177813216383,17.144318936877085
2.0562144921758194,32.144318936877085
2.057211203030001,34.144318936877085
2.058207913884182,38.144318936877085
2.059204624738363,29.144318936877085
2.0602013355925446,20.144318936877085
2.0611980464467257,18.144318936877085
2.0621947573009067,16.144318936877085
2.063191468155088,6.1443189368770845
2.0641881790092693,-2.8556810631229155
2.0651848898634504,-13.855681063122915
2.0661816007176315,-30.855681063122915
2.067178311571813,-44.855681063122915
2.068175022425994,-42.855681063122915
2.069171733280175,-32.855681063122915
2.0701684441343566,-30.855681063122915
2.0711651549885377,-10.855681063122915
2.0721618658427188,-6.8556810631229155
2.0731585766969,6.1443189368770845
2.0741552875510814,8.144318936877085
2.0751519984052624,28.144318936877085
2.0761487092594435,38.144318936877085
2.077145420113625,34.144318936877085
2.078142130967806,37.144318936877085
2.079138841821987,32.144318936877085
2.0801355526761687,25.144318936877085
2.0811322635303497,22.144318936877085
2.082128974384531,15.144318936877085
2.083125685238712,0.14431893687708452
2.0841223960928934,-19.855681063122915
2.0851191069470745,-28.855681063122915
2.0861158178012555,-24.855681063122915
2.087112528655437,-26.855681063122915
2.088109239509618,-35.855681063122915
2.089105950363799,-31.855681063122915
2.0901026612179803,-27.855681063122915
2.091099372072162,-19.855681063122915
2.092096082926343,-21.855681063122915
2.093092793780524,-6.8556810631229155
2.0940895046347054,-2.8556810631229155
2.0950862154888865,14.144318936877085
2.0960829263430676,40.144318936877085
2.097079637197249,43.144318936877085
2.09807634805143,36.144318936877085
2.0990730589056112,31.144318936877085
2.1000697697597923,28.144318936877085
2.101066480613974,16.144318936877085
2.102063191468155,1.1443189368770845
2.103059902322336,4.1443189368770845
2.1040566131765175,-11.855681063122915
2.1050533240306986,-21.855681063122915
2.1060500348848796,-29.855681063122915
2.1070467457390607,-25.855681063122915
2.108043456593242,-26.855681063122915
2.1090401674474233,-30.855681063122915
2.1100368783016044,-26.855681063122915
2.111033589155786,-6.8556810631229155
2.112030300009967,-7.8556810631229155
2.113027010864148,-9.855681063122915
2.1140237217183295,-4.8556810631229155
2.1150204325725106,25.144318936877085
2.1160171434266917,31.144318936877085
2.1170138542808727,30.144318936877085
2.1180105651350543,44.144318936877085
2.1190072759892353,38.144318936877085
2.1200039868434164,16.144318936877085
2.121000697697598,7.1443189368770845
2.121997408551779,4.1443189368770845
2.12299411940596,1.1443189368770845
2.123990830260141,-0.8556810631229155
2.1249875411143226,-17.855681063122915
2.1259842519685037,-21.855681063122915
2.126980962822685,-33.855681063122915
2.1279776736768663,-32.855681063122915
2.1289743845310474,-39.855681063122915
2.1299710953852284,-35.855681063122915
2.13096780623941,-15.855681063122915
2.131964517093591,-6.8556810631229155
2.132961227947772,-0.8556810631229155
2.133957938801953,15.144318936877085
2.1349546496561347,25.144318936877085
2.1359513605103158,32.144318936877085
2.136948071364497,30.144318936877085
2.1379447822186783,29.144318936877085
2.1389414930728594,28.144318936877085
2.1399382039270405,22.144318936877085
2.1409349147812216,12.144318936877085
2.141931625635403,4.1443189368770845
2.142928336489584,1.1443189368770845
2.143925047343765,-6.8556810631229155
2.1449217581979467,-22.855681063122915
2.145918469052128,-25.855681063122915
2.146915179906309,-23.855681063122915
2.1479118907604904,-25.855681063122915
2.1489086016146715,-27.855681063122915
2.1499053124688525,-19.855681063122915
2.1509020233230336,-17.855681063122915
2.151898734177215,-12.855681063122915
2.152895445031396,0.14431893687708452
2.1538921558855773,10.144318936877085
2.1548888667397588,25.144318936877085
2.15588557759394,28.144318936877085
2.156882288448121,19.144318936877085
2.1578789993023024,26.144318936877085
2.1588757101564835,31.144318936877085
2.1598724210106646,31.144318936877085
2.1608691318648456,9.144318936877085
2.161865842719027,4.1443189368770845
2.1628625535732082,10.144318936877085
2.1638592644273893,0.14431893687708452
2.164855975281571,-21.855681063122915
2.165852686135752,-33.855681063122915
2.166849396989933,-30.855681063122915
2.167846107844114,-31.855681063122915
2.1688428186982955,-34.855681063122915
2.1698395295524766,-25.855681063122915
2.1708362404066577,-11.855681063122915
2.171832951260839,-4.8556810631229155
2.1728296621150203,-1.8556810631229155
2.1738263729692013,4.1443189368770845
2.174823083823383,17.144318936877085
2.175819794677564,23.144318936877085
2.176816505531745,23.144318936877085
2.177813216385926,32.144318936877085
2.1788099272401076,40.144318936877085
2.1798066380942887,28.144318936877085
2.1808033489484697,20.144318936877085
2.1818000598026512,12.144318936877085
2.1827967706568323,2.1443189368770845
2.1837934815110134,-14.855681063122915
2.1847901923651945,-10.855681063122915
2.185786903219376,-17.855681063122915
2.186783614073557,-20.855681063122915
2.187780324927738,-29.855681063122915
2.1887770357819196,-46.855681063122915
2.1897737466361007,-39.855681063122915
2.1907704574902818,-20.855681063122915
2.1917671683444633,-7.8556810631229155
2.1927638791986444,3.1443189368770845
2.1937605900528254,23.144318936877085
2.1947573009070065,26.144318936877085
2.195754011761188,18.144318936877085
2.196750722615369,23.144318936877085
2.19774743346955,24.144318936877085
2.1987441443237317,21.144318936877085
2.1997408551779127,17.144318936877085
2.200737566032094,24.144318936877085
2.201734276886275,15.144318936877085
2.2027309877404564,9.144318936877085
2.2037276985946375,1.1443189368770845
2.2047244094488185,-22.855681063122915
2.205721120303,-31.855681063122915
2.206717831157181,-30.855681063122915
2.207714542011362,-32.855681063122915
2.2087112528655437,-33.855681063122915
2.2097079637197248,-21.855681063122915
2.210704674573906,-17.855681063122915
2.211701385428087,-12.855681063122915
2.2126980962822684,4.1443189368770845
2.2136948071364495,8.144318936877085
2.2146915179906306,25.144318936877085
2.215688228844812,40.144318936877085
2.216684939698993,36.144318936877085
2.2176816505531742,34.144318936877085
2.2186783614073553,26.144318936877085
2.219675072261537,14.144318936877085
2.220671783115718,-0.8556810631229155
2.221668493969899,-3.8556810631229155
2.2226652048240805,2.1443189368770845
2.2236619156782615,-9.855681063122915
2.2246586265324426,-23.855681063122915
2.225655337386624,-22.855681063122915
2.226652048240805,-27.855681063122915
2.2276487590949863,-33.855681063122915
2.2286454699491673,-26.855681063122915
2.229642180803349,-23.855681063122915
2.23063889165753,-11.855681063122915
2.231635602511711,-2.8556810631229155
2.2326323133658925,-5.8556810631229155
2.2336290242200736,-3.8556810631229155
2.2346257350742547,24.144318936877085
2.235622445928436,28.144318936877085
2.2366191567826172,29.144318936877085
2.2376158676367983,33.144318936877085
2.2386125784909794,34.144318936877085
2.239609289345161,31.144318936877085
2.240606000199342,17.144318936877085
2.241602711053523,6.1443189368770845
2.2425994219077046,2.1443189368770845
2.2435961327618856,-11.855681063122915
2.2445928436160667,-35.855681063122915
2.2455895544702478,-30.855681063122915
2.2465862653244293,-25.855681063122915
2.2475829761786104,-35.855681063122915
2.2485796870327914,-33.855681063122915
2.249576397886973,-15.855681063122915
2.250573108741154,-3.8556810631229155
2.251569819595335,-3.8556810631229155
2.2525665304495166,2.1443189368770845
2.2535632413036977,8.144318936877085
2.2545599521578787,21.144318936877085
2.25555666301206,27.144318936877085
2.2565533738662413,26.144318936877085
2.2575500847204224,32.144318936877085
2.2585467955746035,24.144318936877085
2.259543506428785,19.144318936877085
2.260540217282966,19.144318936877085
2.261536928137147,14.144318936877085
2.262533638991328,7.1443189368770845
2.2635303498455097,-1.8556810631229155
2.264527060699691,-21.855681063122915
2.265523771553872,-27.855681063122915
2.2665204824080534,-31.855681063122915
2.2675171932622344,-40.855681063122915
2.2685139041164155,-31.855681063122915
2.269510614970597,-16.855681063122915
2.270507325824778,-10.855681063122915
2.271504036678959,-12.855681063122915
2.2725007475331402,-10.855681063122915
2.2734974583873218,9.144318936877085
2.274494169241503,20.144318936877085
2.275490880095684,25.144318936877085
2.2764875909498654,32.144318936877085
2.2774843018040465,30.144318936877085
2.2784810126582276,21.144318936877085
2.2794777235124086,22.144318936877085
2.28047443436659,18.144318936877085
2.281471145220771,9.144318936877085
2.2824678560749523,6.1443189368770845
2.283464566929134,2.1443189368770845
2.284461277783315,-18.855681063122915
2.285457988637496,-24.855681063122915
2.2864546994916775,-33.855681063122915
2.2874514103458585,-38.855681063122915
2.2884481212000396,-34.855681063122915
2.2894448320542207,-34.855681063122915
2.290441542908402,-14.855681063122915
2.2914382537625833,2.1443189368770845
2.2924349646167643,12.144318936877085
2.293431675470946,13.144318936877085
2.294428386325127,20.144318936877085
2.295425097179308,19.144318936877085
2.2964218080334895,18.144318936877085
2.2974185188876706,23.144318936877085
2.2984152297418516,26.144318936877085
2.2994119405960327,27.144318936877085
2.3004086514502142,21.144318936877085
2.3014053623043953,13.144318936877085
2.3024020731585764,6.1443189368770845
2.303398784012758,-1.8556810631229155
2.304395494866939,-15.855681063122915
2.30539220572112,-23.855681063122915
2.306388916575301,-29.855681063122915
2.3073856274294826,-39.855681063122915
2.3083823382836637,-40.855681063122915
2.3093790491378448,-25.855681063122915
2.3103757599920263,-14.855681063122915
2.3113724708462073,-7.8556810631229155
2.3123691817003884,-5.8556810631229155
2.31336589255457,4.1443189368770845
2.314362603408751,34.144318936877085
2.315359314262932,41.144318936877085
2.316356025117113,31.144318936877085
2.3173527359712947,36.144318936877085
2.3183494468254757,37.144318936877085
2.319346157679657,24.144318936877085
2.3203428685338383,17.144318936877085
2.3213395793880194,11.144318936877085
2.3223362902422005,-3.8556810631229155
2.3233330010963815,-19.855681063122915
2.324329711950563,-26.855681063122915
2.325326422804744,-30.855681063122915
2.326323133658925,-32.855681063122915
2.3273198445131067,-36.855681063122915
2.3283165553672878,-26.855681063122915
2.329313266221469,-22.855681063122915
2.3303099770756504,-19.855681063122915
2.3313066879298314,-10.855681063122915
2.3323033987840125,-2.8556810631229155
2.3333001096381936,9.144318936877085
2.334296820492375,24.144318936877085
2.335293531346556,32.144318936877085
2.336290242200737,32.144318936877085
2.3372869530549187,32.144318936877085
2.3382836639091,38.144318936877085
2.339280374763281,27.144318936877085
2.340277085617462,18.144318936877085
2.3412737964716435,12.144318936877085
2.3422705073258245,6.1443189368770845
2.3432672181800056,-9.855681063122915
2.344263929034187,-29.855681063122915
2.345260639888368,-31.855681063122915
2.3462573507425493,-33.855681063122915
2.347254061596731,-37.855681063122915
2.348250772450912,-32.855681063122915
2.349247483305093,-33.855681063122915
2.350244194159274,-19.855681063122915
2.3512409050134555,1.1443189368770845
2.3522376158676366,3.1443189368770845
2.3532343267218176,1.1443189368770845
2.354231037575999,27.144318936877085
2.3552277484301802,38.144318936877085
2.3562244592843613,26.144318936877085
2.3572211701385424,25.144318936877085
2.358217880992724,23.144318936877085
2.359214591846905,28.144318936877085
2.360211302701086,16.144318936877085
2.3612080135552675,10.144318936877085
2.3622047244094486,5.1443189368770845
2.3632014352636297,-2.8556810631229155
2.364198146117811,-21.855681063122915
2.3651948569719923,-36.855681063122915
2.3661915678261733,-37.855681063122915
2.3671882786803544,-34.855681063122915
2.368184989534536,-24.855681063122915
2.369181700388717,-19.855681063122915
2.370178411242898,-12.855681063122915
2.3711751220970796,-2.8556810631229155
2.3721718329512607,-6.8556810631229155
2.3731685438054417,4.1443189368770845
2.3741652546596232,20.144318936877085
2.3751619655138043,22.144318936877085
2.3761586763679854,24.144318936877085
2.3771553872221665,36.144318936877085
2.378152098076348,34.144318936877085
2.379148808930529,33.144318936877085
2.38014551978471,24.144318936877085
2.3811422306388916,7.1443189368770845
2.3821389414930727,-4.8556810631229155
2.3831356523472538,-5.8556810631229155
2.384132363201435,-20.855681063122915
2.3851290740556164,-32.855681063122915
2.3861257849097974,-33.855681063122915
2.3871224957639785,-29.855681063122915
2.38811920661816,-24.855681063122915
2.389115917472341,-20.855681063122915
2.390112628326522,-15.855681063122915
2.3911093391807037,-12.855681063122915
2.3921060500348847,-12.855681063122915
2.393102760889066,4.1443189368770845
2.394099471743247,19.144318936877085
2.3950961825974284,33.144318936877085
2.3960928934516095,38.144318936877085
2.3970896043057905,49.144318936877085
2.398086315159972,42.144318936877085
2.399083026014153,29.144318936877085
2.400079736868334,11.144318936877085
2.4010764477225153,-0.8556810631229155
2.402073158576697,-2.8556810631229155
2.403069869430878,-10.855681063122915
2.404066580285059,-27.855681063122915
2.4050632911392404,-31.855681063122915
2.4060600019934215,-29.855681063122915
2.4070567128476026,-24.855681063122915
2.408053423701784,-20.855681063122915
2.409050134555965,-27.855681063122915
2.4100468454101462,-21.855681063122915
2.4110435562643273,-4.8556810631229155
2.412040267118509,4.1443189368770845
2.41303697797269,8.144318936877085
2.414033688826871,22.144318936877085
2.4150303996810525,31.144318936877085
2.4160271105352336,27.144318936877085
2.4170238213894146,29.144318936877085
2.4180205322435957,17.144318936877085
2.419017243097777,16.144318936877085
2.4200139539519583,13.144318936877085
2.4210106648061394,14.144318936877085
2.422007375660321,3.1443189368770845
2.423004086514502,-3.8556810631229155
2.424000797368683,-11.855681063122915
2.4249975082228645,-21.855681063122915
2.4259942190770456,-25.855681063122915
2.4269909299312267,-29.855681063122915
2.4279876407854077,-27.855681063122915
2.4289843516395893,-24.855681063122915
2.4299810624937703,-16.855681063122915
2.4309777733479514,-10.855681063122915
2.431974484202133,-27.855681063122915
2.432971195056314,-14.855681063122915
2.433967905910495,11.144318936877085
2.434964616764676,23.144318936877085
2.4359613276188576,42.144318936877085
2.4369580384730387,57.144318936877085
2.43795474932722,55.144318936877085
2.4389514601814013,49.144318936877085
2.4399481710355824,25.144318936877085
2.4409448818897634,1.1443189368770845
2.441941592743945,-4.8556810631229155
2.442938303598126,-10.855681063122915
2.443935014452307,-30.855681063122915
2.444931725306488,-28.855681063122915
2.4459284361606697,-25.855681063122915
2.4469251470148508,-32.855681063122915
2.447921857869032,-34.855681063122915
2.4489185687232133,-29.855681063122915
2.4499152795773944,-19.855681063122915
2.4509119904315755,-13.855681063122915
2.451908701285757,-10.855681063122915
2.452905412139938,5.1443189368770845
2.453902122994119,21.144318936877085
2.4548988338483,32.144318936877085
2.4558955447024817,30.144318936877085
2.456892255556663,35.144318936877085
2.457888966410844,40.144318936877085
2.4588856772650254,31.144318936877085
2.4598823881192065,10.144318936877085
2.4608790989733875,2.1443189368770845
2.4618758098275686,4.1443189368770845
2.46287252068175,-4.8556810631229155
2.463869231535931,-28.855681063122915
2.4648659423901123,-32.855681063122915
2.4658626532442938,-27.855681063122915
2.466859364098475,-27.855681063122915
2.467856074952656,-25.855681063122915
2.4688527858068374,-28.855681063122915
2.4698494966610185,-14.855681063122915
2.4708462075151996,-5.8556810631229155
2.4718429183693806,-0.8556810631229155
2.472839629223562,6.1443189368770845
2.4738363400777432,19.144318936877085
2.4748330509319243,28.144318936877085
2.475829761786106,30.144318936877085
2.476826472640287,37.144318936877085
2.477823183494468,27.144318936877085
2.478819894348649,29.144318936877085
2.4798166052028305,17.144318936877085
2.4808133160570116,7.1443189368770845
2.4818100269111927,0.14431893687708452
2.482806737765374,-20.855681063122915
2.4838034486195553,-25.855681063122915
2.4848001594737363,-21.855681063122915
2.485796870327918,-19.855681063122915
2.486793581182099,-19.855681063122915
2.48779029203628,-28.855681063122915
2.488787002890461,-28.855681063122915
2.4897837137446426,-18.855681063122915
2.4907804245988237,-13.855681063122915
2.4917771354530047,-7.8556810631229155
2.4927738463071862,3.1443189368770845
2.4937705571613673,16.144318936877085
2.4947672680155484,26.144318936877085
2.4957639788697294,35.144318936877085
2.496760689723911,34.144318936877085
2.497757400578092,27.144318936877085
2.498754111432273,25.144318936877085
2.4997508222864546,18.144318936877085
2.5007475331406357,6.1443189368770845
2.5017442439948168,-1.8556810631229155
2.5027409548489983,-12.855681063122915
2.5037376657031793,-20.855681063122915
2.5047343765573604,-16.855681063122915
2.5057310874115415,-27.855681063122915
2.506727798265723,-22.855681063122915
2.507724509119904,-8.855681063122915
2.508721219974085,-10.855681063122915
2.5097179308282667,-23.855681063122915
2.5107146416824477,-26.855681063122915
2.511711352536629,-5.8556810631229155
2.51270806339081,0.14431893687708452
2.5137047742449914,22.144318936877085
2.5147014850991725,31.144318936877085
2.5156981959533535,29.144318936877085
2.516694906807535,29.144318936877085
2.517691617661716,29.144318936877085
2.518688328515897,16.144318936877085
2.5196850393700787,21.144318936877085
2.5206817502242598,8.144318936877085
2.521678461078441,-3.8556810631229155
2.522675171932622,0.14431893687708452
2.5236718827868034,-16.855681063122915
2.5246685936409845,-28.855681063122915
2.5256653044951656,-38.855681063122915
2.526662015349347,-37.855681063122915
2.527658726203528,-28.855681063122915
2.5286554370577092,-26.855681063122915
2.5296521479118907,-17.855681063122915
2.530648858766072,-8.855681063122915
2.531645569620253,6.1443189368770845
2.532642280474434,6.1443189368770845
2.5336389913286155,18.144318936877085
2.5346357021827965,30.144318936877085
2.5356324130369776,34.144318936877085
2.536629123891159,40.144318936877085
2.53762583474534,36.144318936877085
2.5386225455995213,29.144318936877085
2.5396192564537023,19.144318936877085
2.540615967307884,13.144318936877085
2.541612678162065,-0.8556810631229155
2.542609389016246,-15.855681063122915
2.5436060998704275,-28.855681063122915
2.5446028107246086,-26.855681063122915
2.5455995215787897,-29.855681063122915
2.546596232432971,-34.855681063122915
2.5475929432871522,-28.855681063122915
2.5485896541413333,-30.855681063122915
2.5495863649955144,-20.855681063122915
2.550583075849696,-9.855681063122915
2.551579786703877,-1.8556810631229155
2.552576497558058,9.144318936877085
2.5535732084122396,19.144318936877085
2.5545699192664206,18.144318936877085
2.5555666301206017,20.144318936877085
2.5565633409747828,44.144318936877085
2.5575600518289643,59.144318936877085
2.5585567626831454,47.144318936877085
2.5595534735373264,23.144318936877085
2.560550184391508,10.144318936877085
2.561546895245689,7.1443189368770845
2.56254360609987,-2.8556810631229155
2.5635403169540516,-30.855681063122915
2.5645370278082327,-42.855681063122915
2.5655337386624137,-41.855681063122915
2.566530449516595,-38.855681063122915
2.5675271603707763,-37.855681063122915
2.5685238712249574,-29.855681063122915
2.5695205820791385,-26.855681063122915
2.57051729293332,-8.855681063122915
2.571514003787501,1.1443189368770845
2.572510714641682,6.1443189368770845
2.573507425495863,30.144318936877085
2.5745041363500447,41.144318936877085
2.575500847204226,31.144318936877085
2.576497558058407,32.144318936877085
2.5774942689125884,30.144318936877085
2.5784909797667694,28.144318936877085
2.5794876906209505,13.144318936877085
2.580484401475132,1.1443189368770845
2.581481112329313,-2.8556810631229155
2.582477823183494,-5.8556810631229155
2.5834745340376752,-14.855681063122915
2.5844712448918568,-17.855681063122915
2.585467955746038,-23.855681063122915
2.586464666600219,-33.855681063122915
2.5874613774544004,-44.855681063122915
2.5884580883085815,-40.855681063122915
2.5894547991627626,-13.855681063122915
2.590451510016944,-5.8556810631229155
2.591448220871125,3.1443189368770845
2.592444931725306,6.1443189368770845
2.5934416425794873,17.144318936877085
2.594438353433669,23.144318936877085
2.59543506428785,20.144318936877085
2.596431775142031,29.144318936877085
2.5974284859962125,36.144318936877085
2.5984251968503935,31.144318936877085
2.5994219077045746,22.144318936877085
2.6004186185587557,12.144318936877085
2.601415329412937,8.144318936877085
2.6024120402671183,-1.8556810631229155
2.6034087511212993,-23.855681063122915
2.604405461975481,-26.855681063122915
2.605402172829662,-22.855681063122915
2.606398883683843,-38.855681063122915
2.6073955945380245,-37.855681063122915
2.6083923053922056,-37.855681063122915
2.6093890162463866,-22.855681063122915
2.6103857271005677,-8.855681063122915
2.6113824379547492,-7.8556810631229155
2.6123791488089303,4.1443189368770845
2.6133758596631114,29.144318936877085
2.614372570517293,25.144318936877085
2.615369281371474,32.144318936877085
2.616365992225655,37.144318936877085
2.617362703079836,42.144318936877085
2.6183594139340176,39.144318936877085
2.6193561247881987,22.144318936877085
2.6203528356423798,0.14431893687708452
2.6213495464965613,-9.855681063122915
2.6223462573507423,-6.8556810631229155
2.6233429682049234,-15.855681063122915
2.624339679059105,-30.855681063122915
2.625336389913286,-29.855681063122915
2.626333100767467,-37.855681063122915
2.627329811621648,-28.855681063122915
2.6283265224758297,-20.855681063122915
2.6293232333300107,-18.855681063122915
2.630319944184192,-16.855681063122915
2.6313166550383733,-6.8556810631229155
2.6323133658925544,3.1443189368770845
2.6333100767467355,25.144318936877085
2.6343067876009165,29.144318936877085
2.635303498455098,36.144318936877085
2.636300209309279,50.144318936877085
2.63729692016346,37.144318936877085
2.6382936310176417,18.144318936877085
2.6392903418718228,11.144318936877085
2.640287052726004,2.1443189368770845
2.6412837635801854,-2.8556810631229155
2.6422804744343664,9.144318936877085
2.6432771852885475,-0.8556810631229155
2.6442738961427286,-23.855681063122915
2.64527060699691,-33.855681063122915
2.646267317851091,-40.855681063122915
2.647264028705272,-40.855681063122915
2.6482607395594537,-35.855681063122915
2.649257450413635,-16.855681063122915
2.650254161267816,-4.8556810631229155
2.651250872121997,-0.8556810631229155
2.6522475829761785,6.1443189368770845
2.6532442938303595,20.144318936877085
2.6542410046845406,22.144318936877085
2.655237715538722,19.144318936877085
2.656234426392903,29.144318936877085
2.6572311372470843,41.144318936877085
2.6582278481012658,26.144318936877085
2.659224558955447,12.144318936877085
2.660221269809628,4.1443189368770845
2.661217980663809,12.144318936877085
2.6622146915179905,-0.8556810631229155
2.6632114023721716,-23.855681063122915
2.6642081132263526,-30.855681063122915
2.665204824080534,-27.855681063122915
2.6662015349347152,-26.855681063122915
2.6671982457888963,-26.855681063122915
2.668194956643078,-28.855681063122915
2.669191667497259,-24.855681063122915
2.67018837835144,-8.855681063122915
2.671185089205621,-4.8556810631229155
2.6721818000598025,-1.8556810631229155
2.6731785109139836,13.144318936877085
2.6741752217681647,28.144318936877085
2.675171932622346,35.144318936877085
2.6761686434765273,42.144318936877085
2.6771653543307083,38.144318936877085
2.6781620651848894,31.144318936877085
2.679158776039071,26.144318936877085
2.680155486893252,21.144318936877085
2.681152197747433,6.1443189368770845
2.6821489086016146,-6.8556810631229155
2.6831456194557957,-25.855681063122915
2.6841423303099767,-36.855681063122915
2.6851390411641582,-39.855681063122915
2.6861357520183393,-40.855681063122915
2.6871324628725204,-30.855681063122915
2.6881291737267015,-26.855681063122915
2.689125884580883,-16.855681063122915
2.690122595435064,-10.855681063122915
2.691119306289245,-7.8556810631229155
2.6921160171434266,-0.8556810631229155
2.6931127279976077,16.144318936877085
2.6941094388517888,37.144318936877085
2.69510614970597,27.144318936877085
2.6961028605601514,29.144318936877085
2.6970995714143324,33.144318936877085
2.6980962822685135,27.144318936877085
2.699092993122695,28.144318936877085
2.700089703976876,13.144318936877085
2.701086414831057,-2.8556810631229155
2.7020831256852387,-12.855681063122915
2.7030798365394197,-19.855681063122915
2.704076547393601,-27.855681063122915
2.705073258247782,-23.855681063122915
2.7060699691019634,-30.855681063122915
2.7070666799561445,-34.855681063122915
2.7080633908103255,-27.855681063122915
2.709060101664507,-23.855681063122915
2.710056812518688,-8.855681063122915
2.711053523372869,-1.8556810631229155
2.7120502342270503,4.1443189368770845
2.713046945081232,19.144318936877085
2.714043655935413,28.144318936877085
2.715040366789594,36.144318936877085
2.7160370776437754,35.144318936877085
2.7170337884979565,33.144318936877085
2.7180304993521376,31.144318936877085
2.719027210206319,19.144318936877085
2.7200239210605,5.1443189368770845
2.7210206319146812,-3.8556810631229155
2.7220173427688623,-6.8556810631229155
2.723014053623044,-23.855681063122915
2.724010764477225,-27.855681063122915
2.725007475331406,-20.855681063122915
2.7260041861855875,-23.855681063122915
2.7270008970397686,-28.855681063122915
2.7279976078939496,-30.855681063122915
2.7289943187481307,-24.855681063122915
2.729991029602312,-21.855681063122915
2.7309877404564933,-5.8556810631229155
2.7319844513106744,11.144318936877085
2.732981162164856,20.144318936877085
2.733977873019037,26.144318936877085
2.734974583873218,32.144318936877085
2.7359712947273995,43.144318936877085
2.7369680055815806,42.144318936877085
2.7379647164357617,36.144318936877085
2.7389614272899427,16.144318936877085
2.7399581381441243,4.1443189368770845
2.7409548489983053,1.1443189368770845
2.7419515598524864,-9.855681063122915
2.742948270706668,-31.855681063122915
2.743944981560849,-34.855681063122915
2.74494169241503,-30.855681063122915
2.7459384032692116,-29.855681063122915
2.7469351141233926,-24.855681063122915
2.7479318249775737,-19.855681063122915
2.748928535831755,-13.855681063122915
2.7499252466859363,-9.855681063122915
2.7509219575401174,-5.8556810631229155
2.7519186683942984,-5.8556810631229155
2.75291537924848,16.144318936877085
2.753912090102661,24.144318936877085
2.754908800956842,36.144318936877085
2.755905511811023,45.144318936877085
2.7569022226652047,37.144318936877085
2.7578989335193858,27.144318936877085
2.758895644373567,8.144318936877085
2.7598923552277483,7.1443189368770845
2.7608890660819294,2.1443189368770845
2.7618857769361105,-10.855681063122915
2.762882487790292,-25.855681063122915
2.763879198644473,-28.855681063122915
2.764875909498654,-17.855681063122915
2.765872620352835,-14.855681063122915
2.7668693312070167,-25.855681063122915
2.767866042061198,-34.855681063122915
2.768862752915379,-26.855681063122915
2.7698594637695604,-11.855681063122915
2.7708561746237415,-11.855681063122915
2.7718528854779225,-3.8556810631229155
2.7728495963321036,14.144318936877085
2.773846307186285,37.144318936877085
2.774843018040466,45.144318936877085
2.7758397288946473,49.144318936877085
2.7768364397488288,46.144318936877085
2.77783315060301,29.144318936877085
2.778829861457191,18.144318936877085
2.7798265723113724,3.1443189368770845
2.7808232831655535,-10.855681063122915
2.7818199940197346,-11.855681063122915
2.7828167048739156,-25.855681063122915
2.783813415728097,-27.855681063122915
2.7848101265822782,-23.855681063122915
2.7858068374364593,-24.855681063122915
2.786803548290641,-29.855681063122915
2.787800259144822,-33.855681063122915
2.788796969999003,-15.855681063122915
2.789793680853184,-14.855681063122915
2.7907903917073655,-14.855681063122915
2.7917871025615466,-0.8556810631229155
2.7927838134157277,25.144318936877085
2.793780524269909,34.144318936877085
2.7947772351240903,35.144318936877085
2.7957739459782713,29.144318936877085
2.796770656832453,32.144318936877085
2.797767367686634,32.144318936877085
2.798764078540815,23.144318936877085
2.799760789394996,16.144318936877085
2.8007575002491776,1.1443189368770845
2.8017542111033586,-6.8556810631229155
2.8027509219575397,-23.855681063122915
2.8037476328117212,-39.855681063122915
2.8047443436659023,-26.855681063122915
2.8057410545200834,-28.855681063122915
2.8067377653742644,-36.855681063122915
2.807734476228446,-35.855681063122915
2.808731187082627,-19.855681063122915
2.809727897936808,1.1443189368770845
2.8107246087909896,5.1443189368770845
2.8117213196451707,8.144318936877085
2.8127180304993518,29.144318936877085
2.8137147413535333,26.144318936877085
2.8147114522077143,21.144318936877085
2.8157081630618954,24.144318936877085
2.8167048739160765,25.144318936877085
2.817701584770258,24.144318936877085
2.818698295624439,14.144318936877085
2.81969500647862,3.1443189368770845
2.8206917173328017,4.1443189368770845
2.8216884281869827,1.1443189368770845
2.822685139041164,-25.855681063122915
2.8236818498953453,-37.855681063122915
2.8246785607495264,-31.855681063122915
2.8256752716037075,-25.855681063122915
2.8266719824578885,-25.855681063122915
2.82766869331207,-28.855681063122915
2.828665404166251,-21.855681063122915
2.829662115020432,-22.855681063122915
2.8306588258746137,-3.8556810631229155
2.8316555367287948,24.144318936877085
2.832652247582976,43.144318936877085
2.833648958437157,42.144318936877085
2.8346456692913384,32.144318936877085
2.8356423801455195,34.144318936877085
2.8366390909997006,44.144318936877085
2.837635801853882,41.144318936877085
2.838632512708063,20.144318936877085
2.8396292235622442,4.1443189368770845
2.8406259344164257,-7.8556810631229155
2.841622645270607,-18.855681063122915
2.842619356124788,-39.855681063122915
2.843616066978969,-42.855681063122915
2.8446127778331505,-31.855681063122915
2.8456094886873315,-25.855681063122915
2.8466061995415126,-26.855681063122915
2.847602910395694,-15.855681063122915
2.848599621249875,-6.8556810631229155
2.8495963321040563,-8.855681063122915
2.8505930429582373,-5.8556810631229155
2.851589753812419,7.1443189368770845
2.8525864646666,22.144318936877085
2.853583175520781,17.144318936877085
2.8545798863749625,23.144318936877085
2.8555765972291436,29.144318936877085
2.8565733080833247,30.144318936877085
2.857570018937506,27.144318936877085
2.8585667297916872,14.144318936877085
2.8595634406458683,3.1443189368770845
2.8605601515000494,7.1443189368770845
2.861556862354231,5.1443189368770845
2.862553573208412,-16.855681063122915
2.863550284062593,-32.855681063122915
2.8645469949167746,-44.855681063122915
2.8655437057709556,-41.855681063122915
2.8665404166251367,-33.855681063122915
2.8675371274793178,-21.855681063122915
2.8685338383334993,-9.855681063122915
2.8695305491876804,-0.8556810631229155
2.8705272600418614,-0.8556810631229155
2.871523970896043,10.144318936877085
2.872520681750224,22.144318936877085
2.873517392604405,25.144318936877085
2.8745141034585866,28.144318936877085
2.8755108143127677,28.144318936877085
2.8765075251669487,31.144318936877085
2.87750423602113,25.144318936877085
2.8785009468753113,23.144318936877085
2.8794976577294924,23.144318936877085
2.8804943685836735,7.1443189368770845
2.881491079437855,-2.8556810631229155
2.882487790292036,-22.855681063122915
2.883484501146217,-34.855681063122915
2.8844812120003986,-40.855681063122915
2.8854779228545797,-44.855681063122915
2.886474633708761,-46.855681063122915
2.887471344562942,-38.855681063122915
2.8884680554171234,-15.855681063122915
2.8894647662713044,-6.8556810631229155
2.8904614771254855,0.14431893687708452
2.891458187979667,19.144318936877085
2.892454898833848,38.144318936877085
2.893451609688029,40.144318936877085
2.8944483205422102,33.144318936877085
2.8954450313963918,26.144318936877085
2.896441742250573,39.144318936877085
2.897438453104754,22.144318936877085
2.8984351639589354,11.144318936877085
2.8994318748131165,-2.8556810631229155
2.9004285856672976,-1.8556810631229155
2.901425296521479,2.1443189368770845
2.90242200737566,-21.855681063122915
2.903418718229841,-35.855681063122915
2.9044154290840223,-44.855681063122915
2.905412139938204,-47.855681063122915
2.906408850792385,-43.855681063122915
2.907405561646566,-34.855681063122915
2.9084022725007475,-12.855681063122915
2.9093989833549285,12.144318936877085
2.9103956942091096,32.144318936877085
2.9113924050632907,44.144318936877085
2.912389115917472,36.144318936877085
2.9133858267716533,27.144318936877085
2.9143825376258343,28.144318936877085
2.915379248480016,38.144318936877085
2.916375959334197,25.144318936877085
2.917372670188378,13.144318936877085
2.9183693810425595,6.1443189368770845
2.9193660918967406,4.1443189368770845
2.9203628027509216,-6.8556810631229155
2.9213595136051027,-10.855681063122915
2.9223562244592842,-18.855681063122915
2.9233529353134653,-28.855681063122915
2.9243496461676464,-34.855681063122915
2.925346357021828,-25.855681063122915
2.926343067876009,-22.855681063122915
2.92733977873019,-18.855681063122915
2.928336489584371,-20.855681063122915
2.9293332004385526,-18.855681063122915
2.9303299112927337,-3.8556810631229155
2.9313266221469148,3.1443189368770845
2.9323233330010963,11.144318936877085
2.9333200438552773,20.144318936877085
2.9343167547094584,20.144318936877085
2.93531346556364,28.144318936877085
2.936310176417821,33.144318936877085
2.937306887272002,35.144318936877085
2.938303598126183,40.144318936877085
2.9393003089803647,7.1443189368770845
2.9402970198345457,1.1443189368770845
2.941293730688727,-4.8556810631229155
2.9422904415429083,-30.855681063122915
2.9432871523970894,-40.855681063122915
2.9442838632512704,-36.855681063122915
2.9452805741054515,-33.855681063122915
2.946277284959633,-14.855681063122915
2.947273995813814,6.1443189368770845
2.948270706667995,12.144318936877085
2.9492674175221767,4.1443189368770845
2.9502641283763578,-4.8556810631229155
2.951260839230539,-16.855681063122915
2.9522575500847204,7.1443189368770845
2.9532542609389014,16.144318936877085
2.9542509717930825,20.144318936877085
2.9552476826472636,24.144318936877085
2.956244393501445,40.144318936877085
2.957241104355626,25.144318936877085
2.958237815209807,3.1443189368770845
2.9592345260639887,-13.855681063122915
2.96023123691817,-14.855681063122915
2.961227947772351,-25.855681063122915
2.9622246586265324,-39.855681063122915
2.9632213694807135,-4.8556810631229155
2.9642180803348945,4.1443189368770845
2.9652147911890756,-9.855681063122915
2.966211502043257,-33.855681063122915
2.967208212897438,8.144318936877085
2.9682049237516193,37.144318936877085
2.9692016346058008,17.144318936877085
2.970198345459982,-33.855681063122915
2.971195056314163,-41.855681063122915
2.972191767168344,-78.85568106312292
2.9731884780225255,-31.855681063122915
2.9741851888767066,-2.8556810631229155
2.9751818997308876,29.144318936877085
2.976178610585069,88.14431893687708
2.9771753214392502,125.14431893687708
2.9781720322934313,91.14431893687708
2.979168743147613,49.144318936877085
2.980165454001794,3.1443189368770845
2.981162164855975,-29.855681063122915
2.982158875710156,-58.855681063122915
2.9831555865643375,-34.855681063122915
2.9841522974185186,-31.855681063122915
2.9851490082726997,-36.855681063122915
2.986145719126881,-39.855681063122915
2.9871424299810623,-38.855681063122915
2.9881391408352433,-47.855681063122915
2.9891358516894244,-22.855681063122915
2.990132562543606,0.14431893687708452
2.991129273397787,26.144318936877085
2.992125984251968,57.144318936877085
2.9931226951061496,92.14431893687708
2.9941194059603307,65.14431893687708
2.9951161168145117,32.144318936877085
2.9961128276686932,3.1443189368770845
2.9971095385228743,12.144318936877085
2.9981062493770554,3.1443189368770845
2.9991029602312365,-14.855681063122915
3.000099671085418,-17.855681063122915
3.001096381939599,-17.855681063122915
3.00209309279378,-40.855681063122915
3.0030898036479616,-42.855681063122915
3.0040865145021427,-21.855681063122915
3.0050832253563238,-39.855681063122915
3.006079936210505,-49.855681063122915
3.0070766470646864,-49.855681063122915
3.0080733579188674,-45.855681063122915
3.0090700687730485,-17.855681063122915
3.01006677962723,16.144318936877085
3.011063490481411,41.144318936877085
3.012060201335592,55.144318936877085
3.0130569121897737,33.144318936877085
3.0140536230439547,20.144318936877085
3.015050333898136,17.144318936877085
3.016047044752317,30.144318936877085
3.0170437556064984,30.144318936877085
3.0180404664606795,1.1443189368770845
3.0190371773148605,-7.8556810631229155
3.020033888169042,3.1443189368770845
3.021030599023223,9.144318936877085
3.022027309877404,5.1443189368770845
3.0230240207315853,-28.855681063122915
3.024020731585767,-25.855681063122915
3.025017442439948,-41.855681063122915
3.026014153294129,-51.855681063122915
3.0270108641483104,-34.855681063122915
3.0280075750024915,-44.855681063122915
3.0290042858566726,30.144318936877085
3.030000996710854,69.14431893687708
3.030997707565035,38.144318936877085
3.0319944184192162,34.144318936877085
3.0329911292733973,-4.8556810631229155
3.033987840127579,-3.8556810631229155
3.03498455098176,42.144318936877085
3.035981261835941,50.144318936877085
3.0369779726901225,24.144318936877085
3.0379746835443036,-8.855681063122915
3.0389713943984846,6.1443189368770845
3.039968105252666,-2.8556810631229155
3.040964816106847,-28.855681063122915
3.0419615269610283,-5.8556810631229155
3.0429582378152094,-16.855681063122915
3.043954948669391,-45.855681063122915
3.044951659523572,-36.855681063122915
3.045948370377753,-47.855681063122915
3.0469450812319345,-41.855681063122915
3.0479417920861156,-15.855681063122915
3.0489385029402967,33.144318936877085
3.0499352137944777,-9.855681063122915
3.0509319246486593,-18.855681063122915
3.0519286355028403,22.144318936877085
3.0529253463570214,46.144318936877085
3.053922057211203,17.144318936877085
3.054918768065384,70.14431893687708
3.055915478919565,91.14431893687708
3.0569121897737466,72.14431893687708
3.0579089006279276,8.144318936877085
3.0589056114821087,-7.8556810631229155
3.05990232233629,-26.855681063122915
3.0608990331904713,-36.855681063122915
3.0618957440446524,-55.855681063122915
3.0628924548988334,-37.855681063122915
3.063889165753015,-39.855681063122915
3.064885876607196,-25.855681063122915
3.065882587461377,-33.855681063122915
3.066879298315558,-43.855681063122915
3.0678760091697397,-33.855681063122915
3.0688727200239208,-25.855681063122915
3.069869430878102,-18.855681063122915
3.0708661417322833,5.1443189368770845
3.0718628525864644,16.144318936877085
3.0728595634406455,84.14431893687708
3.073856274294827,95.14431893687708
3.074852985149008,65.14431893687708
3.075849696003189,43.144318936877085
3.07684640685737,52.144318936877085
3.0778431177115517,29.144318936877085
3.078839828565733,5.1443189368770845
3.079836539419914,-29.855681063122915
3.0808332502740954,-19.855681063122915
3.0818299611282765,17.144318936877085
3.0828266719824575,-25.855681063122915
3.0838233828366386,-31.855681063122915
3.08482009369082,-23.855681063122915
3.085816804545001,-40.855681063122915
3.0868135153991823,-68.85568106312292
3.0878102262533638,-50.855681063122915
3.088806937107545,-7.8556810631229155
3.089803647961726,50.144318936877085
3.0908003588159074,23.144318936877085
3.0917970696700885,31.144318936877085
3.0927937805242696,5.1443189368770845
3.0937904913784506,23.144318936877085
3.094787202232632,59.144318936877085
3.095783913086813,35.144318936877085
3.0967806239409943,-11.855681063122915
3.097777334795176,-57.855681063122915
3.098774045649357,-68.85568106312292
3.099770756503538,-56.855681063122915
3.1007674673577195,-19.855681063122915
3.1017641782119005,1.1443189368770845
3.1027608890660816,-48.855681063122915
3.1037575999202627,-52.855681063122915
3.104754310774444,-18.855681063122915
3.1057510216286253,41.144318936877085
3.1067477324828063,52.144318936877085
3.107744443336988,65.14431893687708
3.108741154191169,39.144318936877085
3.10973786504535,-3.8556810631229155
3.110734575899531,-26.855681063122915
3.1117312867537126,-15.855681063122915
3.1127279976078936,7.1443189368770845
3.1137247084620747,-15.855681063122915
3.1147214193162562,19.144318936877085
3.1157181301704373,48.144318936877085
3.1167148410246184,70.14431893687708
3.1177115518788,57.144318936877085
3.118708262732981,107.14431893687708
3.119704973587162,-26.855681063122915
3.120701684441343,-90.85568106312292
3.1216983952955246,-46.855681063122915
3.1226951061497057,-87.85568106312292
