Time,EMG
0.0,509.09929488877117
0.0009931308449888272,508.09929488877117
0.0019862616899776545,508.09929488877117
0.0029793925349664817,346.09929488877117
0.003972523379955309,-513.9007051112288
0.004965654224944136,-513.9007051112288
0.005958785069932963,-513.9007051112288
0.006951915914921791,-513.9007051112288
0.007945046759910618,-513.9007051112288
0.008938177604899445,-513.9007051112288
0.009931308449888272,-513.9007051112288
0.0109244392948771,-513.9007051112288
0.011917570139865927,-513.9007051112288
0.012910700984854754,-466.90070511122883
0.013903831829843581,508.09929488877117
0.014896962674832408,509.09929488877117
0.015890093519821236,508.09929488877117
0.016883224364810063,508.09929488877117
0.01787635520979889,508.09929488877117
0.018869486054787717,508.09929488877117
0.019862616899776545,509.09929488877117
0.020855747744765372,509.09929488877117
0.0218488785897542,508.09929488877117
0.022842009434743026,374.09929488877117
0.023835140279731853,-513.9007051112288
0.02482827112472068,-513.9007051112288
0.025821401969709508,-513.9007051112288
0.026814532814698335,-513.9007051112288
0.027807663659687162,-513.9007051112288
0.02880079450467599,-513.9007051112288
0.029793925349664817,-513.9007051112288
0.030787056194653644,-513.9007051112288
0.03178018703964247,-513.9007051112288
0.032773317884631295,-460.90070511122883
0.033766448729620126,508.09929488877117
0.034759579574608956,509.09929488877117
0.03575271041959778,508.09929488877117
0.036745841264586604,508.09929488877117
0.037738972109575435,508.09929488877117
0.038732102954564265,508.09929488877117
0.03972523379955309,509.09929488877117
0.04071836464454191,508.09929488877117
0.041711495489530744,508.09929488877117
0.042704626334519574,322.09929488877117
0.0436977571795084,-513.9007051112288
0.04469088802449722,-513.9007051112288
0.04568401886948605,-513.9007051112288
0.04667714971447488,-513.9007051112288
0.04767028055946371,-513.9007051112288
0.04866341140445253,-513.9007051112288
0.04965654224944136,-513.9007051112288
0.05064967309443019,-513.9007051112288
0.051642803939419016,-513.9007051112288
0.05263593478440784,-456.90070511122883
0.05362906562939667,508.09929488877117
0.0546221964743855,509.09929488877117
0.055615327319374325,508.09929488877117
0.05660845816436315,508.09929488877117
0.05760158900935198,509.09929488877117
0.05859471985434081,508.09929488877117
0.059587850699329634,509.09929488877117
0.06058098154431846,508.09929488877117
0.06157411238930729,508.09929488877117
0.06256724323429612,303.09929488877117
0.06356037407928494,-513.9007051112288
0.06455350492427377,-513.9007051112288
0.06554663576926259,-513.9007051112288
0.06653976661425143,-513.9007051112288
0.06753289745924025,-513.9007051112288
0.06852602830422908,-513.9007051112288
0.06951915914921791,-513.9007051112288
0.07051228999420674,-513.9007051112288
0.07150542083919556,-513.9007051112288
0.07249855168418438,-448.90070511122883
0.07349168252917321,508.09929488877117
0.07448481337416205,509.09929488877117
0.07547794421915087,508.09929488877117
0.07647107506413969,508.09929488877117
0.07746420590912853,508.09929488877117
0.07845733675411735,508.09929488877117
0.07945046759910618,509.09929488877117
0.080443598444095,508.09929488877117
0.08143672928908383,508.09929488877117
0.08242986013407266,338.09929488877117
0.08342299097906149,-513.9007051112288
0.08441612182405031,-513.9007051112288
0.08540925266903915,-513.9007051112288
0.08640238351402797,-513.9007051112288
0.0873955143590168,-513.9007051112288
0.08838864520400562,-513.9007051112288
0.08938177604899444,-513.9007051112288
0.09037490689398328,-513.9007051112288
0.0913680377389721,-513.9007051112288
0.09236116858396093,-430.90070511122883
0.09335429942894977,508.09929488877117
0.09434743027393859,509.09929488877117
0.09534056111892741,509.09929488877117
0.09633369196391624,508.09929488877117
0.09732682280890506,509.09929488877117
0.0983199536538939,508.09929488877117
0.09931308449888272,509.09929488877117
0.10030621534387155,508.09929488877117
0.10129934618886038,508.09929488877117
0.10229247703384921,314.09929488877117
0.10328560787883803,-513.9007051112288
0.10427873872382686,-513.9007051112288
0.10527186956881568,-513.9007051112288
0.10626500041380452,-513.9007051112288
0.10725813125879334,-513.9007051112288
0.10825126210378216,-513.9007051112288
0.109244392948771,-513.9007051112288
0.11023752379375983,-513.9007051112288
0.11123065463874865,-513.9007051112288
0.11222378548373747,-476.90070511122883
0.1132169163287263,508.09929488877117
0.11421004717371513,509.09929488877117
0.11520317801870396,508.09929488877117
0.11619630886369278,508.09929488877117
0.11718943970868162,509.09929488877117
0.11818257055367044,508.09929488877117
0.11917570139865927,509.09929488877117
0.12016883224364809,508.09929488877117
0.12116196308863691,508.09929488877117
0.12215509393362575,311.09929488877117
0.12314822477861458,-513.9007051112288
0.1241413556236034,-513.9007051112288
0.12513448646859224,-513.9007051112288
0.12612761731358105,-513.9007051112288
0.12712074815856989,-513.9007051112288
0.12811387900355872,-513.9007051112288
0.12910700984854753,-513.9007051112288
0.13010014069353637,-513.9007051112288
0.13109327153852518,-513.9007051112288
0.13208640238351402,-400.90070511122883
0.13307953322850286,508.09929488877117
0.13407266407349167,509.09929488877117
0.1350657949184805,508.09929488877117
0.13605892576346934,508.09929488877117
0.13705205660845815,508.09929488877117
0.138045187453447,508.09929488877117
0.13903831829843583,509.09929488877117
0.14003144914342464,509.09929488877117
0.14102457998841347,508.09929488877117
0.14201771083340228,367.09929488877117
0.14301084167839112,-513.9007051112288
0.14400397252337996,-513.9007051112288
0.14499710336836877,-513.9007051112288
0.1459902342133576,-513.9007051112288
0.14698336505834642,-513.9007051112288
0.14797649590333525,-513.9007051112288
0.1489696267483241,-513.9007051112288
0.1499627575933129,-513.9007051112288
0.15095588843830174,-513.9007051112288
0.15194901928329058,-385.90070511122883
0.15294215012827939,508.09929488877117
0.15393528097326822,509.09929488877117
0.15492841181825706,508.09929488877117
0.15592154266324587,508.09929488877117
0.1569146735082347,509.09929488877117
0.15790780435322352,508.09929488877117
0.15890093519821236,509.09929488877117
0.1598940660432012,508.09929488877117
0.16088719688819,508.09929488877117
0.16188032773317884,273.09929488877117
0.16287345857816765,-513.9007051112288
0.1638665894231565,-513.9007051112288
0.16485972026814533,-513.9007051112288
0.16585285111313414,-513.9007051112288
0.16684598195812297,-513.9007051112288
0.1678391128031118,-513.9007051112288
0.16883224364810062,-513.9007051112288
0.16982537449308946,-513.9007051112288
0.1708185053380783,-513.9007051112288
0.1718116361830671,-373.90070511122883
0.17280476702805594,508.09929488877117
0.17379789787304475,509.09929488877117
0.1747910287180336,508.09929488877117
0.17578415956302243,508.09929488877117
0.17677729040801124,509.09929488877117
0.17777042125300008,508.09929488877117
0.1787635520979889,509.09929488877117
0.17975668294297772,508.09929488877117
0.18074981378796656,508.09929488877117
0.18174294463295537,287.09929488877117
0.1827360754779442,-513.9007051112288
0.18372920632293305,-513.9007051112288
0.18472233716792186,-513.9007051112288
0.1857154680129107,-513.9007051112288
0.18670859885789953,-513.9007051112288
0.18770172970288834,-513.9007051112288
0.18869486054787718,-513.9007051112288
0.189687991392866,-513.9007051112288
0.19068112223785483,-513.9007051112288
0.19167425308284367,-377.90070511122883
0.19266738392783248,508.09929488877117
0.1936605147728213,509.09929488877117
0.19465364561781012,509.09929488877117
0.19564677646279896,508.09929488877117
0.1966399073077878,509.09929488877117
0.1976330381527766,508.09929488877117
0.19862616899776545,509.09929488877117
0.19961929984275428,508.09929488877117
0.2006124306877431,508.09929488877117
0.20160556153273193,288.09929488877117
0.20259869237772077,-513.9007051112288
0.20359182322270958,-513.9007051112288
0.20458495406769842,-513.9007051112288
0.20557808491268723,-513.9007051112288
0.20657121575767606,-513.9007051112288
0.2075643466026649,-513.9007051112288
0.2085574774476537,-513.9007051112288
0.20955060829264255,-513.9007051112288
0.21054373913763136,-513.9007051112288
0.2115368699826202,-399.90070511122883
0.21253000082760903,508.09929488877117
0.21352313167259784,509.09929488877117
0.21451626251758668,508.09929488877117
0.21550939336257552,508.09929488877117
0.21650252420756433,508.09929488877117
0.21749565505255317,508.09929488877117
0.218488785897542,509.09929488877117
0.2194819167425308,509.09929488877117
0.22047504758751965,508.09929488877117
0.22146817843250846,302.09929488877117
0.2224613092774973,-513.9007051112288
0.22345444012248614,-513.9007051112288
0.22444757096747495,-513.9007051112288
0.22544070181246378,-513.9007051112288
0.2264338326574526,-513.9007051112288
0.22742696350244143,-513.9007051112288
0.22842009434743027,-513.9007051112288
0.22941322519241908,-513.9007051112288
0.23040635603740792,-513.9007051112288
0.23139948688239675,-380.90070511122883
0.23239261772738556,508.09929488877117
0.2333857485723744,509.09929488877117
0.23437887941736324,508.09929488877117
0.23537201026235205,508.09929488877117
0.2363651411073409,508.09929488877117
0.2373582719523297,508.09929488877117
0.23835140279731853,509.09929488877117
0.23934453364230737,508.09929488877117
0.24033766448729618,508.09929488877117
0.24133079533228502,263.09929488877117
0.24232392617727383,-513.9007051112288
0.24331705702226267,-513.9007051112288
0.2443101878672515,-513.9007051112288
0.24530331871224031,-513.9007051112288
0.24629644955722915,-513.9007051112288
0.247289580402218,-513.9007051112288
0.2482827112472068,-513.9007051112288
0.24927584209219564,-513.9007051112288
0.2502689729371845,-513.9007051112288
0.2512621037821733,-359.90070511122883
0.2522552346271621,508.09929488877117
0.25324836547215096,509.09929488877117
0.25424149631713977,508.09929488877117
0.2552346271621286,508.09929488877117
0.25622775800711745,509.09929488877117
0.25722088885210626,508.09929488877117
0.25821401969709507,509.09929488877117
0.25920715054208393,508.09929488877117
0.26020028138707274,508.09929488877117
0.26119341223206155,258.09929488877117
0.26218654307705036,-513.9007051112288
0.2631796739220392,-493.90070511122883
0.26417280476702804,-513.9007051112288
0.26516593561201685,-513.9007051112288
0.2661590664570057,-513.9007051112288
0.2671521973019945,-513.9007051112288
0.26814532814698333,-513.9007051112288
0.2691384589919722,-513.9007051112288
0.270131589836961,-513.9007051112288
0.2711247206819498,-351.90070511122883
0.2721178515269387,508.09929488877117
0.2731109823719275,509.09929488877117
0.2741041132169163,508.09929488877117
0.27509724406190517,508.09929488877117
0.276090374906894,509.09929488877117
0.2770835057518828,508.09929488877117
0.27807663659687165,509.09929488877117
0.27906976744186046,508.09929488877117
0.28006289828684927,508.09929488877117
0.2810560291318381,256.09929488877117
0.28204915997682695,-513.9007051112288
0.28304229082181576,-513.9007051112288
0.28403542166680457,-513.9007051112288
0.28502855251179343,-513.9007051112288
0.28602168335678224,-513.9007051112288
0.28701481420177105,-513.9007051112288
0.2880079450467599,-513.9007051112288
0.2890010758917487,-513.9007051112288
0.28999420673673754,-513.9007051112288
0.2909873375817264,-346.90070511122883
0.2919804684267152,508.09929488877117
0.292973599271704,509.09929488877117
0.29396673011669283,509.09929488877117
0.2949598609616817,508.09929488877117
0.2959529918066705,508.09929488877117
0.2969461226516593,508.09929488877117
0.2979392534966482,509.09929488877117
0.298932384341637,508.09929488877117
0.2999255151866258,508.09929488877117
0.30091864603161467,258.09929488877117
0.3019117768766035,-513.9007051112288
0.3029049077215923,-513.9007051112288
0.30389803856658115,-513.9007051112288
0.30489116941156996,-513.9007051112288
0.30588430025655877,-513.9007051112288
0.30687743110154764,-513.9007051112288
0.30787056194653645,-513.9007051112288
0.30886369279152526,-513.9007051112288
0.3098568236365141,-513.9007051112288
0.31084995448150293,-334.90070511122883
0.31184308532649174,508.09929488877117
0.31283621617148055,509.09929488877117
0.3138293470164694,508.09929488877117
0.3148224778614582,508.09929488877117
0.31581560870644704,508.09929488877117
0.3168087395514359,508.09929488877117
0.3178018703964247,509.09929488877117
0.3187950012414135,509.09929488877117
0.3197881320864024,508.09929488877117
0.3207812629313912,235.09929488877117
0.32177439377638,-513.9007051112288
0.3227675246213689,-513.9007051112288
0.3237606554663577,-513.9007051112288
0.3247537863113465,-513.9007051112288
0.3257469171563353,-513.9007051112288
0.32674004800132417,-513.9007051112288
0.327733178846313,-513.9007051112288
0.3287263096913018,-513.9007051112288
0.32971944053629065,-513.9007051112288
0.33071257138127946,-323.90070511122883
0.3317057022262683,508.09929488877117
0.33269883307125714,509.09929488877117
0.33369196391624595,508.09929488877117
0.33468509476123476,508.09929488877117
0.3356782256062236,508.09929488877117
0.33667135645121243,508.09929488877117
0.33766448729620124,509.09929488877117
0.3386576181411901,508.09929488877117
0.3396507489861789,508.09929488877117
0.34064387983116773,308.09929488877117
0.3416370106761566,-513.9007051112288
0.3426301415211454,-513.9007051112288
0.3436232723661342,-513.9007051112288
0.344616403211123,-513.9007051112288
0.3456095340561119,-513.9007051112288
0.3466026649011007,-513.9007051112288
0.3475957957460895,-513.9007051112288
0.3485889265910784,-513.9007051112288
0.3495820574360672,-513.9007051112288
0.350575188281056,-317.90070511122883
0.35156831912604486,508.09929488877117
0.35256144997103367,509.09929488877117
0.3535545808160225,508.09929488877117
0.35454771166101134,508.09929488877117
0.35554084250600015,508.09929488877117
0.35653397335098896,508.09929488877117
0.3575271041959778,509.09929488877117
0.35852023504096664,508.09929488877117
0.35951336588595545,508.09929488877117
0.36050649673094426,222.09929488877117
0.3614996275759331,-513.9007051112288
0.36249275842092193,-469.90070511122883
0.36348588926591074,-513.9007051112288
0.3644790201108996,-513.9007051112288
0.3654721509558884,-513.9007051112288
0.36646528180087723,-513.9007051112288
0.3674584126458661,-513.9007051112288
0.3684515434908549,-513.9007051112288
0.3694446743358437,-513.9007051112288
0.3704378051808326,-268.90070511122883
0.3714309360258214,508.09929488877117
0.3724240668708102,509.09929488877117
0.37341719771579907,508.09929488877117
0.3744103285607879,508.09929488877117
0.3754034594057767,509.09929488877117
0.3763965902507655,508.09929488877117
0.37738972109575436,509.09929488877117
0.37838285194074317,508.09929488877117
0.379375982785732,508.09929488877117
0.38036911363072085,226.09929488877117
0.38136224447570966,-513.9007051112288
0.38235537532069847,-513.9007051112288
0.38334850616568733,-513.9007051112288
0.38434163701067614,-513.9007051112288
0.38533476785566495,-513.9007051112288
0.3863278987006538,-513.9007051112288
0.3873210295456426,-513.9007051112288
0.38831416039063144,-513.9007051112288
0.38930729123562025,-513.9007051112288
0.3903004220806091,-300.90070511122883
0.3912935529255979,508.09929488877117
0.39228668377058673,509.09929488877117
0.3932798146155756,508.09929488877117
0.3942729454605644,508.09929488877117
0.3952660763055532,509.09929488877117
0.3962592071505421,508.09929488877117
0.3972523379955309,509.09929488877117
0.3982454688405197,508.09929488877117
0.39923859968550857,508.09929488877117
0.4002317305304974,205.09929488877117
0.4012248613754862,-513.9007051112288
0.40221799222047505,-478.90070511122883
0.40321112306546386,-513.9007051112288
0.40420425391045267,-513.9007051112288
0.40519738475544154,-513.9007051112288
0.40619051560043035,-513.9007051112288
0.40718364644541916,-513.9007051112288
0.40817677729040797,-513.9007051112288
0.40916990813539683,-513.9007051112288
0.41016303898038564,-305.90070511122883
0.41115616982537445,508.09929488877117
0.4121493006703633,509.09929488877117
0.4131424315153521,508.09929488877117
0.41413556236034094,508.09929488877117
0.4151286932053298,508.09929488877117
0.4161218240503186,508.09929488877117
0.4171149548953074,509.09929488877117
0.4181080857402963,509.09929488877117
0.4191012165852851,508.09929488877117
0.4200943474302739,188.09929488877117
0.4210874782752627,-513.9007051112288
0.4220806091202516,-513.9007051112288
0.4230737399652404,-513.9007051112288
0.4240668708102292,-513.9007051112288
0.42506000165521807,-513.9007051112288
0.4260531325002069,-513.9007051112288
0.4270462633451957,-513.9007051112288
0.42803939419018455,-513.9007051112288
0.42903252503517336,-513.9007051112288
0.43002565588016217,-266.90070511122883
0.43101878672515104,508.09929488877117
0.43201191757013985,509.09929488877117
0.43300504841512866,508.09929488877117
0.4339981792601175,508.09929488877117
0.43499131010510633,508.09929488877117
0.43598444095009514,508.09929488877117
0.436977571795084,509.09929488877117
0.4379707026400728,508.09929488877117
0.4389638334850616,508.09929488877117
0.43995696433005044,182.09929488877117
0.4409500951750393,-513.9007051112288
0.4419432260200281,-469.90070511122883
0.4429363568650169,-513.9007051112288
0.4439294877100058,-513.9007051112288
0.4449226185549946,-513.9007051112288
0.4459157493999834,-513.9007051112288
0.4469088802449723,-513.9007051112288
0.4479020110899611,-513.9007051112288
0.4488951419349499,-513.9007051112288
0.44988827277993876,-263.90070511122883
0.45088140362492757,508.09929488877117
0.4518745344699164,509.09929488877117
0.4528676653149052,508.09929488877117
0.45386079615989405,508.09929488877117
0.45485392700488286,509.09929488877117
0.4558470578498717,508.09929488877117
0.45684018869486054,509.09929488877117
0.45783331953984935,508.09929488877117
0.45882645038483816,508.09929488877117
0.459819581229827,180.09929488877117
0.46081271207481583,-513.9007051112288
0.46180584291980464,-453.90070511122883
0.4627989737647935,-513.9007051112288
0.4637921046097823,-513.9007051112288
0.46478523545477113,-513.9007051112288
0.46577836629976,-513.9007051112288
0.4667714971447488,-513.9007051112288
0.4677646279897376,-513.9007051112288
0.4687577588347265,-513.9007051112288
0.4697508896797153,-243.90070511122883
0.4707440205247041,508.09929488877117
0.4717371513696929,509.09929488877117
0.4727302822146818,508.09929488877117
0.4737234130596706,508.09929488877117
0.4747165439046594,509.09929488877117
0.47570967474964826,508.09929488877117
0.47670280559463707,509.09929488877117
0.4776959364396259,508.09929488877117
0.47868906728461474,508.09929488877117
0.47968219812960355,192.09929488877117
0.48067532897459236,-513.9007051112288
0.48166845981958123,-484.90070511122883
0.48266159066457004,-513.9007051112288
0.48365472150955885,-513.9007051112288
0.48464785235454766,-513.9007051112288
0.4856409831995365,-513.9007051112288
0.48663411404452533,-513.9007051112288
0.48762724488951414,-513.9007051112288
0.488620375734503,-513.9007051112288
0.4896135065794918,-254.90070511122883
0.49060663742448063,508.09929488877117
0.4915997682694695,509.09929488877117
0.4925928991144583,508.09929488877117
0.4935860299594471,508.09929488877117
0.494579160804436,508.09929488877117
0.4955722916494248,508.09929488877117
0.4965654224944136,509.09929488877117
0.49755855333940247,508.09929488877117
0.4985516841843913,508.09929488877117
0.4995448150293801,199.09929488877117
0.500537945874369,-513.9007051112288
0.5015310767193577,-479.90070511122883
0.5025242075643466,-513.9007051112288
0.5035173384093354,-513.9007051112288
0.5045104692543242,-513.9007051112288
0.505503600099313,-513.9007051112288
0.5064967309443019,-513.9007051112288
0.5074898617892907,-513.9007051112288
0.5084829926342795,-513.9007051112288
0.5094761234792684,-247.90070511122883
0.5104692543242572,508.09929488877117
0.511462385169246,509.09929488877117
0.5124555160142349,509.09929488877117
0.5134486468592236,508.09929488877117
0.5144417777042125,508.09929488877117
0.5154349085492014,508.09929488877117
0.5164280393941901,509.09929488877117
0.517421170239179,509.09929488877117
0.5184143010841679,508.09929488877117
0.5194074319291566,200.09929488877117
0.5204005627741455,-513.9007051112288
0.5213936936191343,-485.90070511122883
0.5223868244641231,-513.9007051112288
0.523379955309112,-513.9007051112288
0.5243730861541007,-513.9007051112288
0.5253662169990896,-513.9007051112288
0.5263593478440785,-513.9007051112288
0.5273524786890672,-513.9007051112288
0.5283456095340561,-513.9007051112288
0.5293387403790449,-233.90070511122883
0.5303318712240337,508.09929488877117
0.5313250020690226,509.09929488877117
0.5323181329140114,508.09929488877117
0.5333112637590002,508.09929488877117
0.534304394603989,508.09929488877117
0.5352975254489779,508.09929488877117
0.5362906562939667,509.09929488877117
0.5372837871389555,508.09929488877117
0.5382769179839444,508.09929488877117
0.5392700488289331,133.09929488877117
0.540263179673922,-513.9007051112288
0.5412563105189109,-453.90070511122883
0.5422494413638996,-513.9007051112288
0.5432425722088885,-513.9007051112288
0.5442357030538774,-513.9007051112288
0.5452288338988661,-513.9007051112288
0.546221964743855,-513.9007051112288
0.5472150955888438,-513.9007051112288
0.5482082264338326,-513.9007051112288
0.5492013572788215,-215.90070511122883
0.5501944881238103,508.09929488877117
0.5511876189687991,509.09929488877117
0.552180749813788,508.09929488877117
0.5531738806587768,508.09929488877117
0.5541670115037656,509.09929488877117
0.5551601423487544,508.09929488877117
0.5561532731937433,509.09929488877117
0.5571464040387321,508.09929488877117
0.5581395348837209,508.09929488877117
0.5591326657287097,169.09929488877117
0.5601257965736985,-513.9007051112288
0.5611189274186874,-455.90070511122883
0.5621120582636762,-513.9007051112288
0.563105189108665,-513.9007051112288
0.5640983199536539,-513.9007051112288
0.5650914507986426,-513.9007051112288
0.5660845816436315,-513.9007051112288
0.5670777124886204,-513.9007051112288
0.5680708433336091,-513.9007051112288
0.569063974178598,-211.90070511122883
0.5700571050235869,508.09929488877117
0.5710502358685756,509.09929488877117
0.5720433667135645,508.09929488877117
0.5730364975585533,508.09929488877117
0.5740296284035421,508.09929488877117
0.575022759248531,508.09929488877117
0.5760158900935198,509.09929488877117
0.5770090209385086,509.09929488877117
0.5780021517834975,508.09929488877117
0.5789952826284863,205.09929488877117
0.5799884134734751,-513.9007051112288
0.5809815443184639,-479.90070511122883
0.5819746751634528,-513.9007051112288
0.5829678060084416,-513.9007051112288
0.5839609368534304,-513.9007051112288
0.5849540676984193,-513.9007051112288
0.585947198543408,-513.9007051112288
0.5869403293883969,-513.9007051112288
0.5879334602333857,-513.9007051112288
0.5889265910783745,-194.90070511122883
0.5899197219233634,508.09929488877117
0.5909128527683521,509.09929488877117
0.591905983613341,508.09929488877117
0.5928991144583299,508.09929488877117
0.5938922453033186,509.09929488877117
0.5948853761483075,508.09929488877117
0.5958785069932964,509.09929488877117
0.5968716378382851,508.09929488877117
0.597864768683274,508.09929488877117
0.5988578995282628,144.09929488877117
0.5998510303732516,-513.9007051112288
0.6008441612182405,-438.90070511122883
0.6018372920632293,-513.9007051112288
0.6028304229082181,-513.9007051112288
0.603823553753207,-513.9007051112288
0.6048166845981958,-513.9007051112288
0.6058098154431846,-513.9007051112288
0.6068029462881734,-513.9007051112288
0.6077960771331623,-513.9007051112288
0.6087892079781511,-185.90070511122883
0.6097823388231399,508.09929488877117
0.6107754696681288,509.09929488877117
0.6117686005131175,508.09929488877117
0.6127617313581064,508.09929488877117
0.6137548622030953,508.09929488877117
0.614747993048084,508.09929488877117
0.6157411238930729,509.09929488877117
0.6167342547380618,508.09929488877117
0.6177273855830505,508.09929488877117
0.6187205164280394,168.09929488877117
0.6197136472730282,-513.9007051112288
0.620706778118017,-513.9007051112288
0.6216999089630059,-513.9007051112288
0.6226930398079946,-513.9007051112288
0.6236861706529835,-513.9007051112288
0.6246793014979724,-513.9007051112288
0.6256724323429611,-513.9007051112288
0.62666556318795,-513.9007051112288
0.6276586940329388,-513.9007051112288
0.6286518248779276,-186.90070511122883
0.6296449557229165,508.09929488877117
0.6306380865679053,509.09929488877117
0.6316312174128941,508.09929488877117
0.6326243482578829,508.09929488877117
0.6336174791028718,508.09929488877117
0.6346106099478606,508.09929488877117
0.6356037407928494,509.09929488877117
0.6365968716378383,508.09929488877117
0.637590002482827,508.09929488877117
0.6385831333278159,120.09929488877117
0.6395762641728048,-513.9007051112288
0.6405693950177935,-452.90070511122883
0.6415625258627824,-513.9007051112288
0.6425556567077713,-513.9007051112288
0.64354878755276,-513.9007051112288
0.6445419183977489,-513.9007051112288
0.6455350492427377,-513.9007051112288
0.6465281800877265,-513.9007051112288
0.6475213109327154,-513.9007051112288
0.6485144417777042,-133.90070511122883
0.649507572622693,508.09929488877117
0.6505007034676819,509.09929488877117
0.6514938343126706,508.09929488877117
0.6524869651576595,508.09929488877117
0.6534800960026483,509.09929488877117
0.6544732268476371,508.09929488877117
0.655466357692626,509.09929488877117
0.6564594885376148,508.09929488877117
0.6574526193826036,508.09929488877117
0.6584457502275924,122.09929488877117
0.6594388810725813,-513.9007051112288
0.6604320119175701,-415.90070511122883
0.6614251427625589,-513.9007051112288
0.6624182736075478,-513.9007051112288
0.6634114044525365,-513.9007051112288
0.6644045352975254,-513.9007051112288
0.6653976661425143,-513.9007051112288
0.666390796987503,-513.9007051112288
0.6673839278324919,-513.9007051112288
0.6683770586774808,-133.90070511122883
0.6693701895224695,508.09929488877117
0.6703633203674584,509.09929488877117
0.6713564512124472,508.09929488877117
0.672349582057436,508.09929488877117
0.6733427129024249,509.09929488877117
0.6743358437474137,508.09929488877117
0.6753289745924025,509.09929488877117
0.6763221054373914,508.09929488877117
0.6773152362823802,508.09929488877117
0.678308367127369,118.09929488877117
0.6793014979723578,-513.9007051112288
0.6802946288173467,-429.90070511122883
0.6812877596623355,-513.9007051112288
0.6822808905073243,-513.9007051112288
0.6832740213523132,-513.9007051112288
0.6842671521973019,-513.9007051112288
0.6852602830422908,-513.9007051112288
0.6862534138872796,-513.9007051112288
0.6872465447322684,-513.9007051112288
0.6882396755772573,-174.90070511122883
0.689232806422246,508.09929488877117
0.6902259372672349,509.09929488877117
0.6912190681122238,508.09929488877117
0.6922121989572125,508.09929488877117
0.6932053298022014,509.09929488877117
0.6941984606471903,508.09929488877117
0.695191591492179,509.09929488877117
0.6961847223371679,508.09929488877117
0.6971778531821567,508.09929488877117
0.6981709840271455,122.09929488877117
0.6991641148721344,-513.9007051112288
0.7001572457171232,-430.90070511122883
0.701150376562112,-513.9007051112288
0.7021435074071009,-513.9007051112288
0.7031366382520897,-513.9007051112288
0.7041297690970785,-513.9007051112288
0.7051228999420673,-513.9007051112288
0.7061160307870562,-513.9007051112288
0.707109161632045,-513.9007051112288
0.7081022924770338,-169.90070511122883
0.7090954233220227,508.09929488877117
0.7100885541670114,509.09929488877117
0.7110816850120003,508.09929488877117
0.7120748158569892,508.09929488877117
0.7130679467019779,508.09929488877117
0.7140610775469668,508.09929488877117
0.7150542083919555,508.09929488877117
0.7160473392369444,508.09929488877117
0.7170404700819333,508.09929488877117
0.718033600926922,129.09929488877117
0.7190267317719109,-488.90070511122883
0.7200198626168998,-429.90070511122883
0.7210129934618885,-513.9007051112288
0.7220061243068774,-513.9007051112288
0.7229992551518662,-513.9007051112288
0.723992385996855,-513.9007051112288
0.7249855168418439,-513.9007051112288
0.7259786476868327,-513.9007051112288
0.7269717785318215,-513.9007051112288
0.7279649093768104,-157.90070511122883
0.7289580402217992,508.09929488877117
0.729951171066788,509.09929488877117
0.7309443019117768,508.09929488877117
0.7319374327567657,508.09929488877117
0.7329305636017545,508.09929488877117
0.7339236944467433,508.09929488877117
0.7349168252917322,509.09929488877117
0.7359099561367209,508.09929488877117
0.7369030869817098,508.09929488877117
0.7378962178266987,197.09929488877117
0.7388893486716874,-508.90070511122883
0.7398824795166763,-436.90070511122883
0.7408756103616652,-513.9007051112288
0.7418687412066539,-513.9007051112288
0.7428618720516428,-513.9007051112288
0.7438550028966316,-513.9007051112288
0.7448481337416204,-513.9007051112288
0.7458412645866093,-513.9007051112288
0.7468343954315981,-513.9007051112288
0.7478275262765869,-142.90070511122883
0.7488206571215758,508.09929488877117
0.7498137879665645,509.09929488877117
0.7508069188115534,508.09929488877117
0.7518000496565422,508.09929488877117
0.752793180501531,509.09929488877117
0.7537863113465199,508.09929488877117
0.7547794421915087,509.09929488877117
0.7557725730364975,508.09929488877117
0.7567657038814863,508.09929488877117
0.7577588347264752,107.09929488877117
0.758751965571464,-513.9007051112288
0.7597450964164528,-381.90070511122883
0.7607382272614417,-513.9007051112288
0.7617313581064304,-513.9007051112288
0.7627244889514193,-513.9007051112288
0.7637176197964082,-513.9007051112288
0.7647107506413969,-513.9007051112288
0.7657038814863858,-513.9007051112288
0.7666970123313747,-513.9007051112288
0.7676901431763634,-147.90070511122883
0.7686832740213523,508.09929488877117
0.7696764048663411,508.09929488877117
0.7706695357113299,508.09929488877117
0.7716626665563188,508.09929488877117
0.7726557974013076,509.09929488877117
0.7736489282462964,508.09929488877117
0.7746420590912853,509.09929488877117
0.7756351899362741,508.09929488877117
0.7766283207812629,508.09929488877117
0.7776214516262517,118.09929488877117
0.7786145824712405,-506.90070511122883
0.7796077133162294,-399.90070511122883
0.7806008441612182,-513.9007051112288
0.781593975006207,-513.9007051112288
0.7825871058511958,-513.9007051112288
0.7835802366961847,-513.9007051112288
0.7845733675411735,-513.9007051112288
0.7855664983861623,-513.9007051112288
0.7865596292311512,-513.9007051112288
0.78755276007614,-172.90070511122883
0.7885458909211288,508.09929488877117
0.7895390217661177,508.09929488877117
0.7905321526111064,508.09929488877117
0.7915252834560953,508.09929488877117
0.7925184143010842,508.09929488877117
0.7935115451460729,508.09929488877117
0.7945046759910618,509.09929488877117
0.7954978068360506,508.09929488877117
0.7964909376810394,508.09929488877117
0.7974840685260283,123.09929488877117
0.7984771993710171,-505.90070511122883
0.7994703302160059,-401.90070511122883
0.8004634610609948,-513.9007051112288
0.8014565919059836,-513.9007051112288
0.8024497227509724,-513.9007051112288
0.8034428535959612,-513.9007051112288
0.8044359844409501,-513.9007051112288
0.8054291152859389,-513.9007051112288
0.8064222461309277,-513.9007051112288
0.8074153769759166,-152.90070511122883
0.8084085078209053,508.09929488877117
0.8094016386658942,509.09929488877117
0.8103947695108831,508.09929488877117
0.8113879003558718,508.09929488877117
0.8123810312008607,508.09929488877117
0.8133741620458494,508.09929488877117
0.8143672928908383,509.09929488877117
0.8153604237358272,508.09929488877117
0.8163535545808159,508.09929488877117
0.8173466854258048,143.09929488877117
0.8183398162707937,-489.90070511122883
0.8193329471157824,-398.90070511122883
0.8203260779607713,-513.9007051112288
0.8213192088057601,-513.9007051112288
0.8223123396507489,-513.9007051112288
0.8233054704957378,-513.9007051112288
0.8242986013407266,-513.9007051112288
0.8252917321857154,-513.9007051112288
0.8262848630307043,-513.9007051112288
0.8272779938756931,-143.90070511122883
0.8282711247206819,508.09929488877117
0.8292642555656707,509.09929488877117
0.8302573864106596,508.09929488877117
0.8312505172556484,508.09929488877117
0.8322436481006372,508.09929488877117
0.8332367789456261,508.09929488877117
0.8342299097906148,509.09929488877117
0.8352230406356037,508.09929488877117
0.8362161714805926,508.09929488877117
0.8372093023255813,101.09929488877117
0.8382024331705702,-441.90070511122883
0.8391955640155591,-367.90070511122883
0.8401886948605478,-513.9007051112288
0.8411818257055367,-513.9007051112288
0.8421749565505254,-513.9007051112288
0.8431680873955143,-513.9007051112288
0.8441612182405032,-513.9007051112288
0.8451543490854919,-513.9007051112288
0.8461474799304808,-513.9007051112288
0.8471406107754696,-154.90070511122883
0.8481337416204584,508.09929488877117
0.8491268724654473,509.09929488877117
0.8501200033104361,508.09929488877117
0.8511131341554249,508.09929488877117
0.8521062650004138,509.09929488877117
0.8530993958454026,508.09929488877117
0.8540925266903914,509.09929488877117
0.8550856575353802,508.09929488877117
0.8560787883803691,508.09929488877117
0.8570719192253579,103.09929488877117
0.8580650500703467,-455.90070511122883
0.8590581809153356,-353.90070511122883
0.8600513117603243,-513.9007051112288
0.8610444426053132,-513.9007051112288
0.8620375734503021,-513.9007051112288
0.8630307042952908,-513.9007051112288
0.8640238351402797,-513.9007051112288
0.8650169659852686,-513.9007051112288
0.8660100968302573,-513.9007051112288
0.8670032276752462,-117.90070511122883
0.867996358520235,508.09929488877117
0.8689894893652238,509.09929488877117
0.8699826202102127,508.09929488877117
0.8709757510552015,508.09929488877117
0.8719688819001903,509.09929488877117
0.8729620127451792,508.09929488877117
0.873955143590168,508.09929488877117
0.8749482744351568,508.09929488877117
0.8759414052801456,508.09929488877117
0.8769345361251344,102.09929488877117
0.8779276669701233,-462.90070511122883
0.8789207978151121,-365.90070511122883
0.8799139286601009,-513.9007051112288
0.8809070595050897,-513.9007051112288
0.8819001903500786,-513.9007051112288
0.8828933211950674,-513.9007051112288
0.8838864520400562,-513.9007051112288
0.8848795828850451,-513.9007051112288
0.8858727137300338,-513.9007051112288
0.8868658445750227,-173.90070511122883
0.8878589754200116,508.09929488877117
0.8888521062650003,509.09929488877117
0.8898452371099892,508.09929488877117
0.8908383679549781,508.09929488877117
0.8918314987999668,509.09929488877117
0.8928246296449557,508.09929488877117
0.8938177604899445,509.09929488877117
0.8948108913349333,508.09929488877117
0.8958040221799222,508.09929488877117
0.896797153024911,118.09929488877117
0.8977902838698998,-465.90070511122883
0.8987834147148887,-350.90070511122883
0.8997765455598775,-513.9007051112288
0.9007696764048663,-513.9007051112288
0.9017628072498551,-513.9007051112288
0.902755938094844,-513.9007051112288
0.9037490689398328,-513.9007051112288
0.9047421997848216,-513.9007051112288
0.9057353306298104,-513.9007051112288
0.9067284614747992,-158.90070511122883
0.9077215923197881,507.09929488877117
0.9087147231647769,509.09929488877117
0.9097078540097657,508.09929488877117
0.9107009848547546,508.09929488877117
0.9116941156997433,508.09929488877117
0.9126872465447322,508.09929488877117
0.9136803773897211,509.09929488877117
0.9146735082347098,508.09929488877117
0.9156666390796987,508.09929488877117
0.9166597699246876,154.09929488877117
0.9176529007696763,-447.90070511122883
0.9186460316146652,-366.90070511122883
0.919639162459654,-513.9007051112288
0.9206322933046428,-513.9007051112288
0.9216254241496317,-513.9007051112288
0.9226185549946205,-513.9007051112288
0.9236116858396093,-513.9007051112288
0.9246048166845982,-513.9007051112288
0.925597947529587,-513.9007051112288
0.9265910783745758,-149.90070511122883
0.9275842092195646,508.09929488877117
0.9285773400645535,509.09929488877117
0.9295704709095423,508.09929488877117
0.9305636017545311,508.09929488877117
0.93155673259952,508.09929488877117
0.9325498634445087,508.09929488877117
0.9335429942894976,509.09929488877117
0.9345361251344865,508.09929488877117
0.9355292559794752,508.09929488877117
0.9365223868244641,94.09929488877117
0.937515517669453,-440.90070511122883
0.9385086485144417,-308.90070511122883
0.9395017793594306,-513.9007051112288
0.9404949102044193,-513.9007051112288
0.9414880410494082,-513.9007051112288
0.9424811718943971,-513.9007051112288
0.9434743027393858,-513.9007051112288
0.9444674335843747,-513.9007051112288
0.9454605644293635,-513.9007051112288
0.9464536952743523,-152.90070511122883
0.9474468261193412,508.09929488877117
0.94843995696433,508.09929488877117
0.9494330878093188,508.09929488877117
0.9504262186543077,508.09929488877117
0.9514193494992965,509.09929488877117
0.9524124803442853,508.09929488877117
0.9534056111892741,509.09929488877117
0.954398742034263,508.09929488877117
0.9553918728792518,508.09929488877117
0.9563850037242406,103.09929488877117
0.9573781345692295,-411.90070511122883
0.9583712654142182,-316.90070511122883
0.9593643962592071,-513.9007051112288
0.960357527104196,-513.9007051112288
0.9613506579491847,-513.9007051112288
0.9623437887941736,-513.9007051112288
0.9633369196391625,-513.9007051112288
0.9643300504841512,-513.9007051112288
0.9653231813291401,-513.9007051112288
0.9663163121741289,-132.90070511122883
0.9673094430191177,507.09929488877117
0.9683025738641066,509.09929488877117
0.9692957047090953,508.09929488877117
0.9702888355540842,508.09929488877117
0.971281966399073,509.09929488877117
0.9722750972440618,508.09929488877117
0.9732682280890507,509.09929488877117
0.9742613589340395,508.09929488877117
0.9752544897790283,508.09929488877117
0.9762476206240172,113.09929488877117
0.977240751469006,-405.90070511122883
0.9782338823139948,-326.90070511122883
0.9792270131589836,-513.9007051112288
0.9802201440039725,-513.9007051112288
0.9812132748489613,-513.9007051112288
0.9822064056939501,-513.9007051112288
0.983199536538939,-513.9007051112288
0.9841926673839277,-513.9007051112288
0.9851857982289166,-513.9007051112288
0.9861789290739055,-180.90070511122883
0.9871720599188942,508.09929488877117
0.9881651907638831,509.09929488877117
0.989158321608872,508.09929488877117
0.9901514524538607,508.09929488877117
0.9911445832988496,509.09929488877117
0.9921377141438384,508.09929488877117
0.9931308449888272,509.09929488877117
0.9941239758338161,508.09929488877117
0.9951171066788049,508.09929488877117
0.9961102375237937,118.09929488877117
0.9971033683687825,-407.90070511122883
0.9980964992137714,-323.90070511122883
0.9990896300587602,-513.9007051112288
1.000082760903749,-513.9007051112288
1.001075891748738,-513.9007051112288
1.0020690225937268,-513.9007051112288
1.0030621534387154,-513.9007051112288
1.0040552842837043,-513.9007051112288
1.0050484151286931,-513.9007051112288
1.006041545973682,-148.90070511122883
1.0070346768186709,481.09929488877117
1.0080278076636597,509.09929488877117
1.0090209385086484,508.09929488877117
1.0100140693536372,508.09929488877117
1.011007200198626,508.09929488877117
1.012000331043615,508.09929488877117
1.0129934618886038,509.09929488877117
1.0139865927335927,508.09929488877117
1.0149797235785813,508.09929488877117
1.0159728544235702,95.09929488877117
1.016965985268559,-362.90070511122883
1.017959116113548,-309.90070511122883
1.0189522469585368,-513.9007051112288
1.0199453778035255,-513.9007051112288
1.0209385086485143,-513.9007051112288
1.0219316394935032,-513.9007051112288
1.022924770338492,-513.9007051112288
1.023917901183481,-513.9007051112288
1.0249110320284698,-513.9007051112288
1.0259041628734584,-114.90070511122883
1.0268972937184473,477.09929488877117
1.0278904245634362,508.09929488877117
1.028883555408425,508.09929488877117
1.0298766862534139,508.09929488877117
1.0308698170984028,508.09929488877117
1.0318629479433914,508.09929488877117
1.0328560787883803,509.09929488877117
1.0338492096333691,508.09929488877117
1.034842340478358,508.09929488877117
1.0358354713233469,184.09929488877117
1.0368286021683357,-378.90070511122883
1.0378217330133244,-302.90070511122883
1.0388148638583132,-513.9007051112288
1.039807994703302,-513.9007051112288
1.040801125548291,-513.9007051112288
1.0417942563932798,-513.9007051112288
1.0427873872382687,-513.9007051112288
1.0437805180832573,-513.9007051112288
1.0447736489282462,-513.9007051112288
1.045766779773235,-145.90070511122883
1.046759910618224,471.09929488877117
1.0477530414632128,509.09929488877117
1.0487461723082014,508.09929488877117
1.0497393031531903,508.09929488877117
1.0507324339981792,509.09929488877117
1.051725564843168,508.09929488877117
1.052718695688157,509.09929488877117
1.0537118265331458,508.09929488877117
1.0547049573781344,508.09929488877117
1.0556980882231233,81.09929488877117
1.0566912190681121,-357.90070511122883
1.057684349913101,-264.90070511122883
1.0586774807580899,-513.9007051112288
1.0596706116030787,-513.9007051112288
1.0606637424480674,-513.9007051112288
1.0616568732930562,-513.9007051112288
1.0626500041380451,-513.9007051112288
1.063643134983034,-513.9007051112288
1.0646362658280228,-513.9007051112288
1.0656293966730117,-130.90070511122883
1.0666225275180004,473.09929488877117
1.0676156583629892,509.09929488877117
1.068608789207978,508.09929488877117
1.069601920052967,508.09929488877117
1.0705950508979558,509.09929488877117
1.0715881817429447,508.09929488877117
1.0725813125879333,509.09929488877117
1.0735744434329222,508.09929488877117
1.074567574277911,508.09929488877117
1.0755607051229,84.09929488877117
1.0765538359678888,-360.90070511122883
1.0775469668128776,-286.90070511122883
1.0785400976578663,-513.9007051112288
1.0795332285028552,-513.9007051112288
1.080526359347844,-513.9007051112288
1.0815194901928329,-513.9007051112288
1.0825126210378218,-513.9007051112288
1.0835057518828104,-513.9007051112288
1.0844988827277993,-513.9007051112288
1.0854920135727881,-120.90070511122883
1.086485144417777,456.09929488877117
1.0874782752627659,508.09929488877117
1.0884714061077547,508.09929488877117
1.0894645369527434,508.09929488877117
1.0904576677977322,508.09929488877117
1.091450798642721,508.09929488877117
1.09244392948771,509.09929488877117
1.0934370603326988,508.09929488877117
1.0944301911776877,508.09929488877117
1.0954233220226763,95.09929488877117
1.0964164528676652,-366.90070511122883
1.097409583712654,-293.90070511122883
1.098402714557643,-513.9007051112288
1.0993958454026318,-513.9007051112288
1.1003889762476207,-513.9007051112288
1.1013821070926093,-513.9007051112288
1.1023752379375982,-513.9007051112288
1.103368368782587,-513.9007051112288
1.104361499627576,-513.9007051112288
1.1053546304725648,-149.90070511122883
1.1063477613175536,449.09929488877117
1.1073408921625423,509.09929488877117
1.1083340230075311,508.09929488877117
1.10932715385252,508.09929488877117
1.1103202846975089,508.09929488877117
1.1113134155424977,508.09929488877117
1.1123065463874866,509.09929488877117
1.1132996772324752,508.09929488877117
1.1142928080774641,508.09929488877117
1.115285938922453,109.09929488877117
1.1162790697674418,-372.90070511122883
1.1172722006124307,-314.90070511122883
1.1182653314574194,-513.9007051112288
1.1192584623024082,-513.9007051112288
1.120251593147397,-513.9007051112288
1.121244723992386,-513.9007051112288
1.1222378548373748,-513.9007051112288
1.1232309856823637,-513.9007051112288
1.1242241165273523,-513.9007051112288
1.1252172473723412,-138.90070511122883
1.12621037821733,449.09929488877117
1.127203509062319,508.09929488877117
1.1281966399073078,508.09929488877117
1.1291897707522967,508.09929488877117
1.1301829015972853,508.09929488877117
1.1311760324422742,508.09929488877117
1.132169163287263,509.09929488877117
1.133162294132252,508.09929488877117
1.1341554249772408,508.09929488877117
1.1351485558222296,86.09929488877117
1.1361416866672183,-307.90070511122883
1.1371348175122071,-283.90070511122883
1.138127948357196,-513.9007051112288
1.1391210792021849,-513.9007051112288
1.1401142100471737,-513.9007051112288
1.1411073408921626,-513.9007051112288
1.1421004717371512,-513.9007051112288
1.14309360258214,-513.9007051112288
1.144086733427129,-513.9007051112288
1.1450798642721178,-131.90070511122883
1.1460729951171067,446.09929488877117
1.1470661259620953,508.09929488877117
1.1480592568070842,508.09929488877117
1.149052387652073,508.09929488877117
1.150045518497062,509.09929488877117
1.1510386493420508,508.09929488877117
1.1520317801870397,509.09929488877117
1.1530249110320283,508.09929488877117
1.1540180418770172,508.09929488877117
1.155011172722006,105.09929488877117
1.156004303566995,-338.90070511122883
1.1569974344119838,-350.90070511122883
1.1579905652569726,-513.9007051112288
1.1589836961019613,-513.9007051112288
1.1599768269469501,-513.9007051112288
1.160969957791939,-513.9007051112288
1.1619630886369279,-513.9007051112288
1.1629562194819167,-513.9007051112288
1.1639493503269056,-513.9007051112288
1.1649424811718943,-129.90070511122883
1.1659356120168831,474.09929488877117
1.166928742861872,509.09929488877117
1.1679218737068608,508.09929488877117
1.1689150045518497,508.09929488877117
1.1699081353968386,509.09929488877117
1.1709012662418272,508.09929488877117
1.171894397086816,509.09929488877117
1.172887527931805,508.09929488877117
1.1738806587767938,508.09929488877117
1.1748737896217827,122.09929488877117
1.1758669204667713,-320.90070511122883
1.1768600513117602,-295.90070511122883
1.177853182156749,-513.9007051112288
1.178846313001738,-513.9007051112288
1.1798394438467268,-513.9007051112288
1.1808325746917157,-513.9007051112288
1.1818257055367043,-513.9007051112288
1.1828188363816932,-513.9007051112288
1.183811967226682,-513.9007051112288
1.184805098071671,-125.90070511122883
1.1857982289166598,425.09929488877117
1.1867913597616486,508.09929488877117
1.1877844906066373,508.09929488877117
1.1887776214516261,508.09929488877117
1.189770752296615,509.09929488877117
1.1907638831416039,508.09929488877117
1.1917570139865927,509.09929488877117
1.1927501448315816,508.09929488877117
1.1937432756765702,508.09929488877117
1.194736406521559,121.09929488877117
1.195729537366548,-316.90070511122883
1.1967226682115368,-264.90070511122883
1.1977157990565257,-513.9007051112288
1.1987089299015146,-513.9007051112288
1.1997020607465032,-513.9007051112288
1.200695191591492,-513.9007051112288
1.201688322436481,-513.9007051112288
1.2026814532814698,-513.9007051112288
1.2036745841264587,-513.9007051112288
1.2046677149714475,-78.90070511122883
1.2056608458164362,423.09929488877117
1.206653976661425,508.09929488877117
1.207647107506414,508.09929488877117
1.2086402383514028,508.09929488877117
1.2096333691963916,508.09929488877117
1.2106265000413803,508.09929488877117
1.2116196308863691,509.09929488877117
1.212612761731358,508.09929488877117
1.2136058925763469,508.09929488877117
1.2145990234213357,106.09929488877117
1.2155921542663246,-274.90070511122883
1.2165852851113133,-283.90070511122883
1.2175784159563021,-513.9007051112288
1.218571546801291,-513.9007051112288
1.2195646776462798,-513.9007051112288
1.2205578084912687,-513.9007051112288
1.2215509393362576,-513.9007051112288
1.2225440701812462,-513.9007051112288
1.223537201026235,-513.9007051112288
1.224530331871224,-126.90070511122883
1.2255234627162128,424.09929488877117
1.2265165935612017,509.09929488877117
1.2275097244061905,508.09929488877117
1.2285028552511792,508.09929488877117
1.229495986096168,508.09929488877117
1.230489116941157,508.09929488877117
1.2314822477861458,508.09929488877117
1.2324753786311347,508.09929488877117
1.2334685094761235,508.09929488877117
1.2344616403211122,122.09929488877117
1.235454771166101,-296.90070511122883
1.23644790201109,-241.90070511122883
1.2374410328560788,-513.9007051112288
1.2384341637010676,-513.9007051112288
1.2394272945460565,-513.9007051112288
1.2404204253910451,-513.9007051112288
1.241413556236034,-513.9007051112288
1.2424066870810229,-513.9007051112288
1.2433998179260117,-513.9007051112288
1.2443929487710006,-117.90070511122883
1.2453860796159892,409.09929488877117
1.246379210460978,508.09929488877117
1.247372341305967,508.09929488877117
1.2483654721509558,508.09929488877117
1.2493586029959447,509.09929488877117
1.2503517338409336,508.09929488877117
1.2513448646859222,509.09929488877117
1.252337995530911,508.09929488877117
1.2533311263759,508.09929488877117
1.2543242572208888,110.09929488877117
1.2553173880658777,-295.90070511122883
1.2563105189108665,-345.90070511122883
1.2573036497558552,-513.9007051112288
1.258296780600844,-513.9007051112288
1.259289911445833,-513.9007051112288
1.2602830422908218,-513.9007051112288
1.2612761731358106,-513.9007051112288
1.2622693039807995,-513.9007051112288
1.2632624348257881,-513.9007051112288
1.264255565670777,-72.90070511122883
1.2652486965157659,410.09929488877117
1.2662418273607547,508.09929488877117
1.2672349582057436,508.09929488877117
1.2682280890507325,508.09929488877117
1.2692212198957211,509.09929488877117
1.27021435074071,508.09929488877117
1.2712074815856989,509.09929488877117
1.2722006124306877,508.09929488877117
1.2731937432756766,508.09929488877117
1.2741868741206652,116.09929488877117
1.275180004965654,-275.90070511122883
1.276173135810643,-281.90070511122883
1.2771662666556318,-513.9007051112288
1.2781593975006207,-513.9007051112288
1.2791525283456096,-513.9007051112288
1.2801456591905982,-513.9007051112288
1.281138790035587,-513.9007051112288
1.282131920880576,-513.9007051112288
1.2831250517255648,-513.9007051112288
1.2841181825705537,-122.90070511122883
1.2851113134155425,436.09929488877117
1.2861044442605312,508.09929488877117
1.28709757510552,508.09929488877117
1.288090705950509,508.09929488877117
1.2890838367954978,508.09929488877117
1.2900769676404866,508.09929488877117
1.2910700984854755,509.09929488877117
1.2920632293304641,508.09929488877117
1.293056360175453,508.09929488877117
1.2940494910204419,89.09929488877117
1.2950426218654307,-275.90070511122883
1.2960357527104196,-264.90070511122883
1.2970288835554085,-513.9007051112288
1.298022014400397,-513.9007051112288
1.299015145245386,-513.9007051112288
1.3000082760903748,-513.9007051112288
1.3010014069353637,-513.9007051112288
1.3019945377803526,-513.9007051112288
1.3029876686253412,-513.9007051112288
1.30398079947033,-114.90070511122883
1.304973930315319,397.09929488877117
1.3059670611603078,509.09929488877117
1.3069601920052967,508.09929488877117
1.3079533228502855,508.09929488877117
1.3089464536952742,508.09929488877117
1.309939584540263,508.09929488877117
1.310932715385252,509.09929488877117
1.3119258462302408,508.09929488877117
1.3129189770752296,508.09929488877117
1.3139121079202185,126.09929488877117
1.3149052387652072,-239.90070511122883
1.315898369610196,-265.90070511122883
1.3168915004551849,-513.9007051112288
1.3178846313001737,-513.9007051112288
1.3188777621451626,-513.9007051112288
1.3198708929901515,-513.9007051112288
1.3208640238351401,-513.9007051112288
1.321857154680129,-513.9007051112288
1.3228502855251179,-513.9007051112288
1.3238434163701067,-99.90070511122883
1.3248365472150956,391.09929488877117
1.3258296780600844,508.09929488877117
1.326822808905073,508.09929488877117
1.327815939750062,508.09929488877117
1.3288090705950508,508.09929488877117
1.3298022014400397,508.09929488877117
1.3307953322850286,509.09929488877117
1.3317884631300174,508.09929488877117
1.332781593975006,508.09929488877117
1.333774724819995,100.09929488877117
1.3347678556649838,-229.90070511122883
1.3357609865099727,-269.90070511122883
1.3367541173549615,-513.9007051112288
1.3377472481999502,-513.9007051112288
1.338740379044939,-513.9007051112288
1.339733509889928,-513.9007051112288
1.3407266407349168,-513.9007051112288
1.3417197715799056,-513.9007051112288
1.3427129024248945,-513.9007051112288
1.3437060332698831,-95.90070511122883
1.344699164114872,390.09929488877117
1.3456922949598609,509.09929488877117
1.3466854258048497,508.09929488877117
1.3476785566498386,508.09929488877117
1.3486716874948275,509.09929488877117
1.349664818339816,508.09929488877117
1.350657949184805,509.09929488877117
1.3516510800297938,508.09929488877117
1.3526442108747827,508.09929488877117
1.3536373417197716,89.09929488877117
1.3546304725647604,-257.90070511122883
1.355623603409749,-247.90070511122883
1.356616734254738,-513.9007051112288
1.3576098650997268,-513.9007051112288
1.3586029959447157,-513.9007051112288
1.3595961267897045,-513.9007051112288
1.3605892576346934,-513.9007051112288
1.361582388479682,-513.9007051112288
1.362575519324671,-513.9007051112288
1.3635686501696598,-90.90070511122883
1.3645617810146486,375.09929488877117
1.3655549118596375,508.09929488877117
1.3665480427046264,508.09929488877117
1.367541173549615,508.09929488877117
1.3685343043946039,508.09929488877117
1.3695274352395927,508.09929488877117
1.3705205660845816,509.09929488877117
1.3715136969295705,508.09929488877117
1.3725068277745591,508.09929488877117
1.373499958619548,79.09929488877117
1.3744930894645369,-255.90070511122883
1.3754862203095257,-283.90070511122883
1.3764793511545146,-513.9007051112288
1.3774724819995035,-513.9007051112288
1.378465612844492,-513.9007051112288
1.379458743689481,-513.9007051112288
1.3804518745344698,-513.9007051112288
1.3814450053794587,-513.9007051112288
1.3824381362244476,-513.9007051112288
1.3834312670694364,-4.900705111228831
1.384424397914425,389.09929488877117
1.385417528759414,509.09929488877117
1.3864106596044028,508.09929488877117
1.3874037904493917,508.09929488877117
1.3883969212943805,509.09929488877117
1.3893900521393694,508.09929488877117
1.390383182984358,509.09929488877117
1.391376313829347,508.09929488877117
1.3923694446743358,508.09929488877117
1.3933625755193246,98.09929488877117
1.3943557063643135,-220.90070511122883
1.3953488372093024,-272.90070511122883
1.396341968054291,-513.9007051112288
1.3973350988992799,-513.9007051112288
1.3983282297442687,-513.9007051112288
1.3993213605892576,-513.9007051112288
1.4003144914342465,-513.9007051112288
1.401307622279235,-513.9007051112288
1.402300753124224,-513.9007051112288
1.4032938839692128,-78.90070511122883
1.4042870148142017,370.09929488877117
1.4052801456591906,509.09929488877117
1.4062732765041794,508.09929488877117
1.407266407349168,508.09929488877117
1.408259538194157,508.09929488877117
1.4092526690391458,508.09929488877117
1.4102457998841347,509.09929488877117
1.4112389307291235,508.09929488877117
1.4122320615741124,508.09929488877117
1.413225192419101,98.09929488877117
1.41421832326409,-243.90070511122883
1.4152114541090788,-313.90070511122883
1.4162045849540676,-513.9007051112288
1.4171977157990565,-513.9007051112288
1.4181908466440454,-513.9007051112288
1.419183977489034,-513.9007051112288
1.4201771083340229,-513.9007051112288
1.4211702391790118,-513.9007051112288
1.4221633700240006,-513.9007051112288
1.4231565008689895,-93.90070511122883
1.4241496317139783,366.09929488877117
1.425142762558967,509.09929488877117
1.4261358934039559,508.09929488877117
1.4271290242489447,508.09929488877117
1.4281221550939336,508.09929488877117
1.4291152859389225,508.09929488877117
1.430108416783911,509.09929488877117
1.4311015476289,508.09929488877117
1.4320946784738888,508.09929488877117
1.4330878093188777,98.09929488877117
1.4340809401638666,-189.90070511122883
1.4350740710088554,-358.90070511122883
1.436067201853844,-513.9007051112288
1.437060332698833,-513.9007051112288
1.4380534635438218,-513.9007051112288
1.4390465943888107,-513.9007051112288
1.4400397252337995,-513.9007051112288
1.4410328560787884,-513.9007051112288
1.442025986923777,-513.9007051112288
1.443019117768766,-87.90070511122883
1.4440122486137548,363.09929488877117
1.4450053794587436,508.09929488877117
1.4459985103037325,508.09929488877117
1.4469916411487214,508.09929488877117
1.44798477199371,509.09929488877117
1.4489779028386989,508.09929488877117
1.4499710336836877,509.09929488877117
1.4509641645286766,508.09929488877117
1.4519572953736655,508.09929488877117
1.4529504262186543,77.09929488877117
1.453943557063643,-204.90070511122883
1.4549366879086318,-288.90070511122883
1.4559298187536207,-513.9007051112288
1.4569229495986096,-513.9007051112288
1.4579160804435984,-513.9007051112288
1.4589092112885873,-513.9007051112288
1.459902342133576,-513.9007051112288
1.4608954729785648,-513.9007051112288
1.4618886038235537,-513.9007051112288
1.4628817346685425,-24.90070511122883
1.4638748655135314,411.09929488877117
1.46486799635852,508.09929488877117
1.465861127203509,508.09929488877117
1.4668542580484978,508.09929488877117
1.4678473888934866,509.09929488877117
1.4688405197384755,508.09929488877117
1.4698336505834644,509.09929488877117
1.470826781428453,508.09929488877117
1.4718199122734419,508.09929488877117
1.4728130431184308,79.09929488877117
1.4738061739634196,-209.90070511122883
1.4747993048084085,-328.90070511122883
1.4757924356533973,-513.9007051112288
1.476785566498386,-513.9007051112288
1.4777786973433749,-513.9007051112288
1.4787718281883637,-513.9007051112288
1.4797649590333526,-513.9007051112288
1.4807580898783415,-513.9007051112288
1.4817512207233303,-513.9007051112288
1.482744351568319,23.09929488877117
1.4837374824133078,375.09929488877117
1.4847306132582967,509.09929488877117
1.4857237441032856,508.09929488877117
1.4867168749482744,508.09929488877117
1.4877100057932633,509.09929488877117
1.488703136638252,508.09929488877117
1.4896962674832408,509.09929488877117
1.4906893983282297,508.09929488877117
1.4916825291732185,508.09929488877117
1.4926756600182074,80.09929488877117
1.4936687908631963,-211.90070511122883
1.494661921708185,-328.90070511122883
1.4956550525531738,-513.9007051112288
1.4966481833981626,-513.9007051112288
1.4976413142431515,-513.9007051112288
1.4986344450881404,-513.9007051112288
1.499627575933129,-513.9007051112288
1.5006207067781179,-513.9007051112288
1.5016138376231067,-513.9007051112288
1.5026069684680956,-65.90070511122883
1.5036000993130845,372.09929488877117
1.5045932301580733,509.09929488877117
1.505586361003062,508.09929488877117
1.5065794918480508,508.09929488877117
1.5075726226930397,508.09929488877117
1.5085657535380286,508.09929488877117
1.5095588843830174,508.09929488877117
1.5105520152280063,508.09929488877117
1.511545146072995,508.09929488877117
1.5125382769179838,79.09929488877117
1.5135314077629727,-160.90070511122883
1.5145245386079615,-341.90070511122883
1.5155176694529504,-513.9007051112288
1.5165108002979393,-513.9007051112288
1.517503931142928,-513.9007051112288
1.5184970619879168,-513.9007051112288
1.5194901928329057,-513.9007051112288
1.5204833236778945,-513.9007051112288
1.5214764545228834,-513.9007051112288
1.5224695853678722,-52.90070511122883
1.523462716212861,357.09929488877117
1.5244558470578498,509.09929488877117
1.5254489779028386,508.09929488877117
1.5264421087478275,508.09929488877117
1.5274352395928164,508.09929488877117
1.528428370437805,508.09929488877117
1.5294215012827939,509.09929488877117
1.5304146321277827,508.09929488877117
1.5314077629727716,508.09929488877117
1.5324008938177605,69.09929488877117
1.5333940246627493,-215.90070511122883
1.534387155507738,-318.90070511122883
1.5353802863527268,-513.9007051112288
1.5363734171977157,-513.9007051112288
1.5373665480427046,-513.9007051112288
1.5383596788876934,-513.9007051112288
1.5393528097326823,-513.9007051112288
1.540345940577671,-513.9007051112288
1.5413390714226598,-513.9007051112288
1.5423322022676487,-39.90070511122883
1.5433253331126375,361.09929488877117
1.5443184639576264,509.09929488877117
1.5453115948026153,508.09929488877117
1.546304725647604,508.09929488877117
1.5472978564925928,509.09929488877117
1.5482909873375816,508.09929488877117
1.5492841181825705,509.09929488877117
1.5502772490275594,508.09929488877117
1.5512703798725482,508.09929488877117
1.5522635107175369,57.09929488877117
1.5532566415625257,-206.90070511122883
1.5542497724075146,-336.90070511122883
1.5552429032525035,-513.9007051112288
1.5562360340974923,-513.9007051112288
1.557229164942481,-513.9007051112288
1.5582222957874698,-513.9007051112288
1.5592154266324587,-513.9007051112288
1.5602085574774476,-513.9007051112288
1.5612016883224364,-513.9007051112288
1.5621948191674253,-32.90070511122883
1.563187950012414,365.09929488877117
1.5641810808574028,509.09929488877117
1.5651742117023917,508.09929488877117
1.5661673425473805,508.09929488877117
1.5671604733923694,509.09929488877117
1.5681536042373583,508.09929488877117
1.569146735082347,509.09929488877117
1.5701398659273358,508.09929488877117
1.5711329967723247,508.09929488877117
1.5721261276173135,71.09929488877117
1.5731192584623024,-186.90070511122883
1.5741123893072912,-365.90070511122883
1.57510552015228,-513.9007051112288
1.5760986509972688,-513.9007051112288
1.5770917818422576,-513.9007051112288
1.5780849126872465,-513.9007051112288
1.5790780435322354,-513.9007051112288
1.5800711743772242,-513.9007051112288
1.5810643052222129,-513.9007051112288
1.5820574360672017,-31.90070511122883
1.5830505669121906,358.09929488877117
1.5840436977571795,509.09929488877117
1.5850368286021683,508.09929488877117
1.5860299594471572,508.09929488877117
1.5870230902921458,508.09929488877117
1.5880162211371347,508.09929488877117
1.5890093519821236,509.09929488877117
1.5900024828271124,508.09929488877117
1.5909956136721013,508.09929488877117
1.59198874451709,48.09929488877117
1.5929818753620788,-190.90070511122883
1.5939750062070677,-393.90070511122883
1.5949681370520565,-513.9007051112288
1.5959612678970454,-513.9007051112288
1.5969543987420343,-513.9007051112288
1.597947529587023,-513.9007051112288
1.5989406604320118,-513.9007051112288
1.5999337912770006,-513.9007051112288
1.6009269221219895,-513.9007051112288
1.6019200529669784,-34.90070511122883
1.6029131838119672,345.09929488877117
1.6039063146569559,509.09929488877117
1.6048994455019447,508.09929488877117
1.6058925763469336,508.09929488877117
1.6068857071919225,509.09929488877117
1.6078788380369113,508.09929488877117
1.6088719688819002,509.09929488877117
1.6098650997268888,508.09929488877117
1.6108582305718777,508.09929488877117
1.6118513614168666,90.09929488877117
1.6128444922618554,-206.90070511122883
1.6138376231068443,-429.90070511122883
1.6148307539518332,-513.9007051112288
1.6158238847968218,-513.9007051112288
1.6168170156418107,-513.9007051112288
1.6178101464867995,-513.9007051112288
1.6188032773317884,-513.9007051112288
1.6197964081767773,-513.9007051112288
1.6207895390217661,-513.9007051112288
1.6217826698667548,-25.90070511122883
1.6227758007117437,369.09929488877117
1.6237689315567325,509.09929488877117
1.6247620624017214,508.09929488877117
1.6257551932467103,508.09929488877117
1.626748324091699,508.09929488877117
1.6277414549366878,508.09929488877117
1.6287345857816766,509.09929488877117
1.6297277166266655,508.09929488877117
1.6307208474716544,508.09929488877117
1.6317139783166432,31.09929488877117
1.6327071091616319,-161.90070511122883
1.6337002400066207,-403.90070511122883
1.6346933708516096,-513.9007051112288
1.6356865016965985,-513.9007051112288
1.6366796325415873,-513.9007051112288
1.6376727633865762,-513.9007051112288
1.6386658942315648,-513.9007051112288
1.6396590250765537,-513.9007051112288
1.6406521559215426,-513.9007051112288
1.6416452867665314,-3.900705111228831
1.6426384176115203,365.09929488877117
1.6436315484565092,509.09929488877117
1.6446246793014978,508.09929488877117
1.6456178101464867,508.09929488877117
1.6466109409914755,509.09929488877117
1.6476040718364644,508.09929488877117
1.6485972026814533,509.09929488877117
1.6495903335264421,508.09929488877117
1.6505834643714308,508.09929488877117
1.6515765952164196,26.09929488877117
1.6525697260614085,-181.90070511122883
1.6535628569063974,-401.90070511122883
1.6545559877513862,-513.9007051112288
1.6555491185963749,-513.9007051112288
1.6565422494413637,-513.9007051112288
1.6575353802863526,-513.9007051112288
1.6585285111313415,-513.9007051112288
1.6595216419763303,-513.9007051112288
1.6605147728213192,-513.9007051112288
1.6615079036663079,5.099294888771169
1.6625010345112967,394.09929488877117
1.6634941653562856,509.09929488877117
1.6644872962012744,508.09929488877117
1.6654804270462633,508.09929488877117
1.6664735578912522,509.09929488877117
1.6674666887362408,508.09929488877117
1.6684598195812297,509.09929488877117
1.6694529504262186,508.09929488877117
1.6704460812712074,508.09929488877117
1.6714392121161963,90.09929488877117
1.6724323429611851,-175.90070511122883
1.6734254738061738,-462.90070511122883
1.6744186046511627,-513.9007051112288
1.6754117354961515,-513.9007051112288
1.6764048663411404,-513.9007051112288
1.6773979971861293,-513.9007051112288
1.6783911280311181,-513.9007051112288
1.6793842588761068,-513.9007051112288
1.6803773897210956,-513.9007051112288
1.6813705205660845,-1.900705111228831
1.6823636514110734,379.09929488877117
1.6833567822560622,509.09929488877117
1.6843499131010509,508.09929488877117
1.6853430439460397,508.09929488877117
1.6863361747910286,509.09929488877117
1.6873293056360175,508.09929488877117
1.6883224364810063,509.09929488877117
1.6893155673259952,508.09929488877117
1.6903086981709838,508.09929488877117
1.6913018290159727,-1.900705111228831
1.6922949598609616,-187.90070511122883
1.6932880907059504,-477.90070511122883
1.6942812215509393,-513.9007051112288
1.6952743523959282,-513.9007051112288
1.6962674832409168,-513.9007051112288
1.6972606140859057,-513.9007051112288
1.6982537449308945,-513.9007051112288
1.6992468757758834,-513.9007051112288
1.7002400066208723,-513.9007051112288
1.7012331374658611,2.099294888771169
1.7022262683108498,372.09929488877117
1.7032193991558386,509.09929488877117
1.7042125300008275,508.09929488877117
1.7052056608458164,508.09929488877117
1.7061987916908052,508.09929488877117
1.707191922535794,508.09929488877117
1.7081850533807827,509.09929488877117
1.7091781842257716,508.09929488877117
1.7101713150707605,508.09929488877117
1.7111644459157493,87.09929488877117
1.7121575767607382,-190.90070511122883
1.713150707605727,-499.90070511122883
1.7141438384507157,-513.9007051112288
1.7151369692957046,-513.9007051112288
1.7161301001406934,-513.9007051112288
1.7171232309856823,-513.9007051112288
1.7181163618306712,-513.9007051112288
1.7191094926756598,-513.9007051112288
1.7201026235206487,-513.9007051112288
1.7210957543656376,45.09929488877117
1.7220888852106264,376.09929488877117
1.7230820160556153,509.09929488877117
1.7240751469006041,508.09929488877117
1.7250682777455928,508.09929488877117
1.7260614085905817,508.09929488877117
1.7270545394355705,508.09929488877117
1.7280476702805594,509.09929488877117
1.7290408011255483,508.09929488877117
1.7300339319705371,508.09929488877117
1.7310270628155258,61.09929488877117
1.7320201936605146,-193.90070511122883
1.7330133245055035,-509.90070511122883
1.7340064553504924,-513.9007051112288
1.7349995861954812,-513.9007051112288
1.73599271704047,-513.9007051112288
1.7369858478854587,-513.9007051112288
1.7379789787304476,-513.9007051112288
1.7389721095754365,-513.9007051112288
1.7399652404204253,-513.9007051112288
1.7409583712654142,44.09929488877117
1.741951502110403,386.09929488877117
1.7429446329553917,509.09929488877117
1.7439377638003806,508.09929488877117
1.7449308946453694,508.09929488877117
1.7459240254903583,509.09929488877117
1.7469171563353472,508.09929488877117
1.747910287180336,509.09929488877117
1.7489034180253247,508.09929488877117
1.7498965488703135,508.09929488877117
1.7508896797153024,-24.90070511122883
1.7518828105602913,-184.90070511122883
1.7528759414052801,-489.90070511122883
1.7538690722502688,-513.9007051112288
1.7548622030952576,-513.9007051112288
1.7558553339402465,-513.9007051112288
1.7568484647852354,-513.9007051112288
1.7578415956302242,-513.9007051112288
1.758834726475213,-513.9007051112288
1.7598278573202017,-513.9007051112288
1.7608209881651906,38.09929488877117
1.7618141190101795,392.09929488877117
1.7628072498551683,508.09929488877117
1.7638003807001572,508.09929488877117
1.764793511545146,508.09929488877117
1.7657866423901347,509.09929488877117
1.7667797732351236,508.09929488877117
1.7677729040801125,509.09929488877117
1.7687660349251013,508.09929488877117
1.7697591657700902,508.09929488877117
1.770752296615079,-31.90070511122883
1.7717454274600677,-209.90070511122883
1.7727385583050566,-513.9007051112288
1.7737316891500454,-513.9007051112288
1.7747248199950343,-513.9007051112288
1.7757179508400232,-513.9007051112288
1.776711081685012,-513.9007051112288
1.7777042125300007,-513.9007051112288
1.7786973433749895,-513.9007051112288
1.7796904742199784,-513.9007051112288
1.7806836050649673,74.09929488877117
1.7816767359099561,418.09929488877117
1.7826698667549448,509.09929488877117
1.7836629975999336,508.09929488877117
1.7846561284449225,508.09929488877117
1.7856492592899114,509.09929488877117
1.7866423901349002,508.09929488877117
1.787635520979889,509.09929488877117
1.7886286518248777,508.09929488877117
1.7896217826698666,508.09929488877117
1.7906149135148555,-41.90070511122883
1.7916080443598443,-209.90070511122883
1.7926011752048332,-513.9007051112288
1.793594306049822,-513.9007051112288
1.7945874368948107,-513.9007051112288
1.7955805677397996,-513.9007051112288
1.7965736985847884,-513.9007051112288
1.7975668294297773,-513.9007051112288
1.7985599602747662,-513.9007051112288
1.799553091119755,-513.9007051112288
1.8005462219647437,65.09929488877117
1.8015393528097325,397.09929488877117
1.8025324836547214,509.09929488877117
1.8035256144997103,508.09929488877117
1.8045187453446991,508.09929488877117
1.805511876189688,508.09929488877117
1.8065050070346766,508.09929488877117
1.8074981378796655,509.09929488877117
1.8084912687246544,508.09929488877117
1.8094843995696432,508.09929488877117
1.810477530414632,25.09929488877117
1.8114706612596208,-143.90070511122883
1.8124637921046096,-513.9007051112288
1.8134569229495985,-513.9007051112288
1.8144500537945873,-513.9007051112288
1.8154431846395762,-513.9007051112288
1.816436315484565,-513.9007051112288
1.8174294463295537,-513.9007051112288
1.8184225771745426,-513.9007051112288
1.8194157080195315,-513.9007051112288
1.8204088388645203,77.09929488877117
1.8214019697095092,403.09929488877117
1.822395100554498,509.09929488877117
1.8233882313994867,508.09929488877117
1.8243813622444756,508.09929488877117
1.8253744930894644,509.09929488877117
1.8263676239344533,508.09929488877117
1.8273607547794422,509.09929488877117
1.828353885624431,508.09929488877117
1.8293470164694197,508.09929488877117
1.8303401473144085,-41.90070511122883
1.8313332781593974,-205.90070511122883
1.8323264090043863,-513.9007051112288
1.8333195398493751,-513.9007051112288
1.834312670694364,-513.9007051112288
1.8353058015393526,-513.9007051112288
1.8362989323843415,-513.9007051112288
1.8372920632293304,-513.9007051112288
1.8382851940743192,-513.9007051112288
1.839278324919308,-513.9007051112288
1.840271455764297,158.09929488877117
1.8412645866092856,422.09929488877117
1.8422577174542745,509.09929488877117
1.8432508482992633,508.09929488877117
1.8442439791442522,508.09929488877117
1.845237109989241,509.09929488877117
1.8462302408342297,508.09929488877117
1.8472233716792186,509.09929488877117
1.8482165025242074,508.09929488877117
1.8492096333691963,508.09929488877117
1.8502027642141852,-74.90070511122883
1.851195895059174,-198.90070511122883
1.8521890259041627,-513.9007051112288
1.8531821567491515,-513.9007051112288
1.8541752875941404,-513.9007051112288
1.8551684184391293,-513.9007051112288
1.8561615492841181,-513.9007051112288
1.857154680129107,-513.9007051112288
1.8581478109740956,-513.9007051112288
1.8591409418190845,-513.9007051112288
1.8601340726640734,93.09929488877117
1.8611272035090622,433.09929488877117
1.862120334354051,509.09929488877117
1.86311346519904,508.09929488877117
1.8641065960440286,508.09929488877117
1.8650997268890175,509.09929488877117
1.8660928577340063,508.09929488877117
1.8670859885789952,509.09929488877117
1.868079119423984,508.09929488877117
1.869072250268973,508.09929488877117
1.8700653811139616,-80.90070511122883
1.8710585119589505,-252.90070511122883
1.8720516428039393,-513.9007051112288
1.8730447736489282,-513.9007051112288
1.874037904493917,-513.9007051112288
1.875031035338906,-513.9007051112288
1.8760241661838946,-513.9007051112288
1.8770172970288834,-513.9007051112288
1.8780104278738723,-513.9007051112288
1.8790035587188612,-513.9007051112288
1.87999668956385,129.09929488877117
1.8809898204088387,444.09929488877117
1.8819829512538275,509.09929488877117
1.8829760820988164,508.09929488877117
1.8839692129438053,508.09929488877117
1.8849623437887941,508.09929488877117
1.885955474633783,508.09929488877117
1.8869486054787716,509.09929488877117
1.8879417363237605,508.09929488877117
1.8889348671687494,508.09929488877117
1.8899279980137382,-81.90070511122883
1.890921128858727,-240.90070511122883
1.891914259703716,-513.9007051112288
1.8929073905487046,-513.9007051112288
1.8939005213936935,-513.9007051112288
1.8948936522386823,-513.9007051112288
1.8958867830836712,-513.9007051112288
1.89687991392866,-513.9007051112288
1.897873044773649,-513.9007051112288
1.8988661756186376,-513.9007051112288
1.8998593064636264,142.09929488877117
1.9008524373086153,453.09929488877117
1.9018455681536042,509.09929488877117
1.902838698998593,508.09929488877117
1.903831829843582,508.09929488877117
1.9048249606885705,508.09929488877117
1.9058180915335594,508.09929488877117
1.9068112223785483,509.09929488877117
1.9078043532235371,508.09929488877117
1.908797484068526,508.09929488877117
1.9097906149135147,-88.90070511122883
1.9107837457585035,-224.90070511122883
1.9117768766034924,-513.9007051112288
1.9127700074484812,-513.9007051112288
1.9137631382934701,-513.9007051112288
1.914756269138459,-513.9007051112288
1.9157493999834476,-513.9007051112288
1.9167425308284365,-513.9007051112288
1.9177356616734254,-513.9007051112288
1.9187287925184142,-513.9007051112288
1.919721923363403,162.09929488877117
1.920715054208392,458.09929488877117
1.9217081850533806,509.09929488877117
1.9227013158983695,508.09929488877117
1.9236944467433583,508.09929488877117
1.9246875775883472,508.09929488877117
1.925680708433336,508.09929488877117
1.926673839278325,509.09929488877117
1.9276669701233136,508.09929488877117
1.9286601009683024,508.09929488877117
1.9296532318132913,-139.90070511122883
1.9306463626582802,-254.90070511122883
1.931639493503269,-513.9007051112288
1.9326326243482579,-513.9007051112288
1.9336257551932465,-513.9007051112288
1.9346188860382354,-513.9007051112288
1.9356120168832243,-513.9007051112288
1.9366051477282131,-513.9007051112288
1.937598278573202,-513.9007051112288
1.9385914094181906,-513.9007051112288
1.9395845402631795,184.09929488877117
1.9405776711081684,480.09929488877117
1.9415708019531572,509.09929488877117
1.942563932798146,508.09929488877117
1.943557063643135,508.09929488877117
1.9445501944881236,509.09929488877117
1.9455433253331125,508.09929488877117
1.9465364561781013,509.09929488877117
1.9475295870230902,508.09929488877117
1.948522717868079,508.09929488877117
1.949515848713068,-142.90070511122883
1.9505089795580566,-290.90070511122883
1.9515021104030454,-513.9007051112288
1.9524952412480343,-513.9007051112288
1.9534883720930232,-513.9007051112288
1.954481502938012,-513.9007051112288
1.955474633783001,-513.9007051112288
1.9564677646279895,-513.9007051112288
1.9574608954729784,-513.9007051112288
1.9584540263179673,-513.9007051112288
1.9594471571629561,232.09929488877117
1.960440288007945,508.09929488877117
1.9614334188529339,509.09929488877117
1.9624265496979225,508.09929488877117
1.9634196805429114,508.09929488877117
1.9644128113879002,509.09929488877117
1.9654059422328891,508.09929488877117
1.966399073077878,509.09929488877117
1.9673922039228668,508.09929488877117
1.9683853347678555,508.09929488877117
1.9693784656128444,-182.90070511122883
1.9703715964578332,-310.90070511122883
1.971364727302822,-513.9007051112288
1.972357858147811,-513.9007051112288
1.9733509889927996,-513.9007051112288
1.9743441198377885,-513.9007051112288
1.9753372506827773,-513.9007051112288
1.9763303815277662,-513.9007051112288
1.977323512372755,-513.9007051112288
1.978316643217744,-513.9007051112288
1.9793097740627326,266.09929488877117
1.9803029049077214,508.09929488877117
1.9812960357527103,509.09929488877117
1.9822891665976992,508.09929488877117
1.983282297442688,508.09929488877117
1.984275428287677,508.09929488877117
1.9852685591326655,508.09929488877117
1.9862616899776544,509.09929488877117
1.9872548208226433,508.09929488877117
1.9882479516676321,508.09929488877117
1.989241082512621,-193.90070511122883
1.9902342133576099,-328.90070511122883
1.9912273442025985,-513.9007051112288
1.9922204750475874,-513.9007051112288
1.9932136058925762,-513.9007051112288
1.994206736737565,-513.9007051112288
1.995199867582554,-513.9007051112288
1.9961929984275428,-513.9007051112288
1.9971861292725315,-513.9007051112288
1.9981792601175203,-513.9007051112288
1.9991723909625092,247.09929488877117
2.000165521807498,504.09929488877117
2.001158652652487,509.09929488877117
2.002151783497476,508.09929488877117
2.0031449143424647,508.09929488877117
2.0041380451874535,508.09929488877117
2.005131176032442,508.09929488877117
2.006124306877431,509.09929488877117
2.0071174377224197,508.09929488877117
2.0081105685674085,508.09929488877117
2.0091036994123974,-214.90070511122883
2.0100968302573863,-352.90070511122883
2.011089961102375,-513.9007051112288
2.012083091947364,-513.9007051112288
2.013076222792353,-513.9007051112288
2.0140693536373417,-513.9007051112288
2.0150624844823306,-513.9007051112288
2.0160556153273195,-513.9007051112288
2.017048746172308,-513.9007051112288
2.0180418770172968,-513.9007051112288
2.0190350078622856,287.09929488877117
2.0200281387072745,508.09929488877117
2.0210212695522634,509.09929488877117
2.022014400397252,508.09929488877117
2.023007531242241,508.09929488877117
2.02400066208723,508.09929488877117
2.024993792932219,508.09929488877117
2.0259869237772077,509.09929488877117
2.0269800546221965,508.09929488877117
2.0279731854671854,508.09929488877117
2.028966316312174,-277.90070511122883
2.0299594471571627,-360.90070511122883
2.0309525780021516,-513.9007051112288
2.0319457088471404,-513.9007051112288
2.0329388396921293,-513.9007051112288
2.033931970537118,-513.9007051112288
2.034925101382107,-513.9007051112288
2.035918232227096,-513.9007051112288
2.0369113630720848,-513.9007051112288
2.0379044939170736,-513.9007051112288
2.0388976247620625,306.09929488877117
2.039890755607051,508.09929488877117
2.0408838864520398,509.09929488877117
2.0418770172970286,508.09929488877117
2.0428701481420175,508.09929488877117
2.0438632789870064,508.09929488877117
2.0448564098319952,508.09929488877117
2.045849540676984,509.09929488877117
2.046842671521973,508.09929488877117
2.047835802366962,508.09929488877117
2.0488289332119507,-267.90070511122883
2.0498220640569396,-352.90070511122883
2.0508151949019284,-513.9007051112288
2.051808325746917,-513.9007051112288
2.0528014565919057,-513.9007051112288
2.0537945874368946,-513.9007051112288
2.0547877182818834,-513.9007051112288
2.0557808491268723,-513.9007051112288
2.056773979971861,-513.9007051112288
2.05776711081685,-513.9007051112288
2.058760241661839,341.09929488877117
2.0597533725068278,508.09929488877117
2.0607465033518166,509.09929488877117
2.0617396341968055,508.09929488877117
2.0627327650417944,508.09929488877117
2.063725895886783,509.09929488877117
2.0647190267317717,508.09929488877117
2.0657121575767605,509.09929488877117
2.0667052884217494,508.09929488877117
2.0676984192667383,508.09929488877117
2.068691550111727,-273.90070511122883
2.069684680956716,-394.90070511122883
2.070677811801705,-513.9007051112288
2.0716709426466937,-513.9007051112288
2.0726640734916826,-513.9007051112288
2.0736572043366714,-513.9007051112288
2.07465033518166,-513.9007051112288
2.0756434660266487,-513.9007051112288
2.0766365968716376,-513.9007051112288
2.0776297277166265,-513.9007051112288
2.0786228585616153,357.09929488877117
2.079615989406604,508.09929488877117
2.080609120251593,508.09929488877117
2.081602251096582,508.09929488877117
2.082595381941571,508.09929488877117
2.0835885127865597,508.09929488877117
2.0845816436315485,508.09929488877117
2.0855747744765374,509.09929488877117
2.086567905321526,508.09929488877117
2.0875610361665147,508.09929488877117
2.0885541670115035,-335.90070511122883
2.0895472978564924,-370.90070511122883
2.0905404287014813,-513.9007051112288
2.09153355954647,-513.9007051112288
2.092526690391459,-513.9007051112288
2.093519821236448,-513.9007051112288
2.0945129520814367,-513.9007051112288
2.0955060829264256,-513.9007051112288
2.0964992137714145,-513.9007051112288
2.097492344616403,-513.9007051112288
2.0984854754613917,364.09929488877117
2.0994786063063806,508.09929488877117
2.1004717371513695,509.09929488877117
2.1014648679963583,508.09929488877117
2.102457998841347,508.09929488877117
2.103451129686336,508.09929488877117
2.104444260531325,508.09929488877117
2.105437391376314,509.09929488877117
2.1064305222213027,508.09929488877117
2.1074236530662915,508.09929488877117
2.1084167839112804,-295.90070511122883
2.109409914756269,-440.90070511122883
2.1104030456012577,-513.9007051112288
2.1113961764462466,-513.9007051112288
2.1123893072912354,-513.9007051112288
2.1133824381362243,-513.9007051112288
2.114375568981213,-513.9007051112288
2.115368699826202,-513.9007051112288
2.116361830671191,-513.9007051112288
2.1173549615161797,-513.9007051112288
2.1183480923611686,385.09929488877117
2.1193412232061575,508.09929488877117
2.1203343540511463,509.09929488877117
2.1213274848961348,508.09929488877117
2.1223206157411236,508.09929488877117
2.1233137465861125,508.09929488877117
2.1243068774311014,508.09929488877117
2.1253000082760902,509.09929488877117
2.126293139121079,508.09929488877117
2.127286269966068,508.09929488877117
2.128279400811057,-379.90070511122883
2.1292725316560457,-416.90070511122883
2.1302656625010346,-513.9007051112288
2.1312587933460234,-513.9007051112288
2.132251924191012,-513.9007051112288
2.1332450550360007,-513.9007051112288
2.1342381858809896,-513.9007051112288
2.1352313167259784,-513.9007051112288
2.1362244475709673,-513.9007051112288
2.137217578415956,-513.9007051112288
2.138210709260945,437.09929488877117
2.139203840105934,508.09929488877117
2.1401969709509228,509.09929488877117
2.1411901017959116,508.09929488877117
2.1421832326409005,508.09929488877117
2.1431763634858894,509.09929488877117
2.144169494330878,508.09929488877117
2.1451626251758666,509.09929488877117
2.1461557560208555,508.09929488877117
2.1471488868658444,508.09929488877117
2.1481420177108332,-354.90070511122883
2.149135148555822,-465.90070511122883
2.150128279400811,-513.9007051112288
2.1511214102458,-513.9007051112288
2.1521145410907887,-513.9007051112288
2.1531076719357776,-513.9007051112288
2.1541008027807664,-513.9007051112288
2.1550939336257553,-513.9007051112288
2.1560870644707437,-513.9007051112288
2.1570801953157326,-513.9007051112288
2.1580733261607215,409.09929488877117
2.1590664570057103,508.09929488877117
2.160059587850699,509.09929488877117
2.161052718695688,508.09929488877117
2.162045849540677,508.09929488877117
2.1630389803856658,509.09929488877117
2.1640321112306546,508.09929488877117
2.1650252420756435,509.09929488877117
2.1660183729206324,508.09929488877117
2.167011503765621,508.09929488877117
2.1680046346106097,-412.90070511122883
2.1689977654555985,-465.90070511122883
2.1699908963005874,-513.9007051112288
2.1709840271455763,-513.9007051112288
2.171977157990565,-513.9007051112288
2.172970288835554,-513.9007051112288
2.173963419680543,-513.9007051112288
2.1749565505255317,-513.9007051112288
2.1759496813705206,-513.9007051112288
2.1769428122155094,-513.9007051112288
2.1779359430604983,503.09929488877117
2.1789290739054867,508.09929488877117
2.1799222047504756,509.09929488877117
2.1809153355954645,508.09929488877117
2.1819084664404533,508.09929488877117
2.182901597285442,509.09929488877117
2.183894728130431,508.09929488877117
2.18488785897542,509.09929488877117
2.185880989820409,508.09929488877117
2.1868741206653977,508.09929488877117
2.1878672515103865,-413.90070511122883
2.1888603823553754,-486.90070511122883
2.1898535132003643,-513.9007051112288
2.1908466440453527,-513.9007051112288
2.1918397748903415,-513.9007051112288
2.1928329057353304,-513.9007051112288
2.1938260365803193,-513.9007051112288
2.194819167425308,-513.9007051112288
2.195812298270297,-513.9007051112288
2.196805429115286,-513.9007051112288
2.1977985599602747,480.09929488877117
2.1987916908052636,508.09929488877117
2.1997848216502525,509.09929488877117
2.2007779524952413,508.09929488877117
2.2017710833402298,508.09929488877117
2.2027642141852186,508.09929488877117
2.2037573450302075,508.09929488877117
2.2047504758751963,509.09929488877117
2.205743606720185,508.09929488877117
2.206736737565174,508.09929488877117
2.207729868410163,-400.90070511122883
2.208722999255152,-497.90070511122883
2.2097161301001407,-513.9007051112288
2.2107092609451295,-513.9007051112288
2.2117023917901184,-513.9007051112288
2.2126955226351073,-513.9007051112288
2.2136886534800957,-513.9007051112288
2.2146817843250846,-513.9007051112288
2.2156749151700734,-513.9007051112288
2.2166680460150623,-513.9007051112288
2.217661176860051,500.09929488877117
2.21865430770504,508.09929488877117
2.219647438550029,509.09929488877117
2.2206405693950177,508.09929488877117
2.2216337002400066,508.09929488877117
2.2226268310849955,508.09929488877117
2.2236199619299843,508.09929488877117
2.224613092774973,509.09929488877117
2.2256062236199616,508.09929488877117
2.2265993544649505,508.09929488877117
2.2275924853099394,-399.90070511122883
2.2285856161549282,-513.9007051112288
2.229578746999917,-513.9007051112288
2.230571877844906,-513.9007051112288
2.231565008689895,-513.9007051112288
2.2325581395348837,-513.9007051112288
2.2335512703798726,-513.9007051112288
2.2345444012248614,-513.9007051112288
2.2355375320698503,-513.9007051112288
2.2365306629148387,-513.9007051112288
2.2375237937598276,508.09929488877117
2.2385169246048164,508.09929488877117
2.2395100554498053,509.09929488877117
2.240503186294794,508.09929488877117
2.241496317139783,508.09929488877117
2.242489447984772,509.09929488877117
2.2434825788297608,508.09929488877117
2.2444757096747496,508.09929488877117
2.2454688405197385,508.09929488877117
2.2464619713647274,493.09929488877117
2.2474551022097162,-505.90070511122883
2.2484482330547046,-513.9007051112288
2.2494413638996935,-513.9007051112288
2.2504344947446824,-513.9007051112288
2.2514276255896712,-513.9007051112288
2.25242075643466,-513.9007051112288
2.253413887279649,-513.9007051112288
2.254407018124638,-513.9007051112288
2.2554001489696267,-513.9007051112288
2.2563932798146156,-513.9007051112288
2.2573864106596044,508.09929488877117
2.2583795415045933,508.09929488877117
2.2593726723495817,509.09929488877117
2.2603658031945706,508.09929488877117
2.2613589340395595,508.09929488877117
2.2623520648845483,509.09929488877117
2.263345195729537,508.09929488877117
2.264338326574526,509.09929488877117
2.265331457419515,508.09929488877117
2.266324588264504,449.09929488877117
2.2673177191094926,-512.9007051112288
2.2683108499544815,-513.9007051112288
2.2693039807994704,-513.9007051112288
2.2702971116444592,-513.9007051112288
2.2712902424894477,-513.9007051112288
2.2722833733344365,-513.9007051112288
2.2732765041794254,-513.9007051112288
2.2742696350244143,-513.9007051112288
2.275262765869403,-513.9007051112288
2.276255896714392,-411.90070511122883
2.277249027559381,508.09929488877117
2.2782421584043697,508.09929488877117
2.2792352892493586,509.09929488877117
2.2802284200943475,508.09929488877117
2.2812215509393363,508.09929488877117
2.282214681784325,509.09929488877117
2.2832078126293136,508.09929488877117
2.2842009434743025,509.09929488877117
2.2851940743192913,508.09929488877117
2.28618720516428,431.09929488877117
2.287180336009269,-513.9007051112288
2.288173466854258,-513.9007051112288
2.289166597699247,-513.9007051112288
2.2901597285442357,-513.9007051112288
2.2911528593892245,-513.9007051112288
2.2921459902342134,-513.9007051112288
2.2931391210792023,-513.9007051112288
2.2941322519241907,-513.9007051112288
2.2951253827691795,-513.9007051112288
2.2961185136141684,-441.90070511122883
2.2971116444591573,508.09929488877117
2.298104775304146,508.09929488877117
2.299097906149135,509.09929488877117
2.300091036994124,508.09929488877117
2.3010841678391127,508.09929488877117
2.3020772986841016,508.09929488877117
2.3030704295290905,508.09929488877117
2.3040635603740793,508.09929488877117
2.305056691219068,508.09929488877117
2.3060498220640566,386.09929488877117
2.3070429529090455,-513.9007051112288
2.3080360837540344,-513.9007051112288
2.309029214599023,-513.9007051112288
2.310022345444012,-513.9007051112288
2.311015476289001,-513.9007051112288
2.31200860713399,-513.9007051112288
2.3130017379789787,-513.9007051112288
2.3139948688239675,-513.9007051112288
2.3149879996689564,-513.9007051112288
2.3159811305139453,-429.90070511122883
2.316974261358934,508.09929488877117
2.3179673922039226,508.09929488877117
2.3189605230489114,509.09929488877117
2.3199536538939003,508.09929488877117
2.320946784738889,508.09929488877117
2.321939915583878,508.09929488877117
2.322933046428867,508.09929488877117
2.3239261772738558,509.09929488877117
2.3249193081188446,508.09929488877117
2.3259124389638335,355.09929488877117
2.3269055698088223,-510.90070511122883
2.327898700653811,-513.9007051112288
2.3288918314987996,-513.9007051112288
2.3298849623437885,-513.9007051112288
2.3308780931887774,-513.9007051112288
2.3318712240337662,-513.9007051112288
2.332864354878755,-513.9007051112288
2.333857485723744,-513.9007051112288
2.334850616568733,-513.9007051112288
2.3358437474137217,-375.90070511122883
2.3368368782587106,508.09929488877117
2.3378300091036994,508.09929488877117
2.3388231399486883,509.09929488877117
2.339816270793677,508.09929488877117
2.3408094016386656,508.09929488877117
2.3418025324836544,509.09929488877117
2.3427956633286433,508.09929488877117
2.343788794173632,509.09929488877117
2.344781925018621,508.09929488877117
2.34577505586361,348.09929488877117
2.3467681867085988,-513.9007051112288
2.3477613175535876,-513.9007051112288
2.3487544483985765,-513.9007051112288
2.3497475792435654,-513.9007051112288
2.3507407100885542,-513.9007051112288
2.3517338409335427,-513.9007051112288
2.3527269717785315,-513.9007051112288
2.3537201026235204,-513.9007051112288
2.3547132334685092,-513.9007051112288
2.355706364313498,-319.90070511122883
2.356699495158487,508.09929488877117
2.357692626003476,508.09929488877117
2.3586857568484647,508.09929488877117
2.3596788876934536,508.09929488877117
2.3606720185384424,508.09929488877117
2.3616651493834313,509.09929488877117
2.36265828022842,508.09929488877117
2.3636514110734086,508.09929488877117
2.3646445419183975,508.09929488877117
2.3656376727633863,296.09929488877117
2.366630803608375,-513.9007051112288
2.367623934453364,-513.9007051112288
2.368617065298353,-513.9007051112288
2.369610196143342,-513.9007051112288
2.3706033269883307,-513.9007051112288
2.3715964578333195,-513.9007051112288
2.3725895886783084,-513.9007051112288
2.3735827195232972,-513.9007051112288
2.374575850368286,-513.9007051112288
2.3755689812132745,-308.90070511122883
2.3765621120582634,508.09929488877117
2.3775552429032523,508.09929488877117
2.378548373748241,509.09929488877117
2.37954150459323,508.09929488877117
2.380534635438219,508.09929488877117
2.3815277662832077,508.09929488877117
2.3825208971281966,508.09929488877117
2.3835140279731855,509.09929488877117
2.3845071588181743,508.09929488877117
2.385500289663163,268.09929488877117
2.3864934205081516,-513.9007051112288
2.3874865513531405,-513.9007051112288
2.3884796821981293,-513.9007051112288
2.389472813043118,-513.9007051112288
2.390465943888107,-513.9007051112288
2.391459074733096,-513.9007051112288
2.392452205578085,-513.9007051112288
2.3934453364230737,-513.9007051112288
2.3944384672680625,-513.9007051112288
2.3954315981130514,-295.90070511122883
2.3964247289580403,508.09929488877117
2.397417859803029,508.09929488877117
2.3984109906480175,509.09929488877117
2.3994041214930064,508.09929488877117
2.4003972523379953,508.09929488877117
2.401390383182984,508.09929488877117
2.402383514027973,508.09929488877117
2.403376644872962,509.09929488877117
2.4043697757179507,508.09929488877117
2.4053629065629396,249.09929488877117
2.4063560374079285,-513.9007051112288
2.4073491682529173,-513.9007051112288
2.408342299097906,-513.9007051112288
2.409335429942895,-513.9007051112288
2.4103285607878835,-513.9007051112288
2.4113216916328724,-513.9007051112288
2.412314822477861,-513.9007051112288
2.41330795332285,-513.9007051112288
2.414301084167839,-513.9007051112288
2.415294215012828,-262.90070511122883
2.4162873458578167,508.09929488877117
2.4172804767028055,508.09929488877117
2.4182736075477944,509.09929488877117
2.4192667383927833,508.09929488877117
2.420259869237772,508.09929488877117
2.4212530000827606,508.09929488877117
2.4222461309277494,508.09929488877117
2.4232392617727383,509.09929488877117
2.424232392617727,508.09929488877117
2.425225523462716,286.09929488877117
2.426218654307705,-513.9007051112288
2.4272117851526938,-513.9007051112288
2.4282049159976826,-513.9007051112288
2.4291980468426715,-513.9007051112288
2.4301911776876604,-513.9007051112288
2.431184308532649,-513.9007051112288
2.432177439377638,-513.9007051112288
2.4331705702226265,-513.9007051112288
2.4341637010676154,-513.9007051112288
2.4351568319126042,-245.90070511122883
2.436149962757593,508.09929488877117
2.437143093602582,508.09929488877117
2.438136224447571,509.09929488877117
2.4391293552925597,508.09929488877117
2.4401224861375486,508.09929488877117
2.4411156169825374,509.09929488877117
2.4421087478275263,508.09929488877117
2.443101878672515,509.09929488877117
2.444095009517504,508.09929488877117
2.4450881403624924,186.09929488877117
2.4460812712074813,-513.9007051112288
2.44707440205247,-513.9007051112288
2.448067532897459,-513.9007051112288
2.449060663742448,-513.9007051112288
2.4500537945874368,-513.9007051112288
2.4510469254324256,-513.9007051112288
2.4520400562774145,-513.9007051112288
2.4530331871224034,-513.9007051112288
2.4540263179673922,-513.9007051112288
2.455019448812381,-217.90070511122883
2.4560125796573695,508.09929488877117
2.4570057105023584,508.09929488877117
2.4579988413473473,509.09929488877117
2.458991972192336,508.09929488877117
2.459985103037325,508.09929488877117
2.460978233882314,509.09929488877117
2.4619713647273027,508.09929488877117
2.4629644955722916,509.09929488877117
2.4639576264172804,508.09929488877117
2.4649507572622693,166.09929488877117
2.465943888107258,-513.9007051112288
2.466937018952247,-513.9007051112288
2.4679301497972355,-513.9007051112288
2.4689232806422243,-513.9007051112288
2.469916411487213,-513.9007051112288
2.470909542332202,-513.9007051112288
2.471902673177191,-513.9007051112288
2.47289580402218,-513.9007051112288
2.4738889348671687,-513.9007051112288
2.4748820657121575,-122.90070511122883
2.4758751965571464,508.09929488877117
2.4768683274021353,508.09929488877117
2.477861458247124,509.09929488877117
2.478854589092113,508.09929488877117
2.4798477199371014,508.09929488877117
2.4808408507820903,509.09929488877117
2.481833981627079,508.09929488877117
2.482827112472068,508.09929488877117
2.483820243317057,508.09929488877117
2.4848133741620457,126.09929488877117
2.4858065050070346,-513.9007051112288
2.4867996358520235,-513.9007051112288
2.4877927666970123,-513.9007051112288
2.488785897542001,-513.9007051112288
2.48977902838699,-513.9007051112288
2.4907721592319785,-513.9007051112288
2.4917652900769673,-513.9007051112288
2.492758420921956,-513.9007051112288
2.493751551766945,-513.9007051112288
2.494744682611934,-145.90070511122883
2.495737813456923,508.09929488877117
2.4967309443019117,508.09929488877117
2.4977240751469005,509.09929488877117
2.4987172059918894,508.09929488877117
2.4997103368368783,508.09929488877117
2.500703467681867,508.09929488877117
2.501696598526856,508.09929488877117
2.5026897293718444,509.09929488877117
2.5036828602168333,499.09929488877117
2.504675991061822,150.09929488877117
2.505669121906811,-513.9007051112288
2.5066622527518,-513.9007051112288
2.5076553835967887,-513.9007051112288
2.5086485144417776,-513.9007051112288
2.5096416452867665,-513.9007051112288
2.5106347761317553,-513.9007051112288
2.511627906976744,-513.9007051112288
2.512621037821733,-513.9007051112288
2.5136141686667215,-513.9007051112288
2.5146072995117104,-132.90070511122883
2.5156004303566992,509.09929488877117
2.516593561201688,508.09929488877117
2.517586692046677,509.09929488877117
2.518579822891666,508.09929488877117
2.5195729537366547,508.09929488877117
2.5205660845816436,508.09929488877117
2.5215592154266324,508.09929488877117
2.5225523462716213,508.09929488877117
2.52354547711661,406.09929488877117
2.524538607961599,167.09929488877117
2.5255317388065874,-513.9007051112288
2.5265248696515763,-513.9007051112288
2.527518000496565,-513.9007051112288
2.528511131341554,-513.9007051112288
2.529504262186543,-513.9007051112288
2.5304973930315318,-513.9007051112288
2.5314905238765206,-513.9007051112288
2.5324836547215095,-513.9007051112288
2.5334767855664984,-513.9007051112288
2.5344699164114872,-42.90070511122883
2.535463047256476,508.09929488877117
2.536456178101465,508.09929488877117
2.5374493089464534,509.09929488877117
2.5384424397914422,508.09929488877117
2.539435570636431,508.09929488877117
2.54042870148142,508.09929488877117
2.541421832326409,508.09929488877117
2.5424149631713977,509.09929488877117
2.5434080940163866,409.09929488877117
2.5444012248613754,112.09929488877117
2.5453943557063643,-513.9007051112288
2.546387486551353,-513.9007051112288
2.547380617396342,-513.9007051112288
2.5483737482413304,-513.9007051112288
2.5493668790863193,-513.9007051112288
2.550360009931308,-513.9007051112288
2.551353140776297,-513.9007051112288
2.552346271621286,-513.9007051112288
2.5533394024662748,-513.9007051112288
2.5543325333112636,-108.90070511122883
2.5553256641562525,509.09929488877117
2.5563187950012414,508.09929488877117
2.5573119258462302,509.09929488877117
2.558305056691219,508.09929488877117
2.559298187536208,508.09929488877117
2.5602913183811964,509.09929488877117
2.5612844492261853,508.09929488877117
2.562277580071174,509.09929488877117
2.563270710916163,441.09929488877117
2.564263841761152,54.09929488877117
2.5652569726061407,-513.9007051112288
2.5662501034511296,-513.9007051112288
2.5672432342961184,-513.9007051112288
2.5682363651411073,-513.9007051112288
2.569229495986096,-513.9007051112288
2.570222626831085,-513.9007051112288
2.571215757676074,-513.9007051112288
2.5722088885210623,-513.9007051112288
2.573202019366051,-513.9007051112288
2.57419515021104,-15.900705111228831
2.575188281056029,508.09929488877117
2.576181411901018,508.09929488877117
2.5771745427460067,509.09929488877117
2.5781676735909955,508.09929488877117
2.5791608044359844,508.09929488877117
2.5801539352809733,508.09929488877117
2.581147066125962,508.09929488877117
2.582140196970951,509.09929488877117
2.5831333278159394,355.09929488877117
2.5841264586609283,47.09929488877117
2.585119589505917,-513.9007051112288
2.586112720350906,-513.9007051112288
2.587105851195895,-513.9007051112288
2.5880989820408837,-513.9007051112288
2.5890921128858726,-513.9007051112288
2.5900852437308615,-513.9007051112288
2.5910783745758503,-513.9007051112288
2.592071505420839,-513.9007051112288
2.593064636265828,-513.9007051112288
2.594057767110817,-69.90070511122883
2.5950508979558053,508.09929488877117
2.596044028800794,508.09929488877117
2.597037159645783,509.09929488877117
2.598030290490772,508.09929488877117
2.599023421335761,508.09929488877117
2.6000165521807497,509.09929488877117
2.6010096830257385,508.09929488877117
2.6020028138707274,508.09929488877117
2.6029959447157163,464.09929488877117
2.603989075560705,12.099294888771169
2.604982206405694,-513.9007051112288
2.6059753372506824,-513.9007051112288
2.6069684680956713,-513.9007051112288
2.60796159894066,-513.9007051112288
2.608954729785649,-513.9007051112288
2.609947860630638,-513.9007051112288
2.6109409914756267,-513.9007051112288
2.6119341223206156,-513.9007051112288
2.6129272531656045,-513.9007051112288
2.6139203840105933,-61.90070511122883
2.614913514855582,508.09929488877117
2.615906645700571,508.09929488877117
2.61689977654556,509.09929488877117
2.6178929073905484,508.09929488877117
2.6188860382355372,508.09929488877117
2.619879169080526,508.09929488877117
2.620872299925515,508.09929488877117
2.621865430770504,508.09929488877117
2.6228585616154927,310.09929488877117
2.6238516924604816,73.09929488877117
2.6248448233054704,-513.9007051112288
2.6258379541504593,-513.9007051112288
2.626831084995448,-513.9007051112288
2.627824215840437,-513.9007051112288
2.628817346685426,-513.9007051112288
2.6298104775304143,-513.9007051112288
2.630803608375403,-513.9007051112288
2.631796739220392,-513.9007051112288
2.632789870065381,-513.9007051112288
2.6337830009103698,-32.90070511122883
2.6347761317553586,508.09929488877117
2.6357692626003475,508.09929488877117
2.6367623934453364,509.09929488877117
2.6377555242903252,508.09929488877117
2.638748655135314,508.09929488877117
2.639741785980303,509.09929488877117
2.6407349168252914,508.09929488877117
2.6417280476702802,509.09929488877117
2.642721178515269,362.09929488877117
2.643714309360258,31.09929488877117
2.644707440205247,-513.9007051112288
2.6457005710502357,-513.9007051112288
2.6466937018952246,-513.9007051112288
2.6476868327402134,-513.9007051112288
2.6486799635852023,-513.9007051112288
2.649673094430191,-513.9007051112288
2.65066622527518,-513.9007051112288
2.651659356120169,-513.9007051112288
2.6526524869651573,-513.9007051112288
2.653645617810146,-42.90070511122883
2.654638748655135,508.09929488877117
2.655631879500124,508.09929488877117
2.656625010345113,509.09929488877117
2.6576181411901016,508.09929488877117
2.6586112720350905,508.09929488877117
2.6596044028800794,508.09929488877117
2.6605975337250682,508.09929488877117
2.661590664570057,509.09929488877117
2.662583795415046,338.09929488877117
2.663576926260035,-3.900705111228831
2.6645700571050233,-513.9007051112288
2.665563187950012,-513.9007051112288
2.666556318795001,-513.9007051112288
2.66754944963999,-513.9007051112288
2.6685425804849787,-513.9007051112288
2.6695357113299676,-513.9007051112288
2.6705288421749565,-513.9007051112288
2.6715219730199453,-513.9007051112288
2.672515103864934,-513.9007051112288
2.673508234709923,-25.90070511122883
2.674501365554912,508.09929488877117
2.6754944963999003,508.09929488877117
2.676487627244889,509.09929488877117
2.677480758089878,508.09929488877117
2.678473888934867,508.09929488877117
2.679467019779856,509.09929488877117
2.6804601506248447,508.09929488877117
2.6814532814698335,509.09929488877117
2.6824464123148224,370.09929488877117
2.6834395431598113,-22.90070511122883
2.6844326740048,-513.9007051112288
2.685425804849789,-513.9007051112288
2.686418935694778,-513.9007051112288
2.6874120665397663,-513.9007051112288
2.688405197384755,-513.9007051112288
2.689398328229744,-513.9007051112288
2.690391459074733,-513.9007051112288
2.6913845899197217,-513.9007051112288
2.6923777207647106,-513.9007051112288
2.6933708516096995,-11.900705111228831
2.6943639824546883,508.09929488877117
2.695357113299677,508.09929488877117
2.696350244144666,509.09929488877117
2.697343374989655,508.09929488877117
2.698336505834644,508.09929488877117
2.699329636679632,508.09929488877117
2.700322767524621,508.09929488877117
2.70131589836961,509.09929488877117
2.702309029214599,306.09929488877117
2.7033021600595877,-9.900705111228831
2.7042952909045765,-513.9007051112288
2.7052884217495654,-513.9007051112288
2.7062815525945543,-513.9007051112288
2.707274683439543,-513.9007051112288
2.708267814284532,-513.9007051112288
2.709260945129521,-513.9007051112288
2.7102540759745093,-513.9007051112288
2.711247206819498,-513.9007051112288
2.712240337664487,-513.9007051112288
2.713233468509476,-2.900705111228831
2.7142265993544648,508.09929488877117
2.7152197301994536,508.09929488877117
2.7162128610444425,508.09929488877117
2.7172059918894313,508.09929488877117
2.71819912273442,508.09929488877117
2.719192253579409,508.09929488877117
2.720185384424398,508.09929488877117
2.721178515269387,509.09929488877117
2.7221716461143752,282.09929488877117
2.723164776959364,36.09929488877117
2.724157907804353,-513.9007051112288
2.725151038649342,-513.9007051112288
2.7261441694943307,-513.9007051112288
2.7271373003393196,-513.9007051112288
2.7281304311843084,-513.9007051112288
2.7291235620292973,-513.9007051112288
2.730116692874286,-513.9007051112288
2.731109823719275,-513.9007051112288
2.732102954564264,-513.9007051112288
2.7330960854092528,12.099294888771169
2.734089216254241,508.09929488877117
2.73508234709923,508.09929488877117
2.736075477944219,508.09929488877117
2.7370686087892078,508.09929488877117
2.7380617396341966,508.09929488877117
2.7390548704791855,509.09929488877117
2.7400480013241744,508.09929488877117
2.7410411321691632,509.09929488877117
2.742034263014152,384.09929488877117
2.743027393859141,-46.90070511122883
2.74402052470413,-513.9007051112288
2.7450136555491182,-513.9007051112288
2.746006786394107,-513.9007051112288
2.746999917239096,-513.9007051112288
2.747993048084085,-513.9007051112288
2.7489861789290737,-513.9007051112288
2.7499793097740626,-513.9007051112288
2.7509724406190514,-513.9007051112288
2.7519655714640403,-513.9007051112288
2.752958702309029,29.09929488877117
2.753951833154018,508.09929488877117
2.754944963999007,508.09929488877117
2.7559380948439958,508.09929488877117
2.756931225688984,508.09929488877117
2.757924356533973,508.09929488877117
2.758917487378962,509.09929488877117
2.759910618223951,508.09929488877117
2.7609037490689396,509.09929488877117
2.7618968799139285,356.09929488877117
2.7628900107589174,-52.90070511122883
2.7638831416039062,-513.9007051112288
2.764876272448895,-513.9007051112288
2.765869403293884,-513.9007051112288
2.766862534138873,-513.9007051112288
2.7678556649838613,-513.9007051112288
2.76884879582885,-513.9007051112288
2.769841926673839,-513.9007051112288
2.770835057518828,-513.9007051112288
2.7718281883638167,-513.9007051112288
2.7728213192088056,108.09929488877117
2.7738144500537945,508.09929488877117
2.7748075808987833,508.09929488877117
2.775800711743772,508.09929488877117
2.776793842588761,508.09929488877117
2.77778697343375,508.09929488877117
2.778780104278739,508.09929488877117
2.779773235123727,508.09929488877117
2.780766365968716,509.09929488877117
2.781759496813705,292.09929488877117
2.782752627658694,7.099294888771169
2.7837457585036827,-513.9007051112288
2.7847388893486715,-513.9007051112288
2.7857320201936604,-513.9007051112288
2.7867251510386493,-513.9007051112288
2.787718281883638,-513.9007051112288
2.788711412728627,-513.9007051112288
2.789704543573616,-513.9007051112288
2.7906976744186047,-513.9007051112288
2.791690805263593,-513.9007051112288
2.792683936108582,21.09929488877117
2.793677066953571,508.09929488877117
2.7946701977985597,508.09929488877117
2.7956633286435486,508.09929488877117
2.7966564594885375,508.09929488877117
2.7976495903335263,508.09929488877117
2.798642721178515,509.09929488877117
2.799635852023504,508.09929488877117
2.800628982868493,509.09929488877117
2.801622113713482,370.09929488877117
2.80261524455847,-56.90070511122883
2.803608375403459,-513.9007051112288
2.804601506248448,-513.9007051112288
2.805594637093437,-513.9007051112288
2.8065877679384257,-513.9007051112288
2.8075808987834145,-513.9007051112288
2.8085740296284034,-513.9007051112288
2.8095671604733923,-513.9007051112288
2.810560291318381,-513.9007051112288
2.81155342216337,-513.9007051112288
2.812546553008359,54.09929488877117
2.8135396838533477,508.09929488877117
2.814532814698336,508.09929488877117
2.815525945543325,509.09929488877117
2.816519076388314,508.09929488877117
2.8175122072333028,508.09929488877117
2.8185053380782916,508.09929488877117
2.8194984689232805,508.09929488877117
2.8204915997682694,508.09929488877117
2.821484730613258,295.09929488877117
2.822477861458247,47.09929488877117
2.823470992303236,-513.9007051112288
2.824464123148225,-513.9007051112288
2.8254572539932137,-513.9007051112288
2.826450384838202,-513.9007051112288
2.827443515683191,-513.9007051112288
2.82843664652818,-513.9007051112288
2.8294297773731687,-513.9007051112288
2.8304229082181576,-513.9007051112288
2.8314160390631464,-513.9007051112288
2.8324091699081353,42.09929488877117
2.833402300753124,508.09929488877117
2.834395431598113,508.09929488877117
2.835388562443102,508.09929488877117
2.8363816932880908,508.09929488877117
2.837374824133079,508.09929488877117
2.838367954978068,509.09929488877117
2.839361085823057,508.09929488877117
2.8403542166680458,509.09929488877117
2.8413473475130346,426.09929488877117
2.8423404783580235,-50.90070511122883
2.8433336092030124,-513.9007051112288
2.8443267400480012,-513.9007051112288
2.84531987089299,-513.9007051112288
2.846313001737979,-513.9007051112288
2.847306132582968,-513.9007051112288
2.8482992634279567,-513.9007051112288
2.849292394272945,-513.9007051112288
2.850285525117934,-513.9007051112288
2.851278655962923,-513.9007051112288
2.8522717868079117,58.09929488877117
2.8532649176529006,508.09929488877117
2.8542580484978894,508.09929488877117
2.8552511793428783,508.09929488877117
2.856244310187867,508.09929488877117
2.857237441032856,508.09929488877117
2.858230571877845,509.09929488877117
2.8592237027228338,508.09929488877117
2.860216833567822,509.09929488877117
2.861209964412811,432.09929488877117
2.8622030952578,-54.90070511122883
2.863196226102789,-513.9007051112288
2.8641893569477777,-513.9007051112288
2.8651824877927665,-513.9007051112288
2.8661756186377554,-513.9007051112288
2.8671687494827442,-513.9007051112288
2.868161880327733,-513.9007051112288
2.869155011172722,-513.9007051112288
2.870148142017711,-513.9007051112288
2.8711412728626997,-513.9007051112288
2.872134403707688,105.09929488877117
2.873127534552677,508.09929488877117
2.874120665397666,508.09929488877117
2.8751137962426547,508.09929488877117
2.8761069270876436,508.09929488877117
2.8771000579326325,508.09929488877117
2.8780931887776213,509.09929488877117
2.87908631962261,508.09929488877117
2.880079450467599,509.09929488877117
2.881072581312588,423.09929488877117
2.882065712157577,-47.90070511122883
2.8830588430025657,-513.9007051112288
2.884051973847554,-513.9007051112288
2.885045104692543,-513.9007051112288
2.886038235537532,-513.9007051112288
2.8870313663825207,-513.9007051112288
2.8880244972275095,-513.9007051112288
2.8890176280724984,-513.9007051112288
2.8900107589174873,-513.9007051112288
2.891003889762476,-513.9007051112288
2.891997020607465,78.09929488877117
2.892990151452454,508.09929488877117
2.8939832822974427,508.09929488877117
2.894976413142431,509.09929488877117
2.89596954398742,508.09929488877117
2.896962674832409,508.09929488877117
2.8979558056773977,508.09929488877117
2.8989489365223866,508.09929488877117
2.8999420673673755,509.09929488877117
2.9009351982123643,376.09929488877117
2.901928329057353,-58.90070511122883
2.902921459902342,-513.9007051112288
2.903914590747331,-513.9007051112288
2.90490772159232,-513.9007051112288
2.9059008524373087,-513.9007051112288
2.906893983282297,-513.9007051112288
2.907887114127286,-513.9007051112288
2.908880244972275,-513.9007051112288
2.9098733758172637,-513.9007051112288
2.9108665066622526,-513.9007051112288
2.9118596375072414,70.09929488877117
2.9128527683522303,508.09929488877117
2.913845899197219,508.09929488877117
2.914839030042208,508.09929488877117
2.915832160887197,508.09929488877117
2.9168252917321857,508.09929488877117
2.9178184225771746,508.09929488877117
2.918811553422163,508.09929488877117
2.919804684267152,509.09929488877117
2.9207978151121408,371.09929488877117
2.9217909459571296,9.099294888771169
2.9227840768021185,-513.9007051112288
2.9237772076471074,-513.9007051112288
2.9247703384920962,-513.9007051112288
2.925763469337085,-513.9007051112288
2.926756600182074,-513.9007051112288
2.927749731027063,-513.9007051112288
2.9287428618720517,-513.9007051112288
2.92973599271704,-513.9007051112288
2.930729123562029,-513.9007051112288
2.931722254407018,66.09929488877117
2.9327153852520067,509.09929488877117
2.9337085160969956,508.09929488877117
2.9347016469419844,509.09929488877117
2.9356947777869733,508.09929488877117
2.936687908631962,508.09929488877117
2.937681039476951,509.09929488877117
2.93867417032194,508.09929488877117
2.9396673011669288,509.09929488877117
2.9406604320119176,450.09929488877117
2.941653562856906,-62.90070511122883
2.942646693701895,-513.9007051112288
2.9436398245468838,-513.9007051112288
2.9446329553918726,-513.9007051112288
2.9456260862368615,-513.9007051112288
2.9466192170818504,-513.9007051112288
2.9476123479268392,-513.9007051112288
2.948605478771828,-513.9007051112288
2.949598609616817,-513.9007051112288
2.950591740461806,-513.9007051112288
2.9515848713067947,69.09929488877117
2.9525780021517836,508.09929488877117
2.953571132996772,508.09929488877117
2.954564263841761,509.09929488877117
2.9555573946867497,508.09929488877117
2.9565505255317386,508.09929488877117
2.9575436563767274,509.09929488877117
2.9585367872217163,508.09929488877117
2.959529918066705,508.09929488877117
2.960523048911694,450.09929488877117
2.961516179756683,-54.90070511122883
2.9625093106016718,-513.9007051112288
2.9635024414466606,-513.9007051112288
2.964495572291649,-513.9007051112288
2.965488703136638,-513.9007051112288
2.966481833981627,-513.9007051112288
2.9674749648266157,-513.9007051112288
2.9684680956716045,-513.9007051112288
2.9694612265165934,-513.9007051112288
2.9704543573615823,-513.9007051112288
2.971447488206571,81.09929488877117
2.97244061905156,508.09929488877117
2.973433749896549,508.09929488877117
2.9744268807415377,509.09929488877117
2.9754200115865266,508.09929488877117
2.976413142431515,508.09929488877117
2.977406273276504,508.09929488877117
2.9783994041214927,508.09929488877117
2.9793925349664816,509.09929488877117
2.9803856658114705,469.09929488877117
2.9813787966564593,-61.90070511122883
2.982371927501448,-513.9007051112288
2.983365058346437,-513.9007051112288
2.984358189191426,-513.9007051112288
2.985351320036415,-513.9007051112288
2.9863444508814037,-513.9007051112288
2.9873375817263925,-513.9007051112288
2.988330712571381,-513.9007051112288
2.98932384341637,-513.9007051112288
2.9903169742613587,-513.9007051112288
2.9913101051063475,91.09929488877117
2.9923032359513364,508.09929488877117
2.9932963667963253,508.09929488877117
2.994289497641314,509.09929488877117
2.995282628486303,508.09929488877117
2.996275759331292,508.09929488877117
2.9972688901762807,508.09929488877117
2.9982620210212696,508.09929488877117
2.999255151866258,509.09929488877117
3.000248282711247,383.09929488877117
3.0012414135562357,-48.90070511122883
3.0022345444012246,-513.9007051112288
3.0032276752462135,-513.9007051112288
3.0042208060912023,-513.9007051112288
3.005213936936191,-513.9007051112288
3.00620706778118,-513.9007051112288
3.007200198626169,-513.9007051112288
3.008193329471158,-513.9007051112288
3.0091864603161467,-513.9007051112288
3.0101795911611355,-513.9007051112288
3.011172722006124,98.09929488877117
3.012165852851113,508.09929488877117
3.0131589836961017,508.09929488877117
3.0141521145410906,509.09929488877117
3.0151452453860794,508.09929488877117
3.0161383762310683,508.09929488877117
3.017131507076057,508.09929488877117
3.018124637921046,508.09929488877117
3.019117768766035,509.09929488877117
3.0201108996110237,392.09929488877117
3.0211040304560126,7.099294888771169
3.022097161301001,-513.9007051112288
3.02309029214599,-513.9007051112288
3.0240834229909788,-513.9007051112288
3.0250765538359676,-513.9007051112288
3.0260696846809565,-513.9007051112288
3.0270628155259454,-513.9007051112288
3.0280559463709342,-513.9007051112288
3.029049077215923,-513.9007051112288
3.030042208060912,-513.9007051112288
3.031035338905901,96.09929488877117
3.0320284697508897,508.09929488877117
3.0330216005958786,508.09929488877117
3.034014731440867,508.09929488877117
3.035007862285856,508.09929488877117
3.0360009931308447,508.09929488877117
3.0369941239758336,509.09929488877117
3.0379872548208224,508.09929488877117
3.0389803856658113,509.09929488877117
3.0399735165108,470.09929488877117
3.040966647355789,-65.90070511122883
3.041959778200778,-513.9007051112288
3.0429529090457668,-513.9007051112288
3.0439460398907556,-513.9007051112288
3.0449391707357445,-513.9007051112288
3.045932301580733,-513.9007051112288
3.046925432425722,-513.9007051112288
3.0479185632707106,-513.9007051112288
3.0489116941156995,-513.9007051112288
3.0499048249606884,-513.9007051112288
3.0508979558056772,110.09929488877117
3.051891086650666,508.09929488877117
3.052884217495655,508.09929488877117
3.053877348340644,509.09929488877117
3.0548704791856327,508.09929488877117
3.0558636100306216,508.09929488877117
3.05685674087561,508.09929488877117
3.057849871720599,508.09929488877117
3.0588430025655877,508.09929488877117
3.0598361334105766,489.09929488877117
3.0608292642555655,-75.90070511122883
3.0618223951005543,-513.9007051112288
3.062815525945543,-513.9007051112288
3.063808656790532,-513.9007051112288
3.064801787635521,-513.9007051112288
3.06579491848051,-513.9007051112288
3.0667880493254986,-513.9007051112288
3.0677811801704875,-513.9007051112288
3.068774311015476,-513.9007051112288
3.069767441860465,-513.9007051112288
3.0707605727054537,103.09929488877117
3.0717537035504425,508.09929488877117
3.0727468343954314,508.09929488877117
3.0737399652404203,509.09929488877117
3.074733096085409,508.09929488877117
3.075726226930398,508.09929488877117
3.076719357775387,508.09929488877117
3.0777124886203757,508.09929488877117
3.0787056194653646,508.09929488877117
3.0796987503103535,506.09929488877117
3.080691881155342,-73.90070511122883
3.0816850120003307,-513.9007051112288
3.0826781428453196,-513.9007051112288
3.0836712736903085,-513.9007051112288
3.0846644045352973,-513.9007051112288
3.085657535380286,-513.9007051112288
3.086650666225275,-513.9007051112288
3.087643797070264,-513.9007051112288
3.088636927915253,-513.9007051112288
3.0896300587602417,-513.9007051112288
3.0906231896052305,84.09929488877117
3.091616320450219,508.09929488877117
3.092609451295208,508.09929488877117
3.0936025821401967,508.09929488877117
3.0945957129851855,508.09929488877117
3.0955888438301744,508.09929488877117
3.0965819746751633,509.09929488877117
3.097575105520152,508.09929488877117
3.098568236365141,509.09929488877117
3.09956136721013,508.09929488877117
3.1005544980551187,-105.90070511122883
3.1015476289001076,-513.9007051112288
3.1025407597450965,-513.9007051112288
3.103533890590085,-513.9007051112288
3.1045270214350738,-513.9007051112288
3.1055201522800626,-513.9007051112288
3.1065132831250515,-513.9007051112288
3.1075064139700403,-513.9007051112288
3.108499544815029,-513.9007051112288
3.109492675660018,-513.9007051112288
3.110485806505007,78.09929488877117
3.111478937349996,508.09929488877117
3.1124720681949847,508.09929488877117
3.1134651990399735,508.09929488877117
3.114458329884962,508.09929488877117
3.115451460729951,509.09929488877117
3.1164445915749397,508.09929488877117
3.1174377224199286,508.09929488877117
3.1184308532649174,508.09929488877117
3.1194239841099063,478.09929488877117
3.120417114954895,-53.90070511122883
3.121410245799884,-513.9007051112288
3.122403376644873,-513.9007051112288
3.1233965074898618,-513.9007051112288
3.1243896383348506,-513.9007051112288
3.1253827691798395,-513.9007051112288
3.126375900024828,-513.9007051112288
3.1273690308698168,-513.9007051112288
3.1283621617148056,-513.9007051112288
3.1293552925597945,-513.9007051112288
3.1303484234047834,141.09929488877117
3.1313415542497722,508.09929488877117
3.132334685094761,508.09929488877117
3.13332781593975,508.09929488877117
3.134320946784739,508.09929488877117
3.1353140776297277,508.09929488877117
3.1363072084747166,508.09929488877117
3.1373003393197054,508.09929488877117
3.138293470164694,508.09929488877117
3.1392866010096827,508.09929488877117
3.1402797318546716,-56.90070511122883
3.1412728626996604,-513.9007051112288
3.1422659935446493,-513.9007051112288
3.143259124389638,-513.9007051112288
3.144252255234627,-513.9007051112288
