Time,EMG
0.0,9.0
0.0026042796996397412,6.0
0.0052085593992794825,6.0
0.007812839098919224,4.0
0.010417118798558965,0.0
0.013021398498198706,-4.0
0.015625678197838447,-7.0
0.018229957897478187,-5.0
0.02083423759711793,-7.0
0.023438517296757673,-14.0
0.026042796996397412,-9.0
0.028647076696037152,-2.0
0.031251356395676895,-9.0
0.03385563609531664,-7.0
0.036459915794956374,-1.0
0.03906419549459612,2.0
0.04166847519423586,5.0
0.0442727548938756,6.0
0.046877034593515346,8.0
0.04948131429315508,11.0
0.052085593992794825,11.0
0.05468987369243457,8.0
0.057294153392074304,7.0
0.05989843309171405,4.0
0.06250271279135379,2.0
0.06510699249099353,-2.0
0.06771127219063328,-8.0
0.07031555189027301,-11.0
0.07291983158991275,-8.0
0.0755241112895525,-5.0
0.07812839098919223,-5.0
0.08073267068883198,-6.0
0.08333695038847172,-13.0
0.08594123008811146,-11.0
0.0885455097877512,2.0
0.09114978948739094,5.0
0.09375406918703069,8.0
0.09635834888667043,8.0
0.09896262858631016,9.0
0.10156690828594991,7.0
0.10417118798558965,5.0
0.10677546768522939,12.0
0.10937974738486914,13.0
0.11198402708450887,2.0
0.11458830678414861,-3.0
0.11719258648378836,-4.0
0.1197968661834281,-5.0
0.12240114588306784,-9.0
0.12500542558270758,-11.0
0.12760970528234733,-10.0
0.13021398498198705,-8.0
0.1328182646816268,-9.0
0.13542254438126655,-7.0
0.13802682408090627,-3.0
0.14063110378054602,-1.0
0.14323538348018577,2.0
0.1458396631798255,4.0
0.14844394287946525,9.0
0.151048222579105,8.0
0.15365250227874475,12.0
0.15625678197838447,11.0
0.15886106167802422,7.0
0.16146534137766397,7.0
0.1640696210773037,5.0
0.16667390077694344,2.0
0.1692781804765832,-2.0
0.1718824601762229,-9.0
0.17448673987586266,-8.0
0.1770910195755024,-10.0
0.17969529927514213,-9.0
0.18229957897478188,-9.0
0.18490385867442163,-6.0
0.18750813837406138,-8.0
0.1901124180737011,-7.0
0.19271669777334086,1.0
0.1953209774729806,2.0
0.19792525717262033,3.0
0.20052953687226008,4.0
0.20313381657189983,8.0
0.20573809627153955,13.0
0.2083423759711793,9.0
0.21094665567081905,4.0
0.21355093537045877,6.0
0.21615521507009852,7.0
0.21875949476973827,4.0
0.221363774469378,2.0
0.22396805416901774,-4.0
0.2265723338686575,-11.0
0.22917661356829722,-12.0
0.23178089326793697,-10.0
0.23438517296757672,-7.0
0.23698945266721647,-5.0
0.2395937323668562,-9.0
0.24219801206649594,-9.0
0.2448022917661357,-1.0
0.2474065714657754,-2.0
0.25001085116541516,6.0
0.2526151308650549,14.0
0.25521941056469466,14.0
0.2578236902643344,11.0
0.2604279699639741,5.0
0.2630322496636139,5.0
0.2656365293632536,5.0
0.2682408090628933,7.0
0.2708450887625331,3.0
0.2734493684621728,-2.0
0.27605364816181255,-7.0
0.2786579278614523,-9.0
0.28126220756109205,-9.0
0.28386648726073177,-13.0
0.28647076696037155,-8.0
0.28907504666001127,-5.0
0.291679326359651,-6.0
0.29428360605929077,-8.0
0.2968878857589305,-2.0
0.29949216545857027,4.0
0.30209644515821,6.0
0.3047007248578497,10.0
0.3073050045574895,11.0
0.3099092842571292,9.0
0.31251356395676894,7.0
0.3151178436564087,5.0
0.31772212335604844,8.0
0.32032640305568816,4.0
0.32293068275532794,1.0
0.32553496245496766,-3.0
0.3281392421546074,-7.0
0.33074352185424716,-13.0
0.3333478015538869,-10.0
0.3359520812535266,1.0
0.3385563609531664,-5.0
0.3411606406528061,-7.0
0.3437649203524458,-7.0
0.3463692000520856,-9.0
0.3489734797517253,-5.0
0.35157775945136505,-1.0
0.3541820391510048,4.0
0.35678631885064455,9.0
0.35939059855028427,12.0
0.36199487824992405,11.0
0.36459915794956377,9.0
0.3672034376492035,5.0
0.36980771734884327,5.0
0.372411997048483,2.0
0.37501627674812277,1.0
0.3776205564477625,2.0
0.3802248361474022,-5.0
0.382829115847042,-8.0
0.3854333955466817,-11.0
0.38803767524632143,-9.0
0.3906419549459612,-6.0
0.39324623464560093,-2.0
0.39585051434524066,-5.0
0.39845479404488043,-10.0
0.40105907374452016,-8.0
0.4036633534441599,-4.0
0.40626763314379966,6.0
0.4088719128434394,10.0
0.4114761925430791,9.0
0.4140804722427189,12.0
0.4166847519423586,9.0
0.4192890316419983,8.0
0.4218933113416381,8.0
0.4244975910412778,5.0
0.42710187074091754,1.0
0.4297061504405573,-2.0
0.43231043014019704,-5.0
0.43491470983983677,-7.0
0.43751898953947654,-10.0
0.44012326923911627,-9.0
0.442727548938756,-6.0
0.44533182863839577,-3.0
0.4479361083380355,-5.0
0.4505403880376752,-10.0
0.453144667737315,-6.0
0.4557489474369547,-2.0
0.45835322713659443,5.0
0.4609575068362342,8.0
0.46356178653587393,10.0
0.4661660662355137,11.0
0.46877034593515343,8.0
0.47137462563479315,8.0
0.47397890533443293,9.0
0.47658318503407265,4.0
0.4791874647337124,1.0
0.48179174443335215,0.0
0.4843960241329919,0.0
0.4870003038326316,-9.0
0.4896045835322714,-12.0
0.4922088632319111,-12.0
0.4948131429315508,-12.0
0.4974174226311906,-8.0
0.5000217023308303,-3.0
0.50262598203047,-7.0
0.5052302617301098,-4.0
0.5078345414297496,4.0
0.5104388211293893,7.0
0.513043100829029,10.0
0.5156473805286688,12.0
0.5182516602283085,8.0
0.5208559399279482,6.0
0.523460219627588,4.0
0.5260644993272278,8.0
0.5286687790268675,6.0
0.5312730587265072,3.0
0.5338773384261469,0.0
0.5364816181257867,-6.0
0.5390858978254265,-7.0
0.5416901775250662,-9.0
0.5442944572247059,-9.0
0.5468987369243457,-10.0
0.5495030166239854,-11.0
0.5521072963236251,-8.0
0.5547115760232649,-4.0
0.5573158557229047,-2.0
0.5599201354225444,-2.0
0.5625244151221841,0.0
0.5651286948218238,15.0
0.5677329745214635,14.0
0.5703372542211034,12.0
0.5729415339207431,9.0
0.5755458136203828,4.0
0.5781500933200225,2.0
0.5807543730196623,3.0
0.583358652719302,4.0
0.5859629324189418,0.0
0.5885672121185815,-7.0
0.5911714918182213,-7.0
0.593775771517861,-8.0
0.5963800512175007,-12.0
0.5989843309171405,-8.0
0.6015886106167803,-5.0
0.60419289031642,-7.0
0.6067971700160597,-9.0
0.6094014497156994,-6.0
0.6120057294153392,0.0
0.614610009114979,9.0
0.6172142888146187,9.0
0.6198185685142584,12.0
0.6224228482138981,13.0
0.6250271279135379,12.0
0.6276314076131776,3.0
0.6302356873128174,1.0
0.6328399670124571,-3.0
0.6354442467120969,-1.0
0.6380485264117366,-1.0
0.6406528061113763,-6.0
0.643257085811016,-7.0
0.6458613655106559,-6.0
0.6484656452102956,-7.0
0.6510699249099353,-7.0
0.653674204609575,-4.0
0.6562784843092148,-6.0
0.6588827640088545,-4.0
0.6614870437084943,-5.0
0.664091323408134,-8.0
0.6666956031077738,3.0
0.6692998828074135,16.0
0.6719041625070532,14.0
0.674508442206693,11.0
0.6771127219063328,9.0
0.6797170016059725,5.0
0.6823212813056122,6.0
0.6849255610052519,5.0
0.6875298407048916,-1.0
0.6901341204045315,-3.0
0.6927384001041712,-6.0
0.6953426798038109,-6.0
0.6979469595034506,-5.0
0.7005512392030904,-10.0
0.7031555189027301,-9.0
0.7057597986023699,-9.0
0.7083640783020096,-11.0
0.7109683580016494,-4.0
0.7135726377012891,1.0
0.7161769174009288,4.0
0.7187811971005685,5.0
0.7213854768002084,9.0
0.7239897564998481,11.0
0.7265940361994878,11.0
0.7291983158991275,7.0
0.7318025955987673,1.0
0.734406875298407,3.0
0.7370111549980468,6.0
0.7396154346976865,3.0
0.7422197143973263,1.0
0.744823994096966,-4.0
0.7474282737966057,-5.0
0.7500325534962455,-11.0
0.7526368331958853,-11.0
0.755241112895525,-12.0
0.7578453925951647,-7.0
0.7604496722948044,-3.0
0.7630539519944441,-4.0
0.765658231694084,-4.0
0.7682625113937237,0.0
0.7708667910933634,3.0
0.7734710707930031,8.0
0.7760753504926429,10.0
0.7786796301922826,10.0
0.7812839098919224,9.0
0.7838881895915621,4.0
0.7864924692912019,6.0
0.7890967489908416,4.0
0.7917010286904813,2.0
0.794305308390121,-1.0
0.7969095880897609,-3.0
0.7995138677894006,-9.0
0.8021181474890403,-10.0
0.80472242718868,-12.0
0.8073267068883198,-8.0
0.8099309865879595,-4.0
0.8125352662875993,-7.0
0.815139545987239,-7.0
0.8177438256868788,-2.0
0.8203481053865185,0.0
0.8229523850861582,6.0
0.8255566647857979,9.0
0.8281609444854378,10.0
0.8307652241850775,10.0
0.8333695038847172,10.0
0.8359737835843569,8.0
0.8385780632839966,4.0
0.8411823429836365,1.0
0.8437866226832762,3.0
0.8463909023829159,2.0
0.8489951820825556,-4.0
0.8515994617821954,-7.0
0.8542037414818351,-11.0
0.8568080211814749,-14.0
0.8594123008811146,-12.0
0.8620165805807544,-6.0
0.8646208602803941,-3.0
0.8672251399800338,-7.0
0.8698294196796735,-4.0
0.8724336993793134,-3.0
0.8750379790789531,4.0
0.8776422587785928,8.0
0.8802465384782325,14.0
0.8828508181778723,12.0
0.885455097877512,11.0
0.8880593775771518,6.0
0.8906636572767915,4.0
0.8932679369764313,1.0
0.895872216676071,-2.0
0.8984764963757107,-3.0
0.9010807760753504,-4.0
0.9036850557749903,-8.0
0.90628933547463,-4.0
0.9088936151742697,-8.0
0.9114978948739094,-10.0
0.9141021745735491,-4.0
0.9167064542731889,-4.0
0.9193107339728287,-5.0
0.9219150136724684,-7.0
0.9245192933721081,0.0
0.9271235730717479,8.0
0.9297278527713876,9.0
0.9323321324710274,8.0
0.9349364121706671,8.0
0.9375406918703069,5.0
0.9401449715699466,3.0
0.9427492512695863,5.0
0.945353530969226,8.0
0.9479578106688659,5.0
0.9505620903685056,0.0
0.9531663700681453,-4.0
0.955770649767785,-6.0
0.9583749294674248,-10.0
0.9609792091670645,-10.0
0.9635834888667043,-10.0
0.966187768566344,-3.0
0.9687920482659838,-7.0
0.9713963279656235,-13.0
0.9740006076652632,-15.0
0.9766048873649029,6.0
0.9792091670645428,17.0
0.9818134467641825,10.0
0.9844177264638222,9.0
0.9870220061634619,7.0
0.9896262858631016,8.0
0.9922305655627414,4.0
0.9948348452623812,6.0
0.9974391249620209,5.0
1.0000434046616606,3.0
1.0026476843613004,-1.0
1.00525196406094,-5.0
1.0078562437605798,-11.0
1.0104605234602195,-9.0
1.0130648031598593,-11.0
1.0156690828594992,-8.0
1.018273362559139,-6.0
1.0208776422587786,-7.0
1.0234819219584184,-5.0
1.026086201658058,-2.0
1.0286904813576978,1.0
1.0312947610573375,3.0
1.0338990407569773,6.0
1.036503320456617,9.0
1.0391076001562567,10.0
1.0417118798558964,9.0
1.0443161595555361,5.0
1.046920439255176,6.0
1.0495247189548158,6.0
1.0521289986544555,3.0
1.0547332783540952,-3.0
1.057337558053735,-5.0
1.0599418377533747,-7.0
1.0625461174530144,-7.0
1.0651503971526541,-11.0
1.0677546768522939,-8.0
1.0703589565519336,-7.0
1.0729632362515733,-7.0
1.075567515951213,-9.0
1.078171795650853,-7.0
1.0807760753504927,1.0
1.0833803550501324,8.0
1.0859846347497721,11.0
1.0885889144494119,12.0
1.0911931941490516,10.0
1.0937974738486913,8.0
1.096401753548331,4.0
1.0990060332479707,5.0
1.1016103129476105,4.0
1.1042145926472502,0.0
1.1068188723468901,0.0
1.1094231520465299,-2.0
1.1120274317461696,-6.0
1.1146317114458093,-9.0
1.117235991145449,-9.0
1.1198402708450887,-8.0
1.1224445505447285,-7.0
1.1250488302443682,-7.0
1.127653109944008,-9.0
1.1302573896436476,-5.0
1.1328616693432874,1.0
1.135465949042927,4.0
1.138070228742567,9.0
1.1406745084422067,9.0
1.1432787881418465,14.0
1.1458830678414862,12.0
1.148487347541126,5.0
1.1510916272407656,4.0
1.1536959069404054,4.0
1.156300186640045,0.0
1.1589044663396848,2.0
1.1615087460393245,0.0
1.1641130257389642,-3.0
1.166717305438604,-8.0
1.169321585138244,-11.0
1.1719258648378836,-11.0
1.1745301445375234,-5.0
1.177134424237163,-6.0
1.1797387039368028,-9.0
1.1823429836364425,-8.0
1.1849472633360822,-6.0
1.187551543035722,3.0
1.1901558227353617,12.0
1.1927601024350014,8.0
1.1953643821346411,8.0
1.197968661834281,13.0
1.2005729415339208,8.0
1.2031772212335605,3.0
1.2057815009332002,5.0
1.20838578063284,5.0
1.2109900603324797,-2.0
1.2135943400321194,-7.0
1.2161986197317591,-8.0
1.2188028994313989,-8.0
1.2214071791310386,-11.0
1.2240114588306783,-9.0
1.226615738530318,-5.0
1.229220018229958,-8.0
1.2318242979295977,-4.0
1.2344285776292374,-7.0
1.2370328573288771,-4.0
1.2396371370285169,12.0
1.2422414167281566,10.0
1.2448456964277963,12.0
1.247449976127436,12.0
1.2500542558270757,9.0
1.2526585355267155,5.0
1.2552628152263552,4.0
1.2578670949259951,5.0
1.2604713746256349,1.0
1.2630756543252746,-3.0
1.2656799340249143,-3.0
1.268284213724554,-8.0
1.2708884934241937,-9.0
1.2734927731238335,-11.0
1.2760970528234732,-9.0
1.278701332523113,-3.0
1.2813056122227526,-6.0
1.2839098919223924,-7.0
1.286514171622032,-5.0
1.289118451321672,3.0
1.2917227310213117,6.0
1.2943270107209515,8.0
1.2969312904205912,9.0
1.299535570120231,11.0
1.3021398498198706,9.0
1.3047441295195104,6.0
1.30734840921915,6.0
1.3099526889187898,4.0
1.3125569686184295,3.0
1.3151612483180692,3.0
1.317765528017709,-6.0
1.320369807717349,-8.0
1.3229740874169886,-8.0
1.3255783671166284,-10.0
1.328182646816268,-8.0
1.3307869265159078,-4.0
1.3333912062155475,-10.0
1.3359954859151872,-7.0
1.338599765614827,-5.0
1.3412040453144667,-2.0
1.3438083250141064,0.0
1.3464126047137461,1.0
1.349016884413386,14.0
1.3516211641130258,19.0
1.3542254438126655,12.0
1.3568297235123052,4.0
1.359434003211945,5.0
1.3620382829115847,2.0
1.3646425626112244,5.0
1.3672468423108641,1.0
1.3698511220105039,-8.0
1.3724554017101436,-11.0
1.3750596814097833,-7.0
1.377663961109423,-8.0
1.380268240809063,-8.0
1.3828725205087027,-5.0
1.3854768002083424,-8.0
1.3880810799079821,-6.0
1.3906853596076219,-1.0
1.3932896393072616,2.0
1.3958939190069013,6.0
1.398498198706541,11.0
1.4011024784061807,12.0
1.4037067581058205,10.0
1.4063110378054602,11.0
1.4089153175051,8.0
1.4115195972047399,3.0
1.4141238769043796,-5.0
1.4167281566040193,-4.0
1.419332436303659,4.0
1.4219367160032987,1.0
1.4245409957029385,-9.0
1.4271452754025782,-10.0
1.429749555102218,-10.0
1.4323538348018576,-8.0
1.4349581145014974,-5.0
1.437562394201137,-5.0
1.440166673900777,-6.0
1.4427709536004167,-6.0
1.4453752333000565,1.0
1.4479795129996962,4.0
1.450583792699336,5.0
1.4531880723989756,6.0
1.4557923520986153,10.0
1.458396631798255,8.0
1.4610009114978948,7.0
1.4636051911975345,11.0
1.4662094708971742,4.0
1.468813750596814,4.0
1.471418030296454,0.0
1.4740223099960936,-7.0
1.4766265896957333,-9.0
1.479230869395373,-9.0
1.4818351490950128,-9.0
1.4844394287946525,-9.0
1.4870437084942922,-10.0
1.489647988193932,-12.0
1.4922522678935717,-5.0
1.4948565475932114,1.0
1.4974608272928511,2.0
1.500065106992491,5.0
1.5026693866921308,6.0
1.5052736663917705,7.0
1.5078779460914102,10.0
1.51048222579105,12.0
1.5130865054906897,4.0
1.5156907851903294,3.0
1.5182950648899691,8.0
1.5208993445896088,4.0
1.5235036242892486,1.0
1.5261079039888883,-8.0
1.528712183688528,-7.0
1.531316463388168,-8.0
1.5339207430878077,-11.0
1.5365250227874474,-7.0
1.5391293024870871,-5.0
1.5417335821867268,-4.0
1.5443378618863666,-7.0
1.5469421415860063,-7.0
1.549546421285646,-1.0
1.5521507009852857,5.0
1.5547549806849255,7.0
1.5573592603845652,9.0
1.559963540084205,11.0
1.5625678197838448,9.0
1.5651720994834846,7.0
1.5677763791831243,8.0
1.570380658882764,4.0
1.5729849385824037,0.0
1.5755892182820435,-1.0
1.5781934979816832,-3.0
1.580797777681323,-7.0
1.5834020573809626,-10.0
1.5860063370806023,-12.0
1.588610616780242,-8.0
1.591214896479882,-4.0
1.5938191761795217,-7.0
1.5964234558791615,-7.0
1.5990277355788012,-3.0
1.601632015278441,-5.0
1.6042362949780806,3.0
1.6068405746777203,9.0
1.60944485437736,9.0
1.6120491340769998,11.0
1.6146534137766395,13.0
1.6172576934762792,5.0
1.619861973175919,8.0
1.622466252875559,5.0
1.6250705325751986,3.0
1.6276748122748383,-3.0
1.630279091974478,-6.0
1.6328833716741178,-4.0
1.6354876513737575,-5.0
1.6380919310733972,-9.0
1.640696210773037,-9.0
1.6433004904726767,-4.0
1.6459047701723164,-11.0
1.6485090498719561,-12.0
1.6511133295715958,-3.0
1.6537176092712358,1.0
1.6563218889708755,3.0
1.6589261686705152,7.0
1.661530448370155,13.0
1.6641347280697947,14.0
1.6667390077694344,11.0
1.6693432874690741,6.0
1.6719475671687138,4.0
1.6745518468683536,8.0
1.6771561265679933,2.0
1.679760406267633,-3.0
1.682364685967273,-3.0
1.6849689656669127,-5.0
1.6875732453665524,-9.0
1.6901775250661921,-11.0
1.6927818047658318,-10.0
1.6953860844654716,-6.0
1.6979903641651113,-8.0
1.700594643864751,-12.0
1.7031989235643907,-11.0
1.7058032032640305,7.0
1.7084074829636702,12.0
1.71101176266331,10.0
1.7136160423629498,3.0
1.7162203220625896,13.0
1.7188246017622293,12.0
1.721428881461869,8.0
1.7240331611615087,8.0
1.7266374408611485,5.0
1.7292417205607882,2.0
1.731846000260428,-2.0
1.7344502799600676,-7.0
1.7370545596597073,-9.0
1.739658839359347,-14.0
1.7422631190589868,-13.0
1.7448673987586267,-9.0
1.7474716784582665,-3.0
1.7500759581579062,-6.0
1.752680237857546,-8.0
1.7552845175571856,-3.0
1.7578887972568253,0.0
1.760493076956465,6.0
1.7630973566561048,9.0
1.7657016363557445,11.0
1.7683059160553842,10.0
1.770910195755024,11.0
1.773514475454664,8.0
1.7761187551543036,8.0
1.7787230348539433,5.0
1.781327314553583,6.0
1.7839315942532228,0.0
1.7865358739528625,-5.0
1.7891401536525022,-10.0
1.791744433352142,-12.0
1.7943487130517817,-10.0
1.7969529927514214,-8.0
1.7995572724510611,-7.0
1.8021615521507008,-10.0
1.8047658318503408,-10.0
1.8073701115499805,-4.0
1.8099743912496202,0.0
1.81257867094926,2.0
1.8151829506488997,5.0
1.8177872303485394,16.0
1.8203915100481791,16.0
1.8229957897478188,12.0
1.8256000694474586,6.0
1.8282043491470983,6.0
1.830808628846738,5.0
1.8334129085463777,3.0
1.8360171882460177,-1.0
1.8386214679456574,-3.0
1.8412257476452971,-6.0
1.8438300273449368,-8.0
1.8464343070445766,-12.0
1.8490385867442163,-15.0
1.851642866443856,-10.0
1.8542471461434957,-7.0
1.8568514258431355,-4.0
1.8594557055427752,-5.0
1.862059985242415,-2.0
1.8646642649420548,4.0
1.8672685446416946,9.0
1.8698728243413343,12.0
1.872477104040974,15.0
1.8750813837406137,13.0
1.8776856634402534,2.0
1.8802899431398932,7.0
1.882894222839533,8.0
1.8854985025391726,3.0
1.8881027822388123,0.0
1.890707061938452,-1.0
1.8933113416380918,-9.0
1.8959156213377317,-12.0
1.8985199010373714,-17.0
1.9011241807370112,-11.0
1.903728460436651,-4.0
1.9063327401362906,-3.0
1.9089370198359303,-8.0
1.91154129953557,-14.0
1.9141455792352098,2.0
1.9167498589348495,6.0
1.9193541386344892,9.0
1.921958418334129,12.0
1.924562698033769,16.0
1.9271669777334086,8.0
1.9297712574330483,4.0
1.932375537132688,8.0
1.9349798168323278,6.0
1.9375840965319675,4.0
1.9401883762316072,1.0
1.942792655931247,-6.0
1.9453969356308867,-8.0
1.9480012153305264,-11.0
1.9506054950301661,-15.0
1.9532097747298058,-6.0
1.9558140544294458,1.0
1.9584183341290855,-5.0
1.9610226138287252,-15.0
1.963626893528365,-10.0
1.9662311732280047,0.0
1.9688354529276444,10.0
1.9714397326272841,12.0
1.9740440123269238,9.0
1.9766482920265636,12.0
1.9792525717262033,9.0
1.981856851425843,4.0
1.9844611311254827,5.0
1.9870654108251227,8.0
1.9896696905247624,6.0
1.9922739702244021,-2.0
1.9948782499240418,-7.0
1.9974825296236816,-8.0
2.0000868093233213,-5.0
2.002691089022961,-12.0
2.0052953687226007,-11.0
2.0078996484222404,-10.0
2.01050392812188,-8.0
2.01310820782152,-5.0
2.0157124875211596,-3.0
2.0183167672207993,0.0
2.020921046920439,3.0
2.023525326620079,9.0
2.0261296063197185,11.0
2.0287338860193582,11.0
2.0313381657189984,11.0
2.033942445418638,8.0
2.036546725118278,8.0
2.0391510048179176,4.0
2.0417552845175573,4.0
2.044359564217197,1.0
2.0469638439168367,-4.0
2.0495681236164764,-8.0
2.052172403316116,-12.0
2.054776683015756,-14.0
2.0573809627153956,-10.0
2.0599852424150353,-3.0
2.062589522114675,-6.0
2.0651938018143148,-8.0
2.0677980815139545,-6.0
2.0704023612135942,2.0
2.073006640913234,6.0
2.0756109206128737,8.0
2.0782152003125134,8.0
2.080819480012153,12.0
2.083423759711793,6.0
2.0860280394114326,9.0
2.0886323191110723,8.0
2.0912365988107124,4.0
2.093840878510352,5.0
2.096445158209992,0.0
2.0990494379096316,-10.0
2.1016537176092713,-10.0
2.104257997308911,-7.0
2.1068622770085508,-7.0
2.1094665567081905,-9.0
2.11207083640783,-8.0
2.11467511610747,-9.0
2.1172793958071097,-3.0
2.1198836755067494,-3.0
2.122487955206389,-6.0
2.125092234906029,4.0
2.1276965146056686,11.0
2.1303007943053083,15.0
2.132905074004948,12.0
2.1355093537045877,7.0
2.1381136334042274,1.0
2.140717913103867,0.0
2.143322192803507,4.0
2.1459264725031466,3.0
2.1485307522027863,2.0
2.151135031902426,-6.0
2.153739311602066,-6.0
2.156343591301706,-6.0
2.1589478710013457,-11.0
2.1615521507009854,-7.0
2.164156430400625,-3.0
2.166760710100265,-8.0
2.1693649897999046,-8.0
2.1719692694995443,-11.0
2.174573549199184,-4.0
2.1771778288988237,9.0
2.1797821085984634,12.0
2.182386388298103,14.0
2.184990667997743,9.0
2.1875949476973826,13.0
2.1901992273970223,3.0
2.192803507096662,5.0
2.1954077867963018,7.0
2.1980120664959415,-1.0
2.200616346195581,-5.0
2.203220625895221,-7.0
2.2058249055948607,-7.0
2.2084291852945004,-8.0
2.21103346499414,-12.0
2.2136377446937803,-7.0
2.21624202439342,-6.0
2.2188463040930597,-4.0
2.2214505837926994,-4.0
2.224054863492339,-5.0
2.226659143191979,-2.0
2.2292634228916186,1.0
2.2318677025912583,8.0
2.234471982290898,10.0
2.2370762619905378,12.0
2.2396805416901775,12.0
2.242284821389817,5.0
2.244889101089457,6.0
2.2474933807890967,5.0
2.2500976604887364,1.0
2.252701940188376,3.0
2.255306219888016,-4.0
2.2579104995876556,-6.0
2.2605147792872953,-7.0
2.263119058986935,-9.0
2.2657233386865747,-9.0
2.2683276183862144,-8.0
2.270931898085854,-9.0
2.2735361777854943,-8.0
2.276140457485134,-7.0
2.2787447371847738,3.0
2.2813490168844135,6.0
2.283953296584053,7.0
2.286557576283693,9.0
2.2891618559833327,12.0
2.2917661356829724,11.0
2.294370415382612,6.0
2.296974695082252,5.0
2.2995789747818915,7.0
2.3021832544815313,4.0
2.304787534181171,-2.0
2.3073918138808107,-7.0
2.3099960935804504,-8.0
2.31260037328009,-9.0
2.31520465297973,-13.0
2.3178089326793696,-9.0
2.3204132123790093,-4.0
2.323017492078649,-6.0
2.3256217717782888,-2.0
2.3282260514779285,-6.0
2.330830331177568,-1.0
2.333434610877208,5.0
2.336038890576848,8.0
2.338643170276488,9.0
2.3412474499761275,11.0
2.3438517296757673,9.0
2.346456009375407,8.0
2.3490602890750467,7.0
2.3516645687746864,3.0
2.354268848474326,-3.0
2.356873128173966,0.0
2.3594774078736056,1.0
2.3620816875732453,-6.0
2.364685967272885,-8.0
2.3672902469725248,-11.0
2.3698945266721645,-14.0
2.372498806371804,-6.0
2.375103086071444,-9.0
2.3777073657710837,-8.0
2.3803116454707234,-5.0
2.382915925170363,0.0
2.385520204870003,5.0
2.3881244845696425,10.0
2.3907287642692823,12.0
2.393333043968922,13.0
2.395937323668562,10.0
2.398541603368202,4.0
2.4011458830678416,8.0
2.4037501627674813,4.0
2.406354442467121,1.0
2.4089587221667608,-3.0
2.4115630018664005,-8.0
2.41416728156604,-4.0
2.41677156126568,-4.0
2.4193758409653197,-8.0
2.4219801206649594,-8.0
2.424584400364599,-8.0
2.427188680064239,-10.0
2.4297929597638785,-6.0
2.4323972394635183,-7.0
2.435001519163158,-2.0
2.4376057988627977,4.0
2.4402100785624374,9.0
2.442814358262077,12.0
2.445418637961717,12.0
2.4480229176613566,9.0
2.4506271973609963,5.0
2.453231477060636,7.0
2.455835756760276,7.0
2.458440036459916,4.0
2.4610443161595557,1.0
2.4636485958591954,-6.0
2.466252875558835,-5.0
2.468857155258475,-3.0
2.4714614349581145,-8.0
2.4740657146577543,-9.0
2.476669994357394,-8.0
2.4792742740570337,-13.0
2.4818785537566734,-8.0
2.484482833456313,-8.0
2.487087113155953,-2.0
2.4896913928555926,8.0
2.4922956725552323,9.0
2.494899952254872,11.0
2.4975042319545118,11.0
2.5001085116541515,12.0
2.502712791353791,7.0
2.505317071053431,6.0
2.5079213507530707,1.0
2.5105256304527104,1.0
2.51312991015235,1.0
2.5157341898519903,-3.0
2.51833846955163,-8.0
2.5209427492512697,-8.0
2.5235470289509094,-10.0
2.526151308650549,-11.0
2.528755588350189,-15.0
2.5313598680498286,-2.0
2.5339641477494683,0.0
2.536568427449108,-4.0
2.5391727071487478,0.0
2.5417769868483875,5.0
2.544381266548027,5.0
2.546985546247667,7.0
2.5495898259473067,12.0
2.5521941056469464,9.0
2.554798385346586,4.0
2.557402665046226,4.0
2.5600069447458655,7.0
2.5626112244455053,8.0
2.565215504145145,3.0
2.5678197838447847,-7.0
2.5704240635444244,-11.0
2.573028343244064,-11.0
2.575632622943704,-9.0
2.578236902643344,-8.0
2.5808411823429838,-9.0
2.5834454620426235,-12.0
2.586049741742263,-4.0
2.588654021441903,3.0
2.5912583011415427,2.0
2.5938625808411824,3.0
2.596466860540822,8.0
2.599071140240462,9.0
2.6016754199401015,11.0
2.6042796996397413,10.0
2.606883979339381,8.0
2.6094882590390207,6.0
2.6120925387386604,4.0
2.6146968184383,3.0
2.61730109813794,-1.0
2.6199053778375796,-5.0
2.6225096575372193,-6.0
2.625113937236859,-7.0
2.6277182169364988,-13.0
2.6303224966361385,-10.0
2.632926776335778,-5.0
2.635531056035418,-6.0
2.638135335735058,-4.0
2.640739615434698,-6.0
2.6433438951343375,-2.0
2.6459481748339773,3.0
2.648552454533617,6.0
2.6511567342332567,16.0
2.6537610139328964,13.0
2.656365293632536,11.0
2.658969573332176,6.0
2.6615738530318156,5.0
2.6641781327314553,5.0
2.666782412431095,4.0
2.6693866921307348,-2.0
2.6719909718303745,-4.0
2.674595251530014,-7.0
2.677199531229654,-11.0
2.6798038109292937,-16.0
2.6824080906289334,-11.0
2.685012370328573,-4.0
2.687616650028213,-7.0
2.6902209297278525,-6.0
2.6928252094274923,-1.0
2.695429489127132,5.0
2.698033768826772,6.0
2.700638048526412,5.0
2.7032423282260516,3.0
2.7058466079256913,11.0
2.708450887625331,12.0
2.7110551673249708,5.0
2.7136594470246105,4.0
2.71626372672425,5.0
2.71886800642389,4.0
2.7214722861235296,3.0
2.7240765658231694,-7.0
2.726680845522809,-11.0
2.729285125222449,-8.0
2.7318894049220885,-9.0
2.7344936846217283,-8.0
2.737097964321368,-7.0
2.7397022440210077,-7.0
2.7423065237206474,-5.0
2.744910803420287,-4.0
2.747515083119927,2.0
2.7501193628195666,2.0
2.7527236425192063,7.0
2.755327922218846,7.0
2.757932201918486,8.0
2.760536481618126,12.0
2.7631407613177656,8.0
2.7657450410174054,4.0
2.768349320717045,5.0
2.770953600416685,6.0
2.7735578801163245,-4.0
2.7761621598159643,-6.0
2.778766439515604,-6.0
2.7813707192152437,-8.0
2.7839749989148834,-9.0
2.786579278614523,-9.0
2.789183558314163,-6.0
2.7917878380138026,-6.0
2.7943921177134423,-6.0
2.796996397413082,-6.0
2.7996006771127218,-2.0
2.8022049568123615,7.0
2.804809236512001,11.0
2.807413516211641,13.0
2.8100177959112806,6.0
2.8126220756109204,2.0
2.81522635531056,12.0
2.8178306350102,13.0
2.82043491470984,1.0
2.8230391944094797,1.0
2.8256434741091194,3.0
2.828247753808759,-3.0
2.830852033508399,-5.0
2.8334563132080386,-9.0
2.8360605929076783,-14.0
2.838664872607318,-10.0
2.8412691523069578,-7.0
2.8438734320065975,-8.0
2.846477711706237,-11.0
2.849081991405877,-8.0
2.8516862711055166,5.0
2.8542905508051564,7.0
2.856894830504796,8.0
2.859499110204436,9.0
2.8621033899040755,13.0
2.8647076696037153,10.0
2.867311949303355,6.0
2.8699162290029947,6.0
2.8725205087026344,3.0
2.875124788402274,4.0
2.877729068101914,3.0
2.880333347801554,-3.0
2.8829376275011938,-9.0
2.8855419072008335,-11.0
2.888146186900473,-10.0
2.890750466600113,-11.0
2.8933547462997526,-7.0
2.8959590259993924,-8.0
2.898563305699032,-6.0
2.901167585398672,-3.0
2.9037718650983115,-3.0
2.9063761447979513,3.0
2.908980424497591,8.0
2.9115847041972307,11.0
2.9141889838968704,12.0
2.91679326359651,13.0
2.91939754329615,6.0
2.9220018229957896,7.0
2.9246061026954293,6.0
2.927210382395069,0.0
2.9298146620947088,-6.0
2.9324189417943485,-3.0
2.935023221493988,-3.0
2.937627501193628,-8.0
2.940231780893268,-13.0
2.942836060592908,-7.0
2.9454403402925475,-6.0
2.9480446199921873,-9.0
2.950648899691827,-8.0
2.9532531793914667,-4.0
2.9558574590911064,-2.0
2.958461738790746,6.0
2.961066018490386,11.0
2.9636702981900256,10.0
2.9662745778896653,11.0
2.968878857589305,9.0
2.9714831372889448,6.0
2.9740874169885845,6.0
2.976691696688224,5.0
2.979295976387864,1.0
2.9819002560875036,1.0
2.9845045357871434,-3.0
2.987108815486783,-8.0
2.989713095186423,-10.0
2.9923173748860625,-14.0
2.9949216545857023,-11.0
2.997525934285342,-6.0
3.000130213984982,-5.0
3.002734493684622,-7.0
3.0053387733842616,-5.0
3.0079430530839013,1.0
3.010547332783541,7.0
3.0131516124831808,9.0
3.0157558921828205,8.0
3.01836017188246,11.0
3.0209644515821,9.0
3.0235687312817396,6.0
3.0261730109813794,5.0
3.028777290681019,4.0
3.031381570380659,3.0
3.0339858500802985,0.0
3.0365901297799383,-10.0
3.039194409479578,-8.0
3.0417986891792177,-5.0
3.0444029688788574,-7.0
3.047007248578497,-10.0
3.049611528278137,-11.0
3.0522158079777766,-12.0
3.0548200876774163,-4.0
3.057424367377056,4.0
3.0600286470766958,2.0
3.062632926776336,2.0
3.0652372064759756,5.0
3.0678414861756154,10.0
3.070445765875255,12.0
3.073050045574895,12.0
3.0756543252745345,5.0
3.0782586049741743,5.0
3.080862884673814,5.0
3.0834671643734537,3.0
3.0860714440730934,-2.0
3.088675723772733,-3.0
3.091280003472373,-7.0
3.0938842831720126,-8.0
3.0964885628716523,-13.0
3.099092842571292,-11.0
3.1016971222709318,-3.0
3.1043014019705715,-4.0
3.106905681670211,-8.0
3.109509961369851,-7.0
3.1121142410694906,2.0
3.1147185207691304,8.0
3.11732280046877,8.0
3.11992708016841,3.0
3.12253135986805,7.0
3.1251356395676897,6.0
3.1277399192673294,6.0
3.130344198966969,13.0
3.132948478666609,10.0
3.1355527583662486,-2.0
3.1381570380658883,-2.0
3.140761317765528,-3.0
3.1433655974651677,-8.0
3.1459698771648075,-11.0
3.148574156864447,-13.0
3.151178436564087,-6.0
3.1537827162637266,-3.0
3.1563869959633664,-7.0
3.158991275663006,-10.0
3.161595555362646,-7.0
3.1641998350622855,5.0
3.1668041147619252,6.0
3.169408394461565,7.0
3.1720126741612047,9.0
3.1746169538608444,13.0
3.177221233560484,12.0
3.179825513260124,8.0
3.182429792959764,6.0
3.1850340726594037,3.0
3.1876383523590435,4.0
3.190242632058683,1.0
3.192846911758323,-5.0
3.1954511914579626,-9.0
3.1980554711576024,-11.0
3.200659750857242,-8.0
3.203264030556882,-6.0
3.2058683102565215,-7.0
3.2084725899561612,-10.0
3.211076869655801,-8.0
3.2136811493554407,-5.0
3.2162854290550804,1.0
3.21888970875472,3.0
3.22149398845436,9.0
3.2240982681539996,12.0
3.2267025478536393,12.0
3.229306827553279,11.0
3.2319111072529187,5.0
3.2345153869525585,4.0
3.237119666652198,6.0
3.239723946351838,8.0
3.2423282260514776,-2.0
3.244932505751118,-15.0
3.2475367854507575,-6.0
3.2501410651503972,0.0
3.252745344850037,-9.0
3.2553496245496767,-11.0
3.2579539042493164,-10.0
3.260558183948956,-11.0
3.263162463648596,-4.0
3.2657667433482356,-7.0
3.2683710230478753,-5.0
3.270975302747515,6.0
3.2735795824471547,12.0
3.2761838621467945,14.0
3.278788141846434,10.0
3.281392421546074,10.0
3.2839967012457136,5.0
3.2866009809453534,4.0
3.289205260644993,6.0
3.291809540344633,5.0
3.2944138200442725,-1.0
3.2970180997439122,-12.0
3.299622379443552,-17.0
3.3022266591431917,-8.0
3.304830938842832,-8.0
3.3074352185424716,-8.0
3.3100394982421113,-3.0
3.312643777941751,-6.0
3.3152480576413907,-6.0
3.3178523373410305,-1.0
3.32045661704067,2.0
3.32306089674031,2.0
3.3256651764399496,6.0
3.3282694561395894,7.0
3.330873735839229,8.0
3.333478015538869,12.0
3.3360822952385085,12.0
3.3386865749381482,13.0
3.341290854637788,-7.0
3.3438951343374277,1.0
3.3464994140370674,5.0
3.349103693736707,-10.0
3.351707973436347,-14.0
3.3543122531359866,8.0
3.3569165328356263,-3.0
3.359520812535266,-31.0
3.3621250922349057,8.0
3.364729371934546,30.0
3.3673336516341856,-29.0
3.3699379313338254,-42.0
3.372542211033465,7.0
3.375146490733105,15.0
3.3777507704327445,11.0
3.3803550501323842,4.0
3.382959329832024,8.0
3.3855636095316637,3.0
3.3881678892313034,1.0
3.390772168930943,5.0
3.393376448630583,12.0
3.3959807283302226,12.0
3.3985850080298623,2.0
3.401189287729502,0.0
3.4037935674291417,0.0
3.4063978471287815,-2.0
3.409002126828421,-19.0
3.411606406528061,-16.0
3.4142106862277006,-10.0
3.4168149659273404,-14.0
3.41941924562698,-23.0
3.42202352532662,-10.0
3.42462780502626,14.0
3.4272320847258997,16.0
3.4298363644255394,13.0
3.432440644125179,11.0
3.435044923824819,11.0
3.4376492035244586,8.0
3.4402534832240983,5.0
3.442857762923738,8.0
3.4454620426233777,6.0
3.4480663223230175,4.0
3.450670602022657,1.0
3.453274881722297,-2.0
3.4558791614219366,-9.0
3.4584834411215764,-9.0
3.461087720821216,-11.0
3.463692000520856,-10.0
3.4662962802204955,-5.0
3.4689005599201352,-6.0
3.471504839619775,-7.0
3.4741091193194147,-4.0
3.4767133990190544,1.0
3.479317678718694,5.0
3.481921958418334,9.0
3.4845262381179736,10.0
3.4871305178176137,11.0
3.4897347975172535,9.0
3.492339077216893,4.0
3.494943356916533,7.0
3.4975476366161726,4.0
3.5001519163158124,1.0
3.502756196015452,0.0
3.505360475715092,-2.0
3.5079647554147315,-5.0
3.5105690351143712,-6.0
3.513173314814011,-7.0
3.5157775945136507,-16.0
3.5183818742132904,-12.0
3.52098615391293,-9.0
3.52359043361257,-3.0
3.5261947133122096,-7.0
3.5287989930118493,0.0
3.531403272711489,5.0
3.5340075524111287,9.0
3.5366118321107685,8.0
3.539216111810408,10.0
3.541820391510048,10.0
3.5444246712096876,9.0
3.547028950909328,6.0
3.5496332306089675,5.0
3.5522375103086072,4.0
3.554841790008247,2.0
3.5574460697078867,-4.0
3.5600503494075264,-9.0
3.562654629107166,-13.0
3.565258908806806,-8.0
3.5678631885064456,-5.0
3.5704674682060853,-1.0
3.573071747905725,-7.0
3.5756760276053647,-8.0
3.5782803073050045,-11.0
3.580884587004644,1.0
3.583488866704284,7.0
3.5860931464039236,9.0
3.5886974261035633,10.0
3.591301705803203,13.0
3.593905985502843,13.0
3.5965102652024825,5.0
3.5991145449021222,6.0
3.601718824601762,6.0
3.6043231043014017,0.0
3.606927384001042,-4.0
3.6095316637006816,-4.0
3.6121359434003213,-8.0
3.614740223099961,-10.0
3.6173445027996007,-13.0
3.6199487824992405,-10.0
3.62255306219888,-6.0
3.62515734189852,-8.0
3.6277616215981596,-7.0
3.6303659012977993,-4.0
3.632970180997439,-1.0
3.635574460697079,6.0
3.6381787403967185,10.0
3.6407830200963582,10.0
3.643387299795998,7.0
3.6459915794956377,12.0
3.6485958591952774,8.0
3.651200138894917,5.0
3.653804418594557,5.0
3.6564086982941966,1.0
3.6590129779938363,-3.0
3.661617257693476,-6.0
3.6642215373931157,-8.0
3.6668258170927555,-11.0
3.6694300967923956,-10.0
3.6720343764920353,-7.0
3.674638656191675,-3.0
3.677242935891315,-6.0
3.6798472155909545,-6.0
3.6824514952905942,-7.0
3.685055774990234,-3.0
3.6876600546898737,4.0
3.6902643343895134,7.0
3.692868614089153,10.0
3.695472893788793,13.0
3.6980771734884326,10.0
3.7006814531880723,7.0
3.703285732887712,8.0
3.7058900125873517,5.0
3.7084942922869915,4.0
3.711098571986631,1.0
3.713702851686271,-5.0
3.7163071313859106,-7.0
3.7189114110855503,-8.0
3.72151569078519,-15.0
3.72411997048483,-11.0
3.7267242501844695,-6.0
3.7293285298841097,-3.0
3.7319328095837494,-4.0
3.734537089283389,-6.0
3.737141368983029,-3.0
3.7397456486826686,3.0
3.7423499283823083,8.0
3.744954208081948,12.0
3.7475584877815877,12.0
3.7501627674812275,10.0
3.752767047180867,6.0
3.755371326880507,8.0
3.7579756065801466,4.0
3.7605798862797863,3.0
3.763184165979426,0.0
3.765788445679066,-6.0
3.7683927253787055,-3.0
3.7709970050783452,-6.0
3.773601284777985,-11.0
3.7762055644776247,-13.0
3.7788098441772644,-6.0
3.781414123876904,-7.0
3.784018403576544,-7.0
3.7866226832761836,-5.0
3.7892269629758237,-4.0
3.7918312426754635,6.0
3.794435522375103,9.0
3.797039802074743,6.0
3.7996440817743826,12.0
3.8022483614740223,19.0
3.804852641173662,15.0
3.807456920873302,1.0
3.8100612005729415,-10.0
3.8126654802725812,-4.0
3.815269759972221,-3.0
3.8178740396718607,-5.0
3.8204783193715004,-2.0
3.82308259907114,-3.0
3.82568687877078,-7.0
3.8282911584704196,-5.0
3.8308954381700593,1.0
3.833499717869699,1.0
3.8361039975693387,-3.0
3.8387082772689785,-35.0
3.841312556968618,-10.0
3.843916836668258,16.0
3.8465211163678976,9.0
3.849125396067538,6.0
3.8517296757671775,13.0
3.8543339554668172,15.0
3.856938235166457,-13.0
3.8595425148660967,-1.0
3.8621467945657364,-6.0
3.864751074265376,-19.0
3.867355353965016,-28.0
3.8699596336646556,-53.0
3.8725639133642953,-19.0
3.875168193063935,-3.0
3.8777724727635747,40.0
3.8803767524632145,107.0
3.882981032162854,58.0
3.885585311862494,-2.0
3.8881895915621336,-27.0
3.8907938712617733,-12.0
3.893398150961413,-11.0
3.896002430661053,1.0
3.8986067103606925,5.0
3.9012109900603322,15.0
3.903815269759972,14.0
3.9064195494596117,5.0
3.9090238291592514,-7.0
3.9116281088588916,-17.0
3.9142323885585313,-11.0
3.916836668258171,-10.0
3.9194409479578107,0.0
3.9220452276574505,17.0
3.92464950735709,-8.0
3.92725378705673,-37.0
3.9298580667563696,-24.0
3.9324623464560093,-27.0
3.935066626155649,-59.0
3.937670905855289,-16.0
3.9402751855549285,4.0
3.9428794652545682,20.0
3.945483744954208,25.0
3.9480880246538477,8.0
3.9506923043534874,32.0
3.953296584053127,29.0
3.955900863752767,23.0
3.9585051434524066,0.0
3.9611094231520463,6.0
3.963713702851686,-29.0
3.9663179825513257,12.0
3.9689222622509654,23.0
3.9715265419506056,27.0
3.9741308216502453,55.0
3.976735101349885,20.0
3.979339381049525,-35.0
3.9819436607491645,-37.0
3.9845479404488042,-23.0
3.987152220148444,-29.0
3.9897564998480837,-31.0
3.9923607795477234,-11.0
3.994965059247363,-25.0
3.997569338947003,-24.0
4.000173618646643,1.0
4.002777898346283,12.0
4.005382178045922,21.0
4.007986457745562,51.0
4.0105907374452014,44.0
4.013195017144842,28.0
4.015799296844481,-13.0
4.018403576544121,-22.0
4.02100785624376,-18.0
4.0236121359434005,-11.0
4.02621641564304,-2.0
4.02882069534268,-17.0
4.031424975042319,-44.0
4.034029254741959,-5.0
4.036633534441599,15.0
4.039237814141239,54.0
4.041842093840878,-69.0
4.044446373540518,-180.0
4.047050653240158,25.0
4.049654932939798,177.0
4.052259212639437,111.0
4.054863492339077,-10.0
4.0574677720387164,14.0
4.060072051738357,27.0
4.062676331437997,-6.0
4.065280611137636,-82.0
4.067884890837276,-1.0
4.0704891705369155,24.0
4.073093450236556,-27.0
4.075697729936195,39.0
4.078302009635835,-51.0
4.080906289335474,2.0
4.083510569035115,105.0
4.086114848734754,19.0
4.088719128434394,-84.0
4.091323408134033,-66.0
4.0939276878336734,-43.0
4.096531967533313,-133.0
4.099136247232953,20.0
4.101740526932592,91.0
4.104344806632232,-15.0
4.106949086331872,26.0
4.109553366031512,54.0
4.112157645731151,81.0
4.114761925430791,96.0
4.1173662051304305,36.0
4.119970484830071,-13.0
4.122574764529711,-72.0
4.12517904422935,-132.0
4.12778332392899,2.0
4.1303876036286296,38.0
4.13299188332827,9.0
4.135596163027909,20.0
4.138200442727549,7.0
4.1408047224271884,-23.0
4.143409002126829,-47.0
4.146013281826468,-55.0
4.148617561526108,5.0
4.151221841225747,39.0
4.1538261209253875,-26.0
4.156430400625027,-125.0
4.159034680324667,78.0
4.161638960024306,88.0
4.164243239723946,50.0
4.166847519423586,83.0
4.169451799123226,-4.0
4.172056078822865,-34.0
4.174660358522505,-107.0
4.1772646382221446,-70.0
4.179868917921785,-44.0
4.182473197621425,35.0
4.185077477321064,106.0
4.187681757020704,142.0
4.190286036720344,85.0
4.192890316419984,3.0
4.195494596119623,-92.0
4.198098875819263,-108.0
4.2007031555189025,-79.0
4.203307435218543,-76.0
4.205911714918182,-3.0
4.208515994617822,78.0
4.211120274317461,77.0
4.2137245540171016,16.0
4.216328833716741,-66.0
4.218933113416381,-106.0
4.22153739311602,7.0
4.22414167281566,64.0
4.2267459525153,39.0
4.22935023221494,-70.0
4.231954511914579,20.0
4.234558791614219,133.0
4.237163071313859,134.0
4.239767351013499,67.0
4.242371630713138,-55.0
4.244975910412778,-91.0
4.247580190112418,-44.0
4.250184469812058,-26.0
4.252788749511698,-50.0
4.255393029211337,-112.0
4.257997308910977,-57.0
4.2606015886106166,37.0
4.263205868310257,6.0
4.265810148009896,24.0
4.268414427709536,104.0
4.271018707409175,17.0
4.273622987108816,-81.0
4.276227266808455,-62.0
4.278831546508095,-3.0
4.281435826207734,-68.0
4.2840401059073745,65.0
4.286644385607014,142.0
4.289248665306654,88.0
4.291852945006293,32.0
4.294457224705933,48.0
4.297061504405573,14.0
4.299665784105213,-52.0
4.302270063804852,-55.0
4.304874343504492,-79.0
4.307478623204132,-94.0
4.310082902903772,22.0
4.312687182603412,-25.0
4.315291462303051,-61.0
4.317895742002691,6.0
4.320500021702331,40.0
4.323104301401971,8.0
4.32570858110161,-34.0
4.32831286080125,112.0
4.3309171405008895,140.0
4.33352142020053,49.0
4.336125699900169,-89.0
4.338729979599809,-78.0
4.341334259299448,-15.0
4.3439385389990885,15.0
4.346542818698728,9.0
4.349147098398368,65.0
4.351751378098007,80.0
4.354355657797647,12.0
4.356959937497287,-57.0
4.359564217196927,-117.0
4.362168496896566,-144.0
4.364772776596206,-155.0
4.3673770562958465,13.0
4.369981335995486,130.0
4.372585615695126,84.0
4.375189895394765,117.0
4.377794175094405,108.0
4.380398454794045,44.0
4.383002734493685,-29.0
4.385607014193324,-61.0
4.388211293892964,-42.0
4.3908155735926035,-18.0
4.393419853292244,-130.0
4.396024132991883,-172.0
4.398628412691523,18.0
4.401232692391162,226.0
4.403836972090803,114.0
4.406441251790442,-72.0
4.409045531490082,117.0
4.411649811189721,-130.0
4.4142540908893615,-327.0
4.416858370589001,-15.0
4.419462650288641,240.0
4.42206692998828,238.0
4.42467120968792,136.0
4.4272754893875605,-11.0
4.4298797690872,-37.0
4.43248404878684,-38.0
4.435088328486479,-41.0
4.437692608186119,-42.0
4.440296887885759,-120.0
4.442901167585399,-81.0
4.445505447285038,-25.0
4.448109726984678,-11.0
4.450714006684318,-73.0
4.453318286383958,-31.0
4.455922566083597,-64.0
4.458526845783237,136.0
4.4611311254828765,20.0
4.463735405182517,-109.0
4.466339684882156,-80.0
4.468943964581796,161.0
4.471548244281435,268.0
4.4741525239810755,168.0
4.476756803680715,115.0
4.479361083380355,-3.0
4.481965363079994,-89.0
4.484569642779634,-170.0
4.487173922479275,-124.0
4.489778202178914,-149.0
4.492382481878554,-104.0
4.494986761578193,22.0
4.4975910412778335,63.0
4.500195320977473,114.0
4.502799600677113,140.0
4.505403880376752,96.0
4.508008160076392,-25.0
4.510612439776032,-182.0
4.513216719475672,-47.0
4.515820999175311,-5.0
4.518425278874951,-133.0
4.5210295585745905,-163.0
4.523633838274231,45.0
4.52623811797387,129.0
4.52884239767351,201.0
4.531446677373149,35.0
4.53405095707279,-13.0
4.536655236772429,-66.0
4.539259516472069,-9.0
4.541863796171708,-31.0
4.5444680758713485,14.0
4.547072355570989,124.0
4.549676635270628,125.0
4.552280914970268,112.0
4.554885194669907,45.0
4.5574894743695475,-125.0
4.560093754069187,-166.0
4.562698033768827,-118.0
4.565302313468466,-140.0
4.567906593168106,-116.0
4.570510872867746,57.0
4.573115152567386,58.0
4.575719432267025,64.0
4.578323711966665,141.0
4.580927991666305,35.0
4.583532271365945,20.0
4.586136551065584,1.0
4.588740830765224,-44.0
4.5913451104648635,-35.0
4.593949390164504,-16.0
4.596553669864143,24.0
4.599157949563783,141.0
4.601762229263422,-20.0
4.6043665089630625,-141.0
4.606970788662703,-135.0
4.609575068362342,-30.0
4.612179348061982,53.0
4.614783627761621,96.0
4.617387907461262,32.0
4.619992187160901,28.0
4.622596466860541,123.0
4.62520074656018,-87.0
4.6278050262598205,-183.0
4.63040930595946,-56.0
4.6330135856591,1.0
4.635617865358739,49.0
4.638222145058379,122.0
4.640826424758019,146.0
4.643430704457659,-16.0
4.646034984157298,-26.0
4.648639263856938,9.0
4.6512435435565775,-175.0
4.653847823256218,-156.0
4.656452102955857,34.0
4.659056382655497,156.0
4.661660662355136,21.0
4.664264942054777,18.0
4.666869221754416,-25.0
4.669473501454056,-181.0
4.672077781153696,42.0
4.6746820608533355,103.0
4.677286340552976,-23.0
4.679890620252615,19.0
4.682494899952255,-192.0
4.685099179651894,54.0
4.6877034593515345,214.0
4.690307739051174,46.0
4.692912018750814,-18.0
4.695516298450453,92.0
4.698120578150093,41.0
4.700724857849733,-116.0
4.703329137549373,-15.0
4.705933417249012,5.0
4.708537696948652,58.0
4.711141976648292,-28.0
4.713746256347932,-66.0
4.716350536047571,-86.0
4.718954815747211,-19.0
4.7215590954468505,-6.0
4.724163375146491,103.0
4.72676765484613,-148.0
4.72937193454577,-116.0
4.73197621424541,108.0
4.7345804939450495,129.0
4.73718477364469,134.0
4.739789053344329,209.0
4.742393333043969,-113.0
4.744997612743608,-291.0
4.747601892443249,-258.0
4.750206172142888,117.0
4.752810451842528,68.0
4.755414731542167,-24.0
4.7580190112418075,43.0
4.760623290941447,-108.0
4.763227570641087,-154.0
4.765831850340726,157.0
4.768436130040366,235.0
4.771040409740006,-11.0
4.773644689439646,13.0
4.776248969139285,72.0
4.778853248838925,8.0
4.7814575285385645,16.0
4.784061808238205,51.0
4.786666087937844,-34.0
4.789270367637484,-61.0
4.791874647337124,6.0
4.794478927036764,-15.0
4.797083206736404,-122.0
4.799687486436043,-188.0
4.802291766135683,3.0
4.8048960458353225,134.0
4.807500325534963,10.0
4.810104605234602,93.0
4.812708884934242,4.0
4.815313164633881,57.0
4.8179174443335215,56.0
4.820521724033161,56.0
4.823126003732801,41.0
4.82573028343244,-97.0
4.82833456313208,28.0
4.83093884283172,16.0
4.83354312253136,-78.0
4.836147402230999,-107.0
4.838751681930639,-181.0
4.841355961630279,-72.0
4.843960241329919,-81.0
4.846564521029558,20.0
4.849168800729198,126.0
4.851773080428838,197.0
4.854377360128478,28.0
4.856981639828118,-9.0
4.859585919527757,-83.0
4.862190199227397,123.0
4.8647944789270365,217.0
4.867398758626677,67.0
4.870003038326316,5.0
4.872607318025956,-61.0
4.875211597725595,-146.0
4.877815877425236,-81.0
4.880420157124875,29.0
4.883024436824515,155.0
4.885628716524154,35.0
4.8882329962237945,-61.0
4.890837275923434,-152.0
4.893441555623074,-207.0
4.896045835322713,-110.0
4.898650115022353,4.0
4.901254394721993,65.0
4.903858674421633,177.0
4.906462954121272,-51.0
4.909067233820912,-43.0
4.911671513520552,-13.0
4.914275793220192,-54.0
4.916880072919832,53.0
4.919484352619471,-79.0
4.922088632319111,64.0
4.924692912018751,147.0
4.927297191718391,-43.0
4.92990147141803,-59.0
4.93250575111767,-84.0
4.9351100308173095,135.0
4.93771431051695,131.0
4.940318590216589,-19.0
4.942922869916229,-19.0
4.945527149615868,17.0
4.9481314293155085,99.0
4.950735709015148,-35.0
4.953339988714788,-94.0
4.955944268414427,-37.0
4.958548548114067,99.0
4.961152827813707,39.0
4.963757107513347,19.0
4.966361387212986,8.0
4.968965666912626,-65.0
4.9715699466122665,-24.0
4.974174226311906,15.0
4.976778506011546,-31.0
4.979382785711185,-71.0
4.981987065410825,-47.0
4.984591345110465,-47.0
4.987195624810105,-130.0
4.989799904509744,-1.0
4.992404184209384,-66.0
4.9950084639090235,102.0
4.997612743608664,119.0
5.000217023308303,67.0
5.002821303007943,-74.0
5.005425582707582,38.0
5.008029862407223,169.0
5.010634142106862,-37.0
5.013238421806502,-104.0
5.015842701506141,173.0
5.0184469812057815,134.0
5.021051260905421,-175.0
5.023655540605061,-143.0
5.0262598203047,58.0
5.02886410000434,14.0
5.0314683797039805,58.0
5.03407265940362,-12.0
5.03667693910326,-131.0
5.039281218802899,-118.0
5.041885498502539,-63.0
5.044489778202179,-66.0
5.047094057901819,130.0
5.049698337601458,253.0
5.052302617301098,119.0
5.054906897000738,17.0
5.057511176700378,-81.0
5.060115456400017,-126.0
5.062719736099657,-4.0
5.0653240157992965,83.0
5.067928295498937,34.0
5.070532575198576,-187.0
5.073136854898216,-101.0
5.075741134597855,-24.0
5.0783454142974955,5.0
5.080949693997135,-85.0
5.083553973696775,-47.0
5.086158253396414,143.0
5.088762533096054,-32.0
5.091366812795695,114.0
5.093971092495334,219.0
5.096575372194974,48.0
5.099179651894613,-86.0
5.1017839315942535,-52.0
5.104388211293893,-49.0
5.106992490993533,23.0
5.109596770693172,12.0
5.112201050392812,-34.0
5.114805330092452,-3.0
5.117409609792092,-4.0
5.120013889491731,-60.0
5.122618169191371,53.0
5.1252224488910105,51.0
5.127826728590651,139.0
5.13043100829029,-52.0
5.13303528798993,-159.0
5.135639567689569,-115.0
5.13824384738921,-12.0
5.140848127088849,3.0
5.143452406788489,-19.0
5.146056686488128,-53.0
5.1486609661877685,22.0
5.151265245887408,101.0
5.153869525587048,-1.0
5.156473805286688,86.0
5.159078084986327,99.0
5.1616823646859675,1.0
5.164286644385607,-125.0
5.166890924085247,-95.0
5.169495203784886,4.0
5.172099483484526,-63.0
5.174703763184166,8.0
5.177308042883806,143.0
5.179912322583445,97.0
5.182516602283085,69.0
5.185120881982725,-10.0
5.187725161682365,2.0
5.190329441382004,-93.0
5.192933721081644,-55.0
5.1955380007812835,8.0
5.198142280480924,44.0
5.200746560180563,-13.0
5.203350839880203,33.0
5.205955119579842,-63.0
5.2085593992794825,-63.0
5.211163678979122,30.0
5.213767958678762,60.0
5.216372238378402,-32.0
5.218976518078041,-49.0
5.221580797777682,-109.0
5.224185077477321,-26.0
5.226789357176961,99.0
5.2293936368766,142.0
5.2319979165762405,48.0
5.23460219627588,78.0
5.23720647597552,-13.0
5.239810755675159,-147.0
5.242415035374799,-107.0
5.245019315074439,9.0
5.247623594774079,26.0
5.250227874473718,1.0
5.252832154173358,31.0
5.2554364338729975,-27.0
5.258040713572638,-43.0
5.260644993272277,-138.0
5.263249272971917,32.0
5.265853552671556,190.0
5.268457832371197,108.0
5.271062112070836,94.0
5.273666391770476,-79.0
5.276270671470116,-27.0
5.2788749511697555,-16.0
5.281479230869396,-25.0
5.284083510569035,-66.0
5.286687790268675,-31.0
5.289292069968314,-39.0
5.2918963496679545,7.0
5.294500629367594,43.0
5.297104909067234,22.0
5.299709188766873,-24.0
5.302313468466513,-38.0
5.304917748166153,-5.0
5.307522027865793,-21.0
5.310126307565432,-8.0
5.312730587265072,66.0
5.315334866964712,98.0
5.317939146664352,37.0
5.320543426363991,-20.0
5.323147706063631,-5.0
5.3257519857632705,64.0
5.328356265462911,-25.0
5.33096054516255,-139.0
5.33356482486219,-115.0
5.33616910456183,64.0
5.3387733842614695,137.0
5.34137766396111,20.0
5.343981943660749,-17.0
5.346586223360389,-10.0
5.349190503060028,31.0
5.351794782759669,-2.0
5.354399062459308,-40.0
5.357003342158948,-24.0
5.359607621858587,6.0
5.3622119015582275,-22.0
5.364816181257867,-86.0
5.367420460957507,-128.0
5.370024740657146,-158.0
5.372629020356786,74.0
5.375233300056426,368.0
5.377837579756066,168.0
5.380441859455705,-83.0
5.383046139155345,36.0
5.3856504188549845,32.0
5.388254698554625,-58.0
5.390858978254264,-26.0
5.393463257953904,-74.0
5.396067537653544,-74.0
5.398671817353184,-37.0
5.401276097052824,30.0
5.403880376752463,22.0
5.406484656452103,-19.0
5.4090889361517425,29.0
5.411693215851383,2.0
5.414297495551022,-58.0
5.416901775250662,-3.0
5.419506054950301,8.0
5.4221103346499415,65.0
5.424714614349581,-19.0
5.427318894049221,28.0
5.42992317374886,33.0
5.4325274534485,-16.0
5.43513173314814,-62.0
5.43773601284778,-95.0
5.440340292547419,-39.0
5.442944572247059,-20.0
5.445548851946699,88.0
5.448153131646339,31.0
5.450757411345978,88.0
5.453361691045618,61.0
5.455965970745258,-8.0
5.458570250444898,-28.0
5.461174530144538,1.0
5.463778809844177,-93.0
5.466383089543817,-43.0
5.4689873692434565,-1.0
5.471591648943097,-67.0
5.474195928642736,-117.0
5.476800208342376,-12.0
5.479404488042015,47.0
5.482008767741656,243.0
5.484613047441295,233.0
5.487217327140935,44.0
5.489821606840574,-25.0
5.4924258865402145,-75.0
5.495030166239854,-144.0
5.497634445939494,-125.0
5.500238725639133,8.0
5.502843005338773,100.0
5.505447285038413,38.0
5.508051564738053,-27.0
5.510655844437692,-32.0
5.513260124137332,4.0
5.515864403836972,12.0
5.518468683536612,1.0
5.521072963236252,15.0
5.523677242935891,-10.0
5.526281522635531,-29.0
5.528885802335171,-15.0
5.531490082034811,-13.0
5.53409436173445,-26.0
5.53669864143409,52.0
5.5393029211337295,24.0
5.54190720083337,22.0
5.544511480533009,-24.0
5.547115760232649,-38.0
5.549720039932288,-11.0
5.5523243196319285,9.0
5.554928599331568,-39.0
5.557532879031208,-124.0
5.560137158730847,70.0
5.562741438430487,134.0
5.565345718130127,68.0
5.567949997829767,11.0
5.570554277529406,-100.0
5.573158557229046,-19.0
5.575762836928686,101.0
5.578367116628326,2.0
5.580971396327966,-34.0
5.583575676027605,-35.0
5.586179955727245,-34.0
5.588784235426885,-2.0
5.591388515126525,59.0
5.593992794826164,-16.0
5.596597074525804,-26.0
5.5992013542254435,-19.0
5.601805633925084,35.0
5.604409913624723,-2.0
5.607014193324363,-24.0
5.609618473024002,-12.0
5.612222752723643,-56.0
5.614827032423282,-19.0
5.617431312122922,27.0
5.620035591822561,34.0
5.6226398715222015,56.0
5.625244151221841,4.0
5.627848430921481,-19.0
5.63045271062112,-46.0
5.63305699032076,-39.0
5.6356612700204,21.0
5.63826554972004,110.0
5.64086982941968,52.0
5.643474109119319,-19.0
5.646078388818959,18.0
5.648682668518599,6.0
5.651286948218239,-19.0
5.653891227917878,-19.0
5.656495507617518,-19.0
5.659099787317158,-8.0
5.661704067016798,-10.0
5.664308346716437,-22.0
5.666912626416077,-17.0
5.6695169061157165,-19.0
5.672121185815357,-21.0
5.674725465514996,5.0
5.677329745214636,-13.0
5.679934024914275,27.0
5.6825383046139155,27.0
5.685142584313555,-13.0
5.687746864013195,-4.0
5.690351143712834,-16.0
5.692955423412474,63.0
5.695559703112114,10.0
5.698163982811754,-27.0
5.700768262511394,-31.0
5.703372542211033,-15.0
5.7059768219106735,67.0
5.708581101610313,35.0
5.711185381309953,-35.0
5.713789661009592,-54.0
5.716393940709232,-29.0
5.718998220408872,-78.0
5.721602500108512,100.0
5.724206779808151,68.0
5.726811059507791,-34.0
5.7294153392074305,-32.0
5.732019618907071,28.0
5.73462389860671,112.0
5.73722817830635,19.0
5.739832458005989,-23.0
5.74243673770563,-13.0
5.745041017405269,-10.0
5.747645297104909,-26.0
5.750249576804548,-40.0
5.7528538565041885,-31.0
5.755458136203828,-31.0
5.758062415903468,31.0
5.760666695603108,21.0
5.763270975302747,-26.0
5.7658752550023875,-46.0
5.768479534702027,-82.0
5.771083814401667,6.0
5.773688094101306,110.0
5.776292373800946,20.0
5.778896653500586,108.0
5.781500933200226,19.0
5.784105212899865,0.0
5.786709492599505,1.0
5.789313772299145,-13.0
5.791918051998785,-11.0
5.794522331698424,-40.0
5.797126611398064,-28.0
5.7997308910977035,-8.0
5.802335170797344,-14.0
5.804939450496983,-10.0
5.807543730196623,14.0
5.810148009896262,6.0
5.8127522895959025,-3.0
5.815356569295542,-9.0
5.817960848995182,-21.0
5.820565128694822,-15.0
5.823169408394461,-16.0
5.825773688094102,-69.0
5.828377967793741,10.0
5.830982247493381,41.0
5.83358652719302,59.0
5.8361908068926605,74.0
5.8387950865923,19.0
5.84139936629194,-21.0
5.844003645991579,-18.0
5.846607925691219,-9.0
5.849212205390859,-24.0
5.851816485090499,-34.0
5.854420764790138,29.0
5.857025044489778,23.0
5.8596293241894175,6.0
5.862233603889058,-13.0
5.864837883588697,-34.0
5.867442163288337,-19.0
5.870046442987976,-21.0
5.872650722687617,-15.0
5.875255002387256,-1.0
5.877859282086896,7.0
5.880463561786536,12.0
5.8830678414861755,25.0
5.885672121185816,14.0
5.888276400885455,8.0
5.890880680585095,13.0
5.893484960284734,22.0
5.8960892399843745,-32.0
5.898693519684014,-8.0
5.901297799383654,15.0
5.903902079083293,-8.0
5.906506358782933,-9.0
5.909110638482573,3.0
5.911714918182213,-2.0
5.914319197881852,-11.0
5.916923477581492,-17.0
5.919527757281132,-13.0
5.922132036980772,-19.0
5.924736316680411,2.0
5.927340596380051,18.0
5.9299448760796905,11.0
5.932549155779331,8.0
5.93515343547897,4.0
5.93775771517861,3.0
5.94036199487825,-6.0
5.9429662745778895,22.0
5.94557055427753,78.0
5.948174833977169,28.0
5.950779113676809,-28.0
5.953383393376448,-43.0
5.955987673076089,-20.0
5.958591952775728,-15.0
5.961196232475368,-12.0
5.963800512175007,-6.0
5.9664047918746475,-8.0
5.969009071574287,-12.0
5.971613351273927,-12.0
5.974217630973566,-11.0
5.976821910673206,0.0
5.979426190372846,4.0
5.982030470072486,6.0
5.984634749772125,2.0
5.987239029471765,-4.0
5.9898433091714045,-7.0
5.992447588871045,-30.0
5.995051868570684,71.0
5.997656148270324,99.0
6.000260427969964,-104.0
6.002864707669604,-19.0
6.005468987369244,51.0
6.008073267068883,40.0
6.010677546768523,-17.0
6.0132818264681624,-6.0
6.015886106167803,-6.0
6.018490385867442,-11.0
6.021094665567082,-20.0
6.023698945266721,-14.0
6.0263032249663615,-23.0
6.028907504666001,-44.0
6.031511784365641,20.0
6.03411606406528,36.0
6.03672034376492,13.0
6.03932462346456,4.0
6.0419289031642,5.0
6.044533182863839,6.0
6.047137462563479,8.0
6.049741742263119,4.0
6.052346021962759,4.0
6.054950301662398,1.0
6.057554581362038,-8.0
6.0601588610616774,5.0
6.062763140761318,15.0
6.065367420460958,-82.0
6.067971700160597,-30.0
6.070575979860237,40.0
6.0731802595598765,17.0
6.075784539259517,1.0
6.078388818959156,-111.0
6.080993098658796,32.0
6.083597378358435,84.0
6.086201658058076,29.0
6.088805937757715,-57.0
6.091410217457355,2.0
6.094014497156994,46.0
6.0966187768566344,-33.0
6.099223056556274,-31.0
6.101827336255914,17.0
6.104431615955553,9.0
6.107035895655193,1.0
6.109640175354833,74.0
6.112244455054473,4.0
6.114848734754112,-18.0
6.117453014453752,-8.0
6.1200572941533915,-2.0
6.122661573853032,-18.0
6.125265853552672,-40.0
6.127870133252311,28.0
6.130474412951951,8.0
6.133078692651591,-21.0
6.135682972351231,-19.0
6.13828725205087,-8.0
6.14089153175051,4.0
6.1434958114501494,-11.0
6.14610009114979,13.0
6.148704370849429,82.0
6.151308650549069,-62.0
6.153912930248708,-75.0
6.1565172099483485,85.0
6.159121489647988,19.0
6.161725769347628,40.0
6.164330049047267,-2.0
6.166934328746907,-10.0
6.169538608446547,-28.0
6.172142888146187,-101.0
6.174747167845826,29.0
6.177351447545466,45.0
6.179955727245106,8.0
6.182560006944746,-15.0
6.185164286644386,-12.0
6.187768566344025,1.0
6.190372846043665,7.0
6.192977125743305,2.0
6.195581405442945,8.0
6.198185685142584,6.0
6.200789964842224,12.0
6.2033942445418635,38.0
6.205998524241504,16.0
6.208602803941143,2.0
6.211207083640783,-32.0
6.213811363340422,-21.0
6.2164156430400626,3.0
6.219019922739702,-7.0
6.221624202439342,-23.0
6.224228482138981,-11.0
6.226832761838621,-29.0
6.229437041538261,-66.0
6.232041321237901,18.0
6.23464560093754,53.0
6.23724988063718,33.0
6.23985416033682,2.0
6.24245844003646,-23.0
6.2450627197361,1.0
6.247666999435739,-47.0
6.250271279135379,52.0
6.252875558835019,46.0
6.255479838534659,12.0
6.258084118234298,7.0
6.260688397933938,5.0
6.2632926776335776,-3.0
6.265896957333218,-8.0
6.268501237032857,1.0
6.271105516732497,8.0
6.273709796432136,-30.0
6.276314076131777,-88.0
6.278918355831416,24.0
6.281522635531056,14.0
6.284126915230695,-3.0
6.2867311949303355,-14.0
6.289335474629975,-48.0
6.291939754329615,27.0
6.294544034029254,39.0
6.297148313728894,17.0
6.299752593428534,17.0
6.302356873128174,10.0
6.304961152827814,12.0
6.307565432527453,11.0
6.310169712227093,-9.0
6.312773991926733,13.0
6.315378271626373,1.0
6.317982551326012,-12.0
6.320586831025652,-41.0
6.323191110725292,-11.0
6.325795390424932,2.0
6.328399670124571,-3.0
6.331003949824211,-9.0
6.3336082295238505,-9.0
6.336212509223491,0.0
6.33881678892313,-3.0
6.34142106862277,0.0
6.344025348322409,-16.0
6.3466296280220496,36.0
6.349233907721689,31.0
6.351838187421329,7.0
6.354442467120968,-32.0
6.357046746820608,3.0
6.359651026520248,15.0
6.362255306219888,0.0
6.364859585919528,-20.0
6.367463865619167,32.0
6.3700681453188075,12.0
6.372672425018447,19.0
6.375276704718087,-3.0
6.377880984417726,-8.0
6.380485264117366,-15.0
6.383089543817006,-11.0
6.385693823516646,-30.0
6.388298103216285,-20.0
6.390902382915925,1.0
6.3935066626155646,8.0
6.396110942315205,5.0
6.398715222014844,6.0
6.401319501714484,6.0
6.403923781414123,8.0
6.406528061113764,12.0
6.409132340813403,8.0
6.411736620513043,5.0
6.414340900212682,4.0
6.4169451799123225,6.0
6.419549459611962,-2.0
6.422153739311602,-10.0
6.424758019011242,-9.0
6.427362298710881,-11.0
6.4299665784105215,-13.0
6.432570858110161,-11.0
6.435175137809801,-7.0
6.43777941750944,-7.0
6.44038369720908,-6.0
6.44298797690872,-3.0
6.44559225660836,-3.0
6.448196536307999,-1.0
6.450800816007639,13.0
6.453405095707279,8.0
6.456009375406919,10.0
6.458613655106558,21.0
6.461217934806198,8.0
6.4638222145058375,2.0
6.466426494205478,0.0
6.469030773905117,0.0
6.471635053604757,-4.0
6.474239333304396,-10.0
6.4768436130040365,5.0
6.479447892703676,12.0
6.482052172403316,-29.0
6.484656452102955,-30.0
6.487260731802595,16.0
6.489865011502236,4.0
6.492469291201875,-11.0
6.495073570901515,-16.0
6.497677850601154,-5.0
6.5002821303007945,14.0
6.502886410000434,12.0
6.505490689700074,8.0
6.508094969399713,15.0
6.510699249099353,-3.0
6.513303528798993,-11.0
6.515907808498633,4.0
6.518512088198272,14.0
6.521116367897912,12.0
6.5237206475975515,8.0
6.526324927297192,2.0
6.528929206996831,-7.0
6.531533486696471,-11.0
6.53413776639611,-13.0
6.536742046095751,-13.0
6.53934632579539,-10.0
6.54195060549503,-12.0
6.544554885194669,-5.0
6.5471591648943095,-3.0
6.54976344459395,-32.0
6.552367724293589,-11.0
6.554972003993229,47.0
6.557576283692868,37.0
6.5601805633925085,17.0
6.562784843092148,11.0
6.565389122791788,6.0
6.567993402491427,6.0
6.570597682191067,2.0
6.573201961890707,-8.0
6.575806241590347,-7.0
6.578410521289986,-7.0
6.581014800989626,-5.0
6.583619080689266,-7.0
6.586223360388906,-11.0
6.588827640088545,-12.0
6.591431919788185,-4.0
6.5940361994878245,-9.0
6.596640479187465,-12.0
6.599244758887104,-9.0
6.601849038586744,-3.0
6.604453318286383,14.0
6.6070575979860235,24.0
6.609661877685664,0.0
6.612266157385303,-2.0
6.614870437084943,16.0
6.617474716784582,13.0
6.620078996484223,9.0
6.622683276183862,6.0
6.625287555883502,5.0
6.627891835583141,-4.0
6.6304961152827815,-8.0
6.633100394982421,-2.0
6.635704674682061,-8.0
6.6383089543817,-11.0
6.64091323408134,-16.0
6.64351751378098,-9.0
6.64612179348062,-4.0
6.648726073180259,-4.0
6.651330352879899,-5.0
6.6539346325795385,1.0
6.656538912279179,3.0
6.659143191978818,7.0
6.661747471678458,9.0
6.664351751378097,12.0
6.666956031077738,8.0
6.669560310777378,7.0
6.672164590477017,8.0
6.674768870176657,3.0
6.6773731498762965,-2.0
6.679977429575937,3.0
6.682581709275576,1.0
6.685185988975216,-5.0
6.687790268674855,-11.0
6.6903945483744955,-18.0
6.692998828074135,-5.0
6.695603107773775,-2.0
6.698207387473414,-4.0
6.700811667173054,-2.0
6.703415946872694,-12.0
6.706020226572334,-9.0
6.708624506271973,5.0
6.711228785971613,8.0
6.713833065671253,10.0
6.716437345370893,11.0
6.719041625070532,10.0
6.721645904770172,7.0
6.7242501844698115,7.0
6.726854464169452,4.0
6.729458743869092,4.0
6.732063023568731,1.0
6.734667303268371,-4.0
6.7372715829680105,-7.0
6.739875862667651,-10.0
6.74248014236729,-12.0
6.74508442206693,-9.0
6.747688701766569,-8.0
6.75029298146621,-5.0
6.752897261165849,-7.0
6.755501540865489,0.0
6.758105820565128,1.0
6.7607101002647685,2.0
6.763314379964408,-3.0
6.765918659664048,6.0
6.768522939363687,1.0
6.771127219063327,17.0
6.773731498762967,16.0
6.776335778462607,8.0
6.778940058162246,2.0
6.781544337861886,0.0
6.7841486175615255,3.0
6.786752897261166,-4.0
6.789357176960806,-5.0
6.791961456660445,-6.0
6.794565736360085,-8.0
6.797170016059725,-16.0
6.799774295759365,-4.0
6.802378575459004,-2.0
6.804982855158644,-9.0
6.8075871348582835,-11.0
6.810191414557924,-8.0
6.812795694257563,3.0
6.815399973957203,12.0
6.818004253656842,12.0
6.8206085333564825,12.0
6.823212813056122,9.0
6.825817092755762,5.0
6.828421372455401,9.0
6.831025652155041,9.0
6.833629931854681,5.0
6.836234211554321,1.0
6.83883849125396,-6.0
6.8414427709536,-7.0
6.84404705065324,-9.0
6.84665133035288,-11.0
6.84925561005252,-10.0
6.851859889752159,-5.0
6.854464169451799,-5.0
6.857068449151439,-7.0
6.859672728851079,-8.0
6.862277008550718,-2.0
6.864881288250358,0.0
6.8674855679499975,5.0
6.870089847649638,8.0
6.872694127349277,11.0
6.875298407048917,12.0
6.877902686748556,10.0
6.880506966448197,8.0
6.883111246147836,5.0
6.885715525847476,3.0
6.888319805547115,1.0
6.8909240852467555,-5.0
6.893528364946395,-7.0
6.896132644646035,-8.0
6.898736924345674,-12.0
6.901341204045314,-12.0
6.903945483744954,-9.0
6.906549763444594,-8.0
6.909154043144233,-4.0
6.911758322843873,-2.0
6.914362602543513,1.0
6.916966882243153,-7.0
6.919571161942793,0.0
6.922175441642432,16.0
6.924779721342072,15.0
6.927384001041712,12.0
6.929988280741352,6.0
6.932592560440991,5.0
6.935196840140631,5.0
6.9378011198402705,4.0
6.940405399539911,0.0
6.94300967923955,-2.0
6.94561395893919,-8.0
6.948218238638829,-7.0
6.9508225183384695,-10.0
6.953426798038109,-11.0
6.956031077737749,-10.0
6.958635357437388,-5.0
6.961239637137028,-4.0
6.963843916836668,-7.0
6.966448196536308,-3.0
6.969052476235947,3.0
6.971656755935587,8.0
6.9742610356352275,9.0
6.976865315334867,12.0
6.979469595034507,15.0
6.982073874734146,12.0
6.984678154433786,4.0
6.987282434133426,-2.0
6.989886713833066,2.0
6.992490993532705,1.0
6.995095273232345,-3.0
6.9976995529319845,-8.0
7.000303832631625,-6.0
7.002908112331264,-10.0
7.005512392030904,-13.0
7.008116671730543,-10.0
7.010720951430184,-4.0
7.013325231129823,-3.0
7.015929510829463,-5.0
7.018533790529102,-1.0
7.0211380702287425,3.0
7.023742349928382,8.0
7.026346629628022,9.0
7.028950909327661,11.0
7.031555189027301,11.0
7.0341594687269415,3.0
7.036763748426581,3.0
7.039368028126221,7.0
7.04197230782586,6.0
7.0445765875255,4.0
7.04718086722514,-3.0
7.04978514692478,-10.0
7.052389426624419,-12.0
7.054993706324059,-12.0
7.057597986023699,-10.0
7.060202265723339,-4.0
7.062806545422978,-9.0
7.065410825122618,-7.0
7.0680151048222575,-6.0
7.070619384521898,-1.0
7.073223664221537,5.0
7.075827943921177,7.0
7.078432223620816,6.0
7.0810365033204565,12.0
7.083640783020096,15.0
7.086245062719736,9.0
7.088849342419375,7.0
7.091453622119015,5.0
7.094057901818656,3.0
7.096662181518295,0.0
7.099266461217935,-3.0
7.101870740917574,-8.0
7.1044750206172145,-7.0
7.107079300316854,-10.0
7.109683580016494,-11.0
7.112287859716133,-8.0
7.114892139415773,-5.0
7.117496419115413,-9.0
7.120100698815053,-9.0
7.122704978514692,-3.0
7.125309258214332,5.0
7.1279135379139715,9.0
7.130517817613612,9.0
7.133122097313251,12.0
7.135726377012891,11.0
7.13833065671253,9.0
7.140934936412171,5.0
7.14353921611181,5.0
7.14614349581145,10.0
7.148747775511089,2.0
7.1513520552107295,-3.0
7.15395633491037,-8.0
7.156560614610009,-11.0
7.159164894309649,-16.0
7.161769174009288,-14.0
7.1643734537089285,-6.0
7.166977733408568,-8.0
7.169582013108208,-9.0
7.172186292807847,-6.0
7.174790572507487,-1.0
7.177394852207127,4.0
7.179999131906767,11.0
7.182603411606406,10.0
7.185207691306046,11.0
7.187811971005686,12.0
7.190416250705326,8.0
7.193020530404965,6.0
7.195624810104605,5.0
7.1982290898042445,5.0
7.200833369503885,2.0
7.203437649203524,-5.0
7.206041928903164,-16.0
7.208646208602803,-6.0
7.2112504883024435,-4.0
7.213854768002084,-8.0
7.216459047701723,-7.0
7.219063327401363,-4.0
7.221667607101002,-2.0
7.224271886800643,-3.0
7.226876166500282,-8.0
7.229480446199922,1.0
7.232084725899561,7.0
7.2346890055992015,10.0
7.237293285298841,13.0
7.239897564998481,11.0
7.24250184469812,4.0
7.24510612439776,4.0
7.2477104040974,4.0
7.25031468379704,4.0
7.252918963496679,3.0
7.255523243196319,-3.0
7.2581275228959585,-8.0
7.260731802595599,-10.0
7.263336082295238,-10.0
7.265940361994878,-11.0
7.268544641694517,-7.0
7.271148921394158,-5.0
7.273753201093798,-5.0
7.276357480793437,-6.0
7.278961760493077,-3.0
7.2815660401927165,5.0
7.284170319892357,8.0
7.286774599591996,12.0
7.289378879291636,12.0
7.291983158991275,12.0
7.2945874386909155,6.0
7.297191718390555,5.0
7.299795998090195,5.0
7.302400277789834,4.0
7.305004557489474,1.0
7.307608837189114,-3.0
7.310213116888754,-7.0
7.312817396588393,-9.0
7.315421676288033,-11.0
7.318025955987673,-10.0
7.320630235687313,-8.0
7.323234515386952,-8.0
7.325838795086592,-7.0
7.3284430747862315,-8.0
7.331047354485872,-1.0
7.333651634185511,3.0
7.336255913885151,8.0
7.338860193584791,10.0
7.3414644732844305,10.0
7.344068752984071,11.0
7.34667303268371,8.0
7.34927731238335,6.0
7.351881592082989,5.0
7.35448587178263,4.0
7.357090151482269,1.0
7.359694431181909,-5.0
7.362298710881548,-7.0
7.3649029905811885,-10.0
7.367507270280828,-11.0
7.370111549980468,-10.0
7.372715829680107,-7.0
7.375320109379747,-6.0
7.377924389079387,-6.0
7.380528668779027,-6.0
7.383132948478666,-1.0
7.385737228178306,4.0
7.3883415078779455,9.0
7.390945787577586,11.0
7.393550067277225,11.0
7.396154346976865,11.0
7.398758626676505,5.0
7.401362906376145,4.0
7.403967186075785,6.0
7.406571465775424,3.0
7.409175745475064,1.0
7.4117800251747035,-2.0
7.414384304874344,-6.0
7.416988584573983,-7.0
7.419592864273623,-9.0
7.422197143973262,-10.0
7.4248014236729025,-8.0
7.427405703372542,-9.0
7.430009983072182,-7.0
7.432614262771821,-8.0
7.435218542471461,-3.0
7.437822822171101,4.0
7.440427101870741,10.0
7.44303138157038,12.0
7.44563566127002,12.0
7.44823994096966,10.0
7.4508442206693,9.0
7.453448500368939,4.0
7.456052780068579,6.0
7.458657059768219,5.0
7.461261339467859,1.0
7.463865619167499,-3.0
7.466469898867138,-4.0
7.469074178566778,-10.0
7.4716784582664175,-15.0
7.474282737966058,-13.0
7.476887017665697,-6.0
7.479491297365337,-2.0
7.482095577064976,-5.0
7.484699856764617,-8.0
7.487304136464256,-6.0
7.489908416163896,1.0
7.492512695863535,8.0
7.4951169755631755,5.0
7.497721255262815,4.0
7.500325534962455,19.0
7.502929814662094,17.0
7.505534094361734,9.0
7.508138374061374,4.0
7.510742653761014,3.0
7.513346933460653,-5.0
7.515951213160293,-5.0
7.518555492859933,-2.0
7.521159772559573,-5.0
7.523764052259213,-9.0
7.526368331958852,-11.0
7.528972611658492,-9.0
7.531576891358132,-8.0
7.534181171057772,-5.0
7.536785450757411,-4.0
7.539389730457051,-5.0
7.5419940101566905,-3.0
7.544598289856331,6.0
7.54720256955597,17.0
7.54980684925561,13.0
7.552411128955249,12.0
7.5550154086548895,6.0
7.557619688354529,7.0
7.560223968054169,6.0
7.562828247753808,-3.0
7.565432527453448,0.0
7.568036807153088,1.0
7.570641086852728,-2.0
7.573245366552367,-7.0
7.575849646252007,-15.0
7.5784539259516475,-15.0
7.581058205651287,-7.0
7.583662485350927,-6.0
7.586266765050566,-10.0
7.588871044750206,-8.0
7.591475324449846,1.0
7.594079604149486,6.0
7.596683883849125,12.0
7.599288163548765,10.0
7.6018924432484045,11.0
7.604496722948045,12.0
7.607101002647684,7.0
7.609705282347324,4.0
7.612309562046963,-1.0
7.614913841746604,1.0
7.617518121446243,1.0
7.620122401145883,-3.0
7.622726680845522,-8.0
7.6253309605451625,-9.0
7.627935240244802,-10.0
7.630539519944442,-12.0
7.633143799644081,-5.0
7.635748079343721,-5.0
7.6383523590433615,-5.0
7.640956638743001,-6.0
7.643560918442641,-2.0
7.64616519814228,4.0
7.64876947784192,7.0
7.65137375754156,10.0
7.6539780372412,8.0
7.656582316940839,12.0
7.659186596640479,6.0
7.661790876340119,7.0
7.664395156039759,8.0
7.666999435739398,5.0
7.669603715439038,2.0
7.6722079951386775,-3.0
7.674812274838318,-10.0
7.677416554537957,-7.0
7.680020834237597,-10.0
7.682625113937236,-13.0
7.6852293936368765,-9.0
7.687833673336516,-6.0
7.690437953036156,-6.0
7.693042232735795,-7.0
7.695646512435435,-2.0
7.698250792135076,4.0
7.700855071834715,8.0
7.703459351534355,11.0
7.706063631233994,10.0
7.7086679109336345,10.0
7.711272190633274,8.0
7.713876470332914,8.0
7.716480750032553,7.0
7.719085029732193,4.0
7.721689309431833,0.0
7.724293589131473,-3.0
7.726897868831112,-6.0
7.729502148530752,-8.0
7.7321064282303915,-10.0
7.734710707930032,-15.0
7.737314987629671,-10.0
7.739919267329311,-7.0
7.74252354702895,-6.0
7.745127826728591,-6.0
7.74773210642823,0.0
7.75033638612787,3.0
7.752940665827509,8.0
7.7555449455271495,9.0
7.75814922522679,13.0
7.760753504926429,12.0
7.763357784626069,11.0
7.765962064325708,5.0
7.7685663440253485,-4.0
7.771170623724988,1.0
7.773774903424628,12.0
7.776379183124267,4.0
7.778983462823907,-7.0
7.781587742523547,-13.0
7.784192022223187,-10.0
7.786796301922826,-12.0
7.789400581622466,-9.0
7.792004861322106,-7.0
7.794609141021746,-4.0
7.797213420721385,-6.0
7.799817700421025,-2.0
7.8024219801206645,2.0
7.805026259820305,8.0
7.807630539519944,9.0
7.810234819219584,9.0
7.812839098919223,12.0
7.8154433786188635,7.0
7.818047658318503,8.0
7.820651938018143,4.0
7.823256217717783,3.0
7.825860497417422,4.0
7.828464777117063,-1.0
7.831069056816702,-6.0
7.833673336516342,-11.0
7.836277616215981,-10.0
7.8388818959156215,-10.0
7.841486175615261,-7.0
7.844090455314901,-8.0
7.84669473501454,-7.0
7.84929901471418,-7.0
7.85190329441382,1.0
7.85450757411346,4.0
7.857111853813099,5.0
7.859716133512739,8.0
7.8623204132123785,13.0
7.864924692912019,12.0
7.867528972611658,8.0
7.870133252311298,5.0
7.872737532010937,4.0
7.875341811710578,1.0
7.877946091410217,1.0
7.880550371109857,-4.0
7.883154650809497,-4.0
7.8857589305091365,-8.0
7.888363210208777,-11.0
7.890967489908416,-11.0
7.893571769608056,-7.0
7.896176049307695,-6.0
7.8987803290073355,-8.0
7.901384608706975,-6.0
7.903988888406615,-3.0
7.906593168106254,4.0
7.909197447805894,8.0
7.911801727505534,9.0
7.914406007205174,12.0
7.917010286904813,13.0
7.919614566604453,9.0
7.922218846304093,3.0
7.924823126003733,1.0
7.927427405703372,6.0
7.930031685403012,4.0
7.9326359651026515,-3.0
7.935240244802292,-8.0
7.937844524501931,-9.0
7.940448804201571,-11.0
7.943053083901211,-13.0
7.9456573636008505,-9.0
7.948261643300491,-7.0
7.95086592300013,-4.0
7.95347020269977,-7.0
7.956074482399409,-4.0
7.95867876209905,5.0
7.961283041798689,8.0
7.963887321498329,8.0
7.966491601197968,10.0
7.9690958808976085,12.0
7.971700160597248,7.0
7.974304440296888,8.0
7.976908719996527,8.0
7.979512999696167,7.0
7.982117279395807,-1.0
7.984721559095447,-10.0
7.987325838795086,-11.0
7.989930118494726,-7.0
7.9925343981943655,-9.0
7.995138677894006,-10.0
7.997742957593645,-7.0
8.000347237293285,-5.0
8.002951516992924,-7.0
8.005555796692565,-6.0
8.008160076392205,-2.0
8.010764356091844,4.0
8.013368635791483,9.0
8.015972915491124,9.0
8.018577195190764,8.0
8.021181474890403,10.0
8.023785754590042,7.0
8.026390034289683,6.0
8.028994313989323,5.0
8.031598593688962,4.0
8.034202873388601,1.0
8.036807153088242,-3.0
8.039411432787881,-7.0
8.04201571248752,-7.0
8.04461999218716,-11.0
8.047224271886801,-11.0
8.04982855158644,-8.0
8.05243283128608,-8.0
8.055037110985719,-3.0
8.05764139068536,-7.0
8.060245670385,3.0
8.062849950084638,6.0
8.06545422978428,7.0
8.068058509483919,2.0
8.070662789183558,-1.0
8.073267068883197,14.0
8.075871348582838,16.0
8.078475628282478,10.0
8.081079907982117,5.0
8.083684187681756,4.0
8.086288467381397,2.0
8.088892747081037,-4.0
8.091497026780676,-11.0
8.094101306480315,-13.0
8.096705586179956,-12.0
8.099309865879595,-8.0
8.101914145579235,-1.0
8.104518425278874,-3.0
8.107122704978515,-6.0
8.109726984678154,-7.0
8.112331264377794,-6.0
8.114935544077433,1.0
8.117539823777074,4.0
8.120144103476713,8.0
8.122748383176353,13.0
8.125352662875994,12.0
8.127956942575633,7.0
8.130561222275272,4.0
8.133165501974911,1.0
8.135769781674552,5.0
8.138374061374192,7.0
8.140978341073831,1.0
8.14358262077347,-7.0
8.146186900473111,-11.0
8.14879118017275,-11.0
8.15139545987239,-12.0
8.15399973957203,-8.0
8.15660401927167,-7.0
8.15920829897131,-5.0
8.161812578670949,-7.0
8.164416858370588,-4.0
8.16702113807023,2.0
8.169625417769868,8.0
8.172229697469508,11.0
8.174833977169147,12.0
8.177438256868788,7.0
8.180042536568427,1.0
8.182646816268067,6.0
8.185251095967708,7.0
8.187855375667347,6.0
8.190459655366986,3.0
8.193063935066625,-2.0
8.195668214766267,-7.0
8.198272494465906,-9.0
8.200876774165545,-10.0
8.203481053865184,-11.0
8.206085333564825,-8.0
8.208689613264465,-10.0
8.211293892964104,-5.0
8.213898172663743,-3.0
8.216502452363384,-1.0
8.219106732063024,4.0
8.221711011762663,8.0
8.224315291462302,9.0
8.226919571161943,12.0
8.229523850861582,12.0
8.232128130561222,8.0
8.234732410260861,6.0
8.237336689960502,4.0
8.239940969660141,7.0
8.24254524935978,1.0
8.245149529059422,-6.0
8.247753808759061,-6.0
8.2503580884587,-9.0
8.25296236815834,-11.0
8.25556664785798,-10.0
8.25817092755762,-9.0
8.260775207257259,-9.0
8.263379486956898,-4.0
8.26598376665654,-7.0
8.268588046356179,-3.0
8.271192326055818,4.0
8.273796605755457,8.0
8.276400885455098,9.0
8.279005165154738,12.0
8.281609444854377,12.0
8.284213724554016,8.0
8.286818004253657,5.0
8.289422283953296,4.0
8.292026563652936,5.0
8.294630843352575,1.0
8.297235123052216,-5.0
8.299839402751855,-8.0
8.302443682451495,-9.0
8.305047962151136,-9.0
8.307652241850775,-10.0
8.310256521550414,-6.0
8.312860801250054,-4.0
8.315465080949695,-6.0
8.318069360649334,-8.0
8.320673640348973,-4.0
8.323277920048612,-2.0
8.325882199748253,8.0
8.328486479447893,10.0
8.331090759147532,12.0
8.333695038847171,12.0
8.336299318546812,8.0
8.338903598246452,6.0
8.341507877946091,6.0
8.34411215764573,4.0
8.346716437345371,2.0
8.34932071704501,-3.0
8.35192499674465,-9.0
8.354529276444289,-10.0
8.35713355614393,-10.0
8.35973783584357,-8.0
8.362342115543209,-5.0
8.36494639524285,-6.0
8.367550674942489,-9.0
8.370154954642128,-5.0
8.372759234341768,1.0
8.375363514041409,6.0
8.377967793741048,4.0
8.380572073440687,8.0
8.383176353140326,11.0
8.385780632839968,11.0
8.388384912539607,7.0
8.390989192239246,7.0
8.393593471938885,5.0
8.396197751638526,4.0
8.398802031338166,1.0
8.401406311037805,-3.0
8.404010590737444,-8.0
8.406614870437085,-10.0
8.409219150136725,-11.0
8.411823429836364,-7.0
8.414427709536003,-1.0
8.417031989235644,-4.0
8.419636268935283,-6.0
8.422240548634923,-8.0
8.424844828334564,0.0
8.427449108034203,2.0
8.430053387733842,6.0
8.432657667433482,8.0
8.435261947133123,10.0
8.437866226832762,10.0
8.440470506532401,8.0
8.44307478623204,8.0
8.445679065931682,7.0
8.44828334563132,4.0
8.45088762533096,0.0
8.4534919050306,-4.0
8.45609618473024,-7.0
8.45870046442988,-9.0
8.461304744129519,-10.0
8.463909023829158,-11.0
8.4665133035288,-9.0
8.469117583228439,-14.0
8.471721862928078,-8.0
8.474326142627717,1.0
8.476930422327358,2.0
8.479534702026998,5.0
8.482138981726637,7.0
8.484743261426276,6.0
8.487347541125917,10.0
8.489951820825556,7.0
8.492556100525196,6.0
8.495160380224837,10.0
8.497764659924476,6.0
8.500368939624115,1.0
8.502973219323755,-3.0
8.505577499023396,-9.0
8.508181778723035,-3.0
8.510786058422674,-3.0
8.513390338122313,-9.0
8.515994617821955,-13.0
8.518598897521594,-9.0
8.521203177221233,-9.0
8.523807456920872,-8.0
8.526411736620513,-9.0
8.529016016320153,0.0
8.531620296019792,5.0
8.534224575719431,8.0
8.536828855419072,12.0
8.539433135118712,12.0
8.54203741481835,13.0
8.54464169451799,5.0
8.547245974217631,4.0
8.54985025391727,4.0
8.55245453361691,6.0
8.55505881331655,3.0
8.55766309301619,-3.0
8.56026737271583,-7.0
8.562871652415469,-9.0
8.56547593211511,-14.0
8.568080211814749,-13.0
8.570684491514388,-2.0
8.573288771214028,-3.0
8.575893050913669,-4.0
8.578497330613308,-7.0
8.581101610312947,-2.0
8.583705890012586,-3.0
8.586310169712227,4.0
8.588914449411867,10.0
8.591518729111506,11.0
8.594123008811145,12.0
8.596727288510786,7.0
8.599331568210426,6.0
8.601935847910065,7.0
8.604540127609704,6.0
8.607144407309345,6.0
8.609748687008985,1.0
8.612352966708624,-7.0
8.614957246408265,-12.0
8.617561526107904,-15.0
8.620165805807543,-11.0
8.622770085507183,-5.0
8.625374365206824,-6.0
8.627978644906463,-5.0
8.630582924606102,-5.0
8.633187204305742,0.0
8.635791484005383,4.0
8.638395763705022,4.0
8.641000043404661,9.0
8.6436043231043,11.0
8.646208602803942,14.0
8.64881288250358,8.0
8.65141716220322,7.0
8.65402144190286,4.0
8.6566257216025,2.0
8.65923000130214,0.0
8.661834281001779,-4.0
8.664438560701418,-7.0
8.66704284040106,-6.0
8.669647120100699,-12.0
8.672251399800338,-11.0
8.674855679499979,-7.0
8.677459959199618,-6.0
8.680064238899257,-8.0
8.682668518598897,-7.0
8.685272798298538,-1.0
8.687877077998177,4.0
8.690481357697816,9.0
8.693085637397456,12.0
8.695689917097097,11.0
8.698294196796736,13.0
8.700898476496375,6.0
8.703502756196015,-3.0
8.706107035895656,8.0
8.708711315595295,13.0
8.711315595294934,1.0
8.713919874994573,-4.0
8.716524154694214,-8.0
8.719128434393854,-10.0
8.721732714093493,-10.0
8.724336993793132,-12.0
8.726941273492773,-7.0
8.729545553192413,-8.0
8.732149832892052,-3.0
8.734754112591693,-6.0
8.737358392291332,-6.0
8.739962671990972,2.0
8.74256695169061,10.0
8.745171231390252,12.0
8.747775511089891,12.0
8.75037979078953,12.0
8.75298407048917,5.0
8.75558835018881,2.0
8.75819262988845,5.0
8.76079690958809,6.0
8.763401189287729,3.0
8.76600546898737,-2.0
8.768609748687009,-6.0
8.771214028386648,-8.0
8.773818308086287,-11.0
8.776422587785929,-9.0
8.779026867485568,-10.0
8.781631147185207,-10.0
8.784235426884846,-5.0
8.786839706584487,-6.0
8.789443986284127,-5.0
8.792048265983766,1.0
8.794652545683407,16.0
8.797256825383046,12.0
8.799861105082686,10.0
8.802465384782325,8.0
8.805069664481966,6.0
8.807673944181605,6.0
8.810278223881244,4.0
8.812882503580884,5.0
8.815486783280525,3.0
8.818091062980164,0.0
8.820695342679803,-6.0
8.823299622379443,-9.0
8.825903902079084,-12.0
8.828508181778723,-13.0
8.831112461478362,-11.0
8.833716741178002,-10.0
8.836321020877643,-3.0
8.838925300577282,-4.0
8.841529580276921,-2.0
8.84413385997656,4.0
8.846738139676201,8.0
8.84934241937584,10.0
8.85194669907548,12.0
8.854550978775121,12.0
8.85715525847476,6.0
8.8597595381744,5.0
8.862363817874039,5.0
8.86496809757368,5.0
8.86757237727332,2.0
8.870176656972959,-3.0
8.872780936672598,-10.0
8.875385216372239,-10.0
8.877989496071878,-11.0
8.880593775771517,-10.0
8.883198055471157,-7.0
8.885802335170798,-5.0
8.888406614870437,-6.0
8.891010894570076,-7.0
8.893615174269716,-2.0
8.896219453969357,0.0
8.898823733668996,11.0
8.901428013368635,14.0
8.904032293068274,12.0
8.906636572767916,11.0
8.909240852467555,5.0
8.911845132167194,5.0
8.914449411866835,4.0
8.917053691566474,5.0
8.919657971266114,1.0
8.922262250965753,-4.0
8.924866530665394,-6.0
8.927470810365033,-10.0
8.930075090064673,-9.0
8.932679369764312,-11.0
8.935283649463953,-7.0
8.937887929163592,-7.0
8.940492208863231,-6.0
8.94309648856287,-9.0
8.945700768262512,-5.0
8.948305047962151,4.0
8.95090932766179,9.0
8.95351360736143,12.0
8.95611788706107,12.0
8.95872216676071,12.0
8.96132644646035,7.0
8.963930726159989,5.0
8.96653500585963,4.0
8.969139285559269,4.0
8.971743565258908,2.0
8.97434784495855,-6.0
8.976952124658188,-10.0
8.979556404357828,-10.0
8.982160684057467,-10.0
8.984764963757108,-11.0
8.987369243456747,-7.0
8.989973523156387,-5.0
8.992577802856026,-7.0
8.995182082555667,-6.0
8.997786362255306,-2.0
9.000390641954946,2.0
9.002994921654585,7.0
9.005599201354226,7.0
9.008203481053865,11.0
9.010807760753504,12.0
9.013412040453144,8.0
9.016016320152785,6.0
9.018620599852424,5.0
9.021224879552063,4.0
9.023829159251703,1.0
9.026433438951344,-2.0
9.029037718650983,-6.0
9.031641998350622,-7.0
9.034246278050263,-11.0
9.036850557749903,-11.0
9.039454837449542,-10.0
9.042059117149181,-7.0
9.044663396848822,-4.0
9.047267676548461,-4.0
9.0498719562481,-3.0
9.05247623594774,-2.0
9.055080515647381,1.0
9.05768479534702,14.0
9.06028907504666,19.0
9.062893354746299,11.0
9.06549763444594,11.0
9.06810191414558,5.0
9.070706193845218,2.0
9.073310473544858,0.0
9.075914753244499,-1.0
9.078519032944138,-9.0
9.081123312643777,-7.0
9.083727592343417,-5.0
9.086331872043058,-10.0
9.088936151742697,-10.0
9.091540431442336,-4.0
9.094144711141977,-6.0
9.096748990841617,-7.0
9.099353270541256,-9.0
9.101957550240895,1.0
9.104561829940536,1.0
9.107166109640175,8.0
9.109770389339815,8.0
9.112374669039454,7.0
9.114978948739095,13.0
9.117583228438734,14.0
9.120187508138374,8.0
9.122791787838013,4.0
9.125396067537654,4.0
9.128000347237293,1.0
9.130604626936933,-8.0
9.133208906636572,-13.0
9.135813186336213,-7.0
9.138417466035852,-4.0
9.141021745735491,-8.0
9.14362602543513,-10.0
9.146230305134772,-6.0
9.148834584834411,-5.0
9.15143886453405,-9.0
9.154043144233691,-5.0
9.15664742393333,7.0
9.15925170363297,9.0
9.16185598333261,11.0
9.16446026303225,11.0
9.16706454273189,11.0
9.169668822431529,6.0
9.172273102131168,5.0
9.17487738183081,5.0
9.177481661530448,4.0
9.180085941230088,4.0
9.182690220929727,-4.0
9.185294500629368,-4.0
9.187898780329007,-8.0
9.190503060028647,-11.0
9.193107339728286,-11.0
9.195711619427927,-8.0
9.198315899127566,-7.0
9.200920178827205,-8.0
9.203524458526845,-8.0
9.206128738226486,-3.0
9.208733017926125,4.0
9.211337297625764,7.0
9.213941577325405,10.0
9.216545857025045,12.0
9.219150136724684,9.0
9.221754416424323,9.0
9.224358696123964,8.0
9.226962975823604,4.0
9.229567255523243,6.0
9.232171535222882,1.0
9.234775814922523,-4.0
9.237380094622162,-9.0
9.239984374321802,-11.0
9.242588654021441,-11.0
9.245192933721082,-14.0
9.247797213420721,-10.0
9.25040149312036,-1.0
9.25300577282,0.0
9.255610052519641,0.0
9.25821433221928,3.0
9.26081861191892,-1.0
9.263422891618559,-2.0
9.2660271713182,8.0
9.26863145101784,11.0
9.271235730717478,14.0
9.27384001041712,12.0
9.276444290116759,6.0
9.279048569816398,5.0
9.281652849516037,1.0
9.284257129215678,-10.0
9.286861408915318,1.0
9.289465688614957,-2.0
9.292069968314596,-6.0
9.294674248014237,-8.0
9.297278527713877,-12.0
9.299882807413516,-5.0
9.302487087113155,-8.0
9.305091366812796,-9.0
9.307695646512435,-5.0
9.310299926212075,0.0
9.312904205911714,1.0
9.315508485611355,9.0
9.318112765310994,11.0
9.320717045010634,12.0
9.323321324710273,12.0
9.325925604409914,8.0
9.328529884109553,3.0
9.331134163809192,0.0
9.333738443508832,4.0
9.336342723208473,0.0
9.338947002908112,0.0
9.341551282607751,-3.0
9.344155562307392,-8.0
9.346759842007032,-10.0
9.349364121706671,-12.0
9.35196840140631,-9.0
9.354572681105951,-11.0
9.35717696080559,-5.0
9.35978124050523,-3.0
9.36238552020487,-2.0
9.36498979990451,3.0
9.36759407960415,7.0
9.370198359303789,4.0
9.372802639003428,9.0
9.375406918703069,10.0
9.378011198402708,7.0
9.380615478102348,8.0
9.383219757801987,9.0
9.385824037501628,6.0
9.388428317201267,3.0
9.391032596900907,-5.0
9.393636876600546,-9.0
9.396241156300187,-8.0
9.398845435999826,-12.0
9.401449715699465,-10.0
9.404053995399106,-9.0
9.406658275098746,-5.0
9.409262554798385,-6.0
9.411866834498024,-7.0
9.414471114197665,-4.0
9.417075393897305,4.0
9.419679673596944,8.0
9.422283953296583,6.0
9.424888232996224,11.0
9.427492512695864,12.0
9.430096792395503,8.0
9.432701072095142,6.0
9.435305351794783,6.0
9.437909631494422,4.0
9.440513911194062,1.0
9.443118190893701,-5.0
9.445722470593342,-5.0
9.448326750292981,-8.0
9.45093102999262,-11.0
9.45353530969226,-11.0
9.456139589391901,-7.0
9.45874386909154,-5.0
9.46134814879118,-7.0
9.46395242849082,-10.0
9.46655670819046,-4.0
9.469160987890099,6.0
9.471765267589738,11.0
9.47436954728938,12.0
9.476973826989019,12.0
9.479578106688658,9.0
9.482182386388297,11.0
9.484786666087938,8.0
9.487390945787578,4.0
9.489995225487217,2.0
9.492599505186856,0.0
9.495203784886497,-2.0
9.497808064586136,-9.0
9.500412344285776,-13.0
9.503016623985415,-13.0
9.505620903685056,-9.0
9.508225183384695,-4.0
9.510829463084335,-5.0
9.513433742783974,-8.0
9.516038022483615,-7.0
9.518642302183254,-2.0
9.521246581882894,5.0
9.523850861582535,9.0
9.526455141282174,8.0
9.529059420981813,9.0
9.531663700681452,12.0
9.534267980381093,8.0
9.536872260080733,7.0
9.539476539780372,3.0
9.542080819480011,6.0
9.544685099179652,2.0
9.547289378879292,-3.0
9.549893658578931,-8.0
9.55249793827857,-8.0
9.555102217978211,-11.0
9.55770649767785,-11.0
9.56031077737749,-5.0
9.562915057077129,-3.0
9.56551933677677,-5.0
9.56812361647641,-7.0
9.570727896176049,-1.0
9.573332175875688,-2.0
9.575936455575329,0.0
9.578540735274968,4.0
9.581145014974608,13.0
9.583749294674249,19.0
9.586353574373888,10.0
9.588957854073527,8.0
9.591562133773166,1.0
9.594166413472808,0.0
9.596770693172447,1.0
9.599374972872086,-1.0
9.601979252571725,-7.0
9.604583532271366,-8.0
9.607187811971006,-11.0
9.609792091670645,-12.0
9.612396371370284,-8.0
9.615000651069925,-6.0
9.617604930769565,-7.0
9.620209210469204,-8.0
9.622813490168843,-2.0
9.625417769868484,5.0
9.628022049568123,9.0
9.630626329267763,8.0
9.633230608967402,12.0
9.635834888667043,8.0
9.638439168366682,5.0
9.641043448066322,6.0
9.643647727765963,5.0
9.646252007465602,8.0
9.648856287165241,4.0
9.65146056686488,-3.0
9.654064846564522,-6.0
9.65666912626416,-12.0
9.6592734059638,-16.0
9.66187768566344,-6.0
9.66448196536308,-3.0
9.66708624506272,-6.0
9.669690524762359,-12.0
9.672294804461998,-10.0
9.67489908416164,-4.0
9.677503363861279,0.0
9.680107643560918,12.0
9.682711923260557,17.0
9.685316202960198,16.0
9.687920482659838,14.0
9.690524762359477,5.0
9.693129042059116,-1.0
9.695733321758757,1.0
9.698337601458396,2.0
9.700941881158036,1.0
9.703546160857677,-2.0
9.706150440557316,-6.0
9.708754720256955,-9.0
9.711358999956595,-8.0
9.713963279656236,-8.0
9.716567559355875,-4.0
9.719171839055514,-7.0
9.721776118755153,-8.0
9.724380398454795,-7.0
9.726984678154434,-2.0
9.729588957854073,5.0
9.732193237553712,7.0
9.734797517253353,8.0
9.737401796952993,12.0
9.740006076652632,9.0
9.742610356352271,6.0
9.745214636051912,8.0
9.747818915751552,4.0
9.75042319545119,3.0
9.75302747515083,3.0
9.755631754850471,-1.0
9.75823603455011,-7.0
9.76084031424975,-8.0
9.76344459394939,-10.0
9.76604887364903,-10.0
9.76865315334867,-8.0
9.771257433048309,-7.0
9.77386171274795,-9.0
9.776465992447589,-8.0
9.779070272147228,-2.0
9.781674551846868,2.0
9.784278831546509,9.0
9.786883111246148,15.0
9.789487390945787,16.0
9.792091670645426,14.0
9.794695950345067,5.0
9.797300230044707,0.0
9.799904509744346,-7.0
9.802508789443985,-5.0
9.805113069143626,8.0
9.807717348843266,8.0
9.810321628542905,-3.0
9.812925908242544,-10.0
9.815530187942185,-12.0
9.818134467641825,-11.0
9.820738747341464,-8.0
9.823343027041105,-7.0
9.825947306740744,-5.0
9.828551586440383,-9.0
9.831155866140023,-1.0
9.833760145839664,4.0
9.836364425539303,7.0
9.838968705238942,9.0
9.841572984938582,12.0
9.844177264638223,12.0
9.846781544337862,6.0
9.849385824037501,7.0
9.85199010373714,5.0
9.854594383436782,5.0
9.85719866313642,0.0
9.85980294283606,-2.0
9.8624072225357,-7.0
9.86501150223534,-7.0
9.86761578193498,-9.0
9.870220061634619,-12.0
9.872824341334258,-8.0
9.8754286210339,-10.0
9.878032900733539,-6.0
9.880637180433178,-4.0
9.883241460132819,-2.0
9.885845739832458,4.0
9.888450019532097,7.0
9.891054299231737,11.0
9.893658578931378,9.0
9.896262858631017,11.0
9.898867138330656,9.0
9.901471418030296,8.0
9.904075697729937,4.0
9.906679977429576,6.0
9.909284257129215,1.0
9.911888536828855,-3.0
9.914492816528496,-11.0
9.917097096228135,-13.0
9.919701375927774,-10.0
9.922305655627413,-8.0
9.924909935327054,-6.0
9.927514215026694,-8.0
9.930118494726333,-9.0
9.932722774425972,-5.0
9.935327054125613,-1.0
9.937931333825253,4.0
9.940535613524892,6.0
9.943139893224533,11.0
9.945744172924172,12.0
9.948348452623812,12.0
9.95095273232345,6.0
9.953557012023092,4.0
9.956161291722731,3.0
9.95876557142237,5.0
9.96136985112201,5.0
9.96397413082165,0.0
9.96657841052129,-7.0
9.96918269022093,-9.0
9.971786969920569,-10.0
9.97439124962021,-10.0
9.976995529319849,-8.0
9.979599809019488,-8.0
9.982204088719127,-7.0
9.984808368418769,-9.0
9.987412648118408,-3.0
9.990016927818047,5.0
9.992621207517686,6.0
9.995225487217327,8.0
9.997829766916967,12.0
10.000434046616606,14.0
10.003038326316247,9.0
10.005642606015886,7.0
10.008246885715526,6.0
10.010851165415165,8.0
10.013455445114806,1.0
10.016059724814445,-4.0
10.018664004514084,-4.0
10.021268284213724,-15.0
10.023872563913365,-15.0
10.026476843613004,-7.0
10.029081123312643,-4.0
10.031685403012283,-11.0
10.034289682711924,-9.0
10.036893962411563,0.0
10.039498242111202,0.0
10.042102521810842,3.0
10.044706801510483,0.0
10.047311081210122,3.0
10.049915360909761,18.0
10.0525196406094,18.0
10.055123920309041,7.0
10.05772820000868,4.0
10.06033247970832,3.0
10.062936759407961,5.0
10.0655410391076,1.0
10.06814531880724,-3.0
10.070749598506879,-7.0
10.07335387820652,-10.0
10.07595815790616,-11.0
10.078562437605799,-11.0
10.081166717305438,-8.0
10.083770997005079,-6.0
10.086375276704718,-8.0
10.088979556404357,-8.0
10.091583836103997,-2.0
10.094188115803638,1.0
10.096792395503277,8.0
10.099396675202916,11.0
10.102000954902556,12.0
10.104605234602197,13.0
10.107209514301836,9.0
10.109813794001475,5.0
10.112418073701114,3.0
10.115022353400756,3.0
10.117626633100395,-3.0
10.120230912800034,-3.0
10.122835192499675,-4.0
10.125439472199314,0.0
10.128043751898954,-8.0
10.130648031598593,-14.0
10.133252311298234,-7.0
10.135856590997873,-5.0
10.138460870697513,-8.0
10.141065150397152,-11.0
10.143669430096793,-5.0
10.146273709796432,1.0
10.148877989496071,9.0
10.15148226919571,8.0
10.154086548895352,11.0
10.156690828594991,12.0
10.15929510829463,8.0
10.16189938799427,6.0
10.16450366769391,6.0
10.16710794739355,5.0
10.16971222709319,3.0
10.172316506792829,-7.0
10.17492078649247,-9.0
10.177525066192109,-8.0
10.180129345891748,-11.0
10.18273362559139,-10.0
10.185337905291028,-7.0
10.187942184990668,-6.0
10.190546464690307,-9.0
10.193150744389948,-11.0
10.195755024089587,-1.0
10.198359303789227,2.0
10.200963583488866,8.0
10.203567863188507,12.0
10.206172142888146,13.0
10.208776422587786,12.0
10.211380702287425,9.0
10.213984981987066,3.0
10.216589261686705,4.0
10.219193541386344,6.0
10.221797821085984,3.0
10.224402100785625,3.0
10.227006380485264,-3.0
10.229610660184903,-12.0
10.232214939884543,-13.0
10.234819219584184,-12.0
10.237423499283823,-12.0
10.240027778983462,-7.0
10.242632058683101,-3.0
10.245236338382743,-5.0
10.247840618082382,0.0
10.250444897782021,2.0
10.253049177481662,6.0
10.255653457181301,8.0
10.25825773688094,11.0
10.26086201658058,12.0
10.263466296280221,9.0
10.26607057597986,6.0
10.2686748556795,7.0
10.271279135379139,6.0
10.27388341507878,0.0
10.27648769477842,-4.0
10.279091974478058,-8.0
10.281696254177698,-10.0
10.284300533877339,-12.0
10.286904813576978,-9.0
10.289509093276617,-3.0
10.292113372976257,-2.0
10.294717652675898,-7.0
10.297321932375537,-4.0
10.299926212075176,-5.0
10.302530491774816,-5.0
10.305134771474457,0.0
10.307739051174096,12.0
10.310343330873735,20.0
10.312947610573376,17.0
10.315551890273015,8.0
10.318156169972655,1.0
10.320760449672294,2.0
10.323364729371935,2.0
10.325969009071574,0.0
10.328573288771214,-3.0
10.331177568470853,-8.0
10.333781848170494,-7.0
10.336386127870133,-11.0
10.338990407569773,-9.0
10.341594687269412,-4.0
10.344198966969053,-3.0
10.346803246668692,-4.0
10.349407526368331,-8.0
10.35201180606797,-7.0
10.354616085767612,-1.0
10.357220365467251,7.0
10.35982464516689,6.0
10.36242892486653,12.0
10.36503320456617,17.0
10.36763748426581,9.0
10.37024176396545,6.0
10.37284604366509,5.0
10.37545032336473,4.0
10.378054603064369,1.0
10.380658882764008,-3.0
10.383263162463649,-8.0
10.385867442163288,-11.0
10.388471721862928,-8.0
10.391076001562567,-8.0
10.393680281262208,-6.0
10.396284560961847,-7.0
10.398888840661487,-5.0
10.401493120361126,-5.0
10.404097400060767,1.0
10.406701679760406,0.0
10.409305959460045,4.0
10.411910239159685,9.0
10.414514518859326,11.0
10.417118798558965,9.0
10.419723078258604,6.0
10.422327357958244,6.0
10.424931637657885,8.0
10.427535917357524,4.0
10.430140197057163,3.0
10.432744476756804,-3.0
10.435348756456444,-6.0
10.437953036156083,-8.0
10.440557315855722,-12.0
10.443161595555363,-10.0
10.445765875255002,-8.0
10.448370154954642,-6.0
10.450974434654281,-7.0
10.453578714353922,-7.0
10.456182994053561,1.0
10.4587872737532,4.0
10.46139155345284,6.0
10.463995833152481,8.0
10.46660011285212,10.0
10.46920439255176,8.0
10.471808672251399,5.0
10.47441295195104,8.0
10.477017231650679,8.0
10.479621511350318,8.0
10.482225791049958,1.0
10.484830070749599,-3.0
10.487434350449238,-5.0
10.490038630148877,-9.0
10.492642909848518,-10.0
10.495247189548158,-6.0
10.497851469247797,-13.0
10.500455748947436,-14.0
10.503060028647077,-5.0
10.505664308346716,-5.0
10.508268588046356,1.0
10.510872867745995,3.0
10.513477147445636,4.0
10.516081427145275,14.0
10.518685706844915,15.0
10.521289986544554,12.0
10.523894266244195,5.0
10.526498545943834,3.0
10.529102825643474,4.0
10.531707105343113,4.0
10.534311385042754,0.0
10.536915664742393,-4.0
10.539519944442032,-8.0
10.542124224141672,-9.0
10.544728503841313,-10.0
10.547332783540952,-8.0
10.549937063240591,-8.0
10.552541342940232,-5.0
10.555145622639872,-8.0
10.557749902339511,-8.0
10.56035418203915,-2.0
10.562958461738791,4.0
10.56556274143843,8.0
10.56816702113807,7.0
10.570771300837709,10.0
10.57337558053735,10.0
10.57597986023699,10.0
10.578584139936629,8.0
10.581188419636268,8.0
10.583792699335909,6.0
10.586396979035548,-2.0
10.589001258735188,-7.0
10.591605538434827,-11.0
10.594209818134468,-14.0
10.596814097834107,-10.0
10.599418377533746,-1.0
10.602022657233386,-4.0
10.604626936933027,-11.0
10.607231216632666,-10.0
10.609835496332305,-1.0
10.612439776031946,-1.0
10.615044055731586,1.0
10.617648335431225,9.0
10.620252615130864,12.0
10.622856894830505,10.0
10.625461174530145,11.0
10.628065454229784,8.0
10.630669733929423,5.0
10.633274013629064,5.0
10.635878293328703,5.0
10.638482573028343,0.0
10.641086852727982,-4.0
10.643691132427623,-8.0
10.646295412127262,-11.0
10.648899691826902,-10.0
10.651503971526541,-8.0
10.654108251226182,-6.0
10.656712530925821,-7.0
10.65931681062546,-8.0
10.6619210903251,-6.0
10.66452537002474,0.0
10.66712964972438,2.0
10.66973392942402,5.0
10.67233820912366,10.0
10.6749424888233,13.0
10.677546768522939,12.0
10.680151048222578,7.0
10.68275532792222,6.0
10.685359607621859,4.0
10.687963887321498,5.0
10.690568167021137,0.0
10.693172446720778,-3.0
10.695776726420418,-7.0
10.698381006120057,-12.0
10.700985285819696,-10.0
10.703589565519337,-11.0
10.706193845218976,-6.0
10.708798124918616,-4.0
10.711402404618255,-4.0
10.714006684317896,-5.0
10.716610964017535,-4.0
10.719215243717175,-2.0
10.721819523416814,5.0
10.724423803116455,8.0
10.727028082816094,14.0
10.729632362515733,20.0
10.732236642215375,9.0
10.734840921915014,1.0
10.737445201614653,-2.0
10.740049481314292,5.0
10.742653761013933,5.0
10.745258040713573,-2.0
10.747862320413212,-7.0
10.750466600112851,-8.0
10.753070879812492,-15.0
10.755675159512132,-14.0
10.75827943921177,-7.0
10.76088371891141,-4.0
10.763487998611051,-5.0
10.76609227831069,-4.0
10.76869655801033,-2.0
10.771300837709969,3.0
10.77390511740961,5.0
10.77650939710925,11.0
10.779113676808889,13.0
10.781717956508528,12.0
10.784322236208169,6.0
10.786926515907808,6.0
10.789530795607448,3.0
10.792135075307089,2.0
10.794739355006728,4.0
10.797343634706367,-3.0
10.799947914406006,-8.0
10.802552194105647,-7.0
10.805156473805287,-8.0
10.807760753504926,-8.0
10.810365033204565,-5.0
10.812969312904206,-3.0
10.815573592603846,-7.0
10.818177872303485,-11.0
10.820782152003124,-9.0
10.823386431702765,0.0
10.825990711402405,4.0
10.828594991102044,7.0
10.831199270801683,6.0
10.833803550501324,18.0
10.836407830200963,15.0
10.839012109900603,8.0
10.841616389600242,5.0
10.844220669299883,3.0
10.846824948999522,2.0
10.849429228699162,-3.0
10.852033508398803,-8.0
10.854637788098442,-9.0
10.857242067798081,-10.0
10.85984634749772,-11.0
10.862450627197362,-8.0
10.865054906897,-7.0
10.86765918659664,-7.0
10.87026346629628,-7.0
10.87286774599592,-4.0
10.87547202569556,1.0
10.878076305395199,5.0
10.880680585094838,12.0
10.88328486479448,19.0
10.885889144494119,12.0
10.888493424193758,6.0
10.891097703893397,6.0
10.893701983593038,3.0
10.896306263292677,3.0
10.898910542992317,2.0
10.901514822691956,-6.0
10.904119102391597,-6.0
10.906723382091236,-8.0
10.909327661790876,-8.0
10.911931941490517,-9.0
10.914536221190156,-2.0
10.917140500889795,-9.0
10.919744780589435,-14.0
10.922349060289076,-14.0
10.924953339988715,1.0
10.927557619688354,5.0
10.930161899387993,4.0
10.932766179087634,6.0
10.935370458787274,11.0
10.937974738486913,12.0
10.940579018186552,8.0
10.943183297886193,10.0
10.945787577585833,8.0
10.948391857285472,6.0
10.950996136985111,1.0
10.953600416684752,-3.0
10.956204696384392,-7.0
10.95880897608403,-8.0
10.96141325578367,-10.0
10.964017535483311,-10.0
10.96662181518295,-8.0
10.96922609488259,-6.0
10.97183037458223,-8.0
10.97443465428187,-10.0
10.97703893398151,-5.0
10.979643213681149,2.0
10.98224749338079,9.0
10.984851773080429,12.0
10.987456052780068,12.0
10.990060332479707,9.0
10.992664612179349,8.0
10.995268891878988,4.0
10.997873171578627,5.0
11.000477451278266,7.0
11.003081730977907,3.0
11.005686010677547,-3.0
11.008290290377186,-10.0
11.010894570076825,-9.0
11.013498849776466,-3.0
11.016103129476106,-5.0
11.018707409175745,-2.0
11.021311688875384,-3.0
11.023915968575025,-11.0
11.026520248274664,-20.0
11.029124527974304,-10.0
11.031728807673945,4.0
11.034333087373584,6.0
11.036937367073223,15.0
11.039541646772863,17.0
11.042145926472504,12.0
11.044750206172143,8.0
11.047354485871782,6.0
11.049958765571422,5.0
11.052563045271063,4.0
11.055167324970702,1.0
11.057771604670341,-6.0
11.06037588436998,-5.0
11.062980164069621,-7.0
11.06558444376926,-9.0
11.0681887234689,-12.0
11.07079300316854,-9.0
11.07339728286818,-3.0
11.07600156256782,-6.0
11.078605842267459,-7.0
11.081210121967098,-3.0
11.08381440166674,4.0
11.086418681366379,8.0
11.089022961066018,6.0
11.091627240765659,2.0
11.094231520465298,15.0
11.096835800164937,15.0
11.099440079864577,4.0
11.102044359564218,2.0
11.104648639263857,4.0
11.107252918963496,3.0
11.109857198663136,-3.0
11.112461478362777,-7.0
11.115065758062416,-9.0
11.117670037762055,-9.0
11.120274317461694,-12.0
11.122878597161336,-8.0
11.125482876860975,-3.0
11.128087156560614,-7.0
11.130691436260253,-12.0
11.133295715959894,-5.0
11.135899995659534,9.0
11.138504275359173,6.0
11.141108555058812,10.0
11.143712834758453,14.0
11.146317114458093,10.0
11.148921394157732,-2.0
11.151525673857371,4.0
11.154129953557012,10.0
11.156734233256651,9.0
11.15933851295629,3.0
11.161942792655932,-6.0
11.164547072355571,-9.0
11.16715135205521,-12.0
11.16975563175485,-10.0
11.17235991145449,-6.0
11.17496419115413,-8.0
11.17756847085377,-7.0
11.180172750553409,-9.0
11.18277703025305,-9.0
11.185381309952689,-6.0
11.187985589652328,4.0
11.190589869351967,9.0
11.193194149051608,10.0
11.195798428751248,13.0
11.198402708450887,15.0
11.201006988150526,7.0
11.203611267850167,7.0
11.206215547549807,4.0
11.208819827249446,4.0
11.211424106949085,4.0
11.214028386648726,0.0
11.216632666348366,-8.0
11.219236946048005,-8.0
11.221841225747646,-5.0
11.224445505447285,-10.0
11.227049785146924,-11.0
11.229654064846564,-13.0
11.232258344546205,-4.0
11.234862624245844,-2.0
11.237466903945483,-2.0
11.240071183645123,4.0
11.242675463344764,9.0
11.245279743044403,-1.0
11.247884022744042,8.0
11.250488302443681,11.0
11.253092582143323,7.0
11.255696861842962,4.0
11.258301141542601,7.0
11.26090542124224,9.0
11.263509700941881,4.0
11.26611398064152,-3.0
11.26871826034116,-13.0
11.2713225400408,-15.0
11.27392681974044,-8.0
11.27653109944008,-9.0
11.279135379139719,-7.0
11.28173965883936,-3.0
11.284343938539,-2.0
11.286948218238638,-5.0
11.289552497938278,-3.0
11.292156777637919,4.0
11.294761057337558,10.0
11.297365337037197,10.0
11.299969616736837,6.0
11.302573896436478,5.0
11.305178176136117,8.0
11.307782455835756,9.0
11.310386735535396,5.0
11.312991015235037,10.0
11.315595294934676,-1.0
11.318199574634315,-9.0
11.320803854333954,-10.0
11.323408134033595,-22.0
11.326012413733235,-15.0
11.328616693432874,-4.0
11.331220973132513,-1.0
11.333825252832154,-3.0
11.336429532531794,-4.0
11.339033812231433,4.0
11.341638091931074,2.0
11.344242371630713,6.0
11.346846651330353,9.0
11.349450931029992,8.0
11.352055210729633,7.0
11.354659490429272,9.0
11.357263770128911,9.0
11.35986804982855,2.0
11.362472329528192,-3.0
11.365076609227831,5.0
11.36768088892747,7.0
11.37028516862711,-4.0
11.37288944832675,-5.0
11.37549372802639,-3.0
11.37809800772603,-4.0
11.380702287425668,-12.0
11.38330656712531,-13.0
11.385910846824949,-13.0
11.388515126524588,-14.0
11.391119406224227,-5.0
11.393723685923868,2.0
11.396327965623508,7.0
11.398932245323147,8.0
11.401536525022788,3.0
11.404140804722427,12.0
11.406745084422067,15.0
11.409349364121706,5.0
11.411953643821347,2.0
11.414557923520986,5.0
11.417162203220625,4.0
11.419766482920265,1.0
11.422370762619906,-10.0
11.424975042319545,-10.0
11.427579322019184,-11.0
11.430183601718824,0.0
11.432787881418465,-7.0
11.435392161118104,-9.0
11.437996440817743,-10.0
11.440600720517383,-12.0
11.443205000217024,-2.0
11.445809279916663,8.0
11.448413559616302,5.0
11.451017839315941,1.0
11.453622119015582,8.0
11.456226398715222,11.0
11.458830678414861,5.0
11.461434958114502,10.0
11.464039237814141,19.0
11.46664351751378,12.0
11.46924779721342,10.0
11.471852076913061,5.0
11.4744563566127,-2.0
11.47706063631234,-12.0
11.479664916011979,-11.0
11.48226919571162,-21.0
11.48487347541126,-20.0
11.487477755110898,-10.0
11.490082034810538,2.0
11.492686314510179,4.0
11.495290594209818,-5.0
11.497894873909457,-11.0
11.500499153609097,-8.0
11.503103433308738,-18.0
11.505707713008377,-5.0
11.508311992708016,23.0
11.510916272407655,37.0
11.513520552107297,19.0
11.516124831806936,-16.0
11.518729111506575,21.0
11.521333391206216,11.0
11.523937670905855,-31.0
11.526541950605495,4.0
11.529146230305134,15.0
11.531750510004775,2.0
11.534354789704414,-6.0
11.536959069404054,-10.0
11.539563349103693,2.0
11.542167628803334,2.0
11.544771908502973,-12.0
11.547376188202612,-21.0
11.549980467902252,-8.0
11.552584747601893,-5.0
11.555189027301532,-18.0
11.557793307001171,-21.0
11.56039758670081,-13.0
11.563001866400452,-30.0
11.565606146100091,-83.0
11.56821042579973,30.0
11.57081470549937,122.0
11.57341898519901,39.0
11.57602326489865,-16.0
11.57862754459829,-8.0
11.58123182429793,19.0
11.58383610399757,19.0
11.586440383697209,-3.0
11.589044663396848,4.0
11.591648943096489,56.0
11.594253222796128,26.0
11.596857502495768,-52.0
11.599461782195407,-109.0
11.602066061895048,35.0
11.604670341594687,116.0
11.607274621294327,69.0
11.609878900993966,4.0
11.612483180693607,-10.0
11.615087460393246,-5.0
11.617691740092885,14.0
11.620296019792525,-8.0
11.622900299492166,-44.0
11.625504579191805,-52.0
11.628108858891444,-35.0
11.630713138591084,-31.0
11.633317418290725,12.0
11.635921697990364,30.0
11.638525977690003,-86.0
11.641130257389644,-97.0
11.643734537089284,36.0
11.646338816788923,52.0
11.648943096488562,-21.0
11.651547376188203,51.0
11.654151655887842,57.0
11.656755935587482,17.0
11.659360215287121,-31.0
11.661964494986762,-22.0
11.664568774686401,-8.0
11.66717305438604,-12.0
11.66977733408568,-12.0
11.672381613785321,19.0
11.67498589348496,77.0
11.6775901731846,97.0
11.680194452884239,21.0
11.68279873258388,-14.0
11.685403012283519,-33.0
11.688007291983158,-60.0
11.690611571682798,-81.0
11.693215851382439,-8.0
11.695820131082078,8.0
11.698424410781717,-14.0
11.701028690481358,-20.0
11.703632970180998,-40.0
11.706237249880637,-26.0
11.708841529580276,53.0
11.711445809279917,48.0
11.714050088979556,-37.0
11.716654368679196,13.0
11.719258648378835,-15.0
11.721862928078476,13.0
11.724467207778115,-15.0
11.727071487477755,-36.0
11.729675767177394,29.0
11.732280046877035,121.0
11.734884326576674,159.0
11.737488606276314,57.0
11.740092885975953,-23.0
11.742697165675594,-48.0
11.745301445375233,-25.0
11.747905725074872,-27.0
11.750510004774512,-111.0
11.753114284474153,-101.0
11.755718564173792,6.0
11.758322843873431,-2.0
11.760927123573072,20.0
11.763531403272712,48.0
11.766135682972351,69.0
11.76873996267199,-26.0
11.771344242371631,-97.0
11.77394852207127,-12.0
11.77655280177091,20.0
11.779157081470549,-29.0
11.78176136117019,-91.0
11.78436564086983,-35.0
11.786969920569469,-37.0
11.789574200269108,145.0
11.792178479968749,125.0
11.794782759668388,41.0
11.797387039368028,34.0
11.799991319067667,32.0
11.802595598767308,-13.0
11.805199878466947,-48.0
11.807804158166586,-33.0
11.810408437866226,-30.0
11.813012717565867,-15.0
11.815616997265506,-13.0
11.818221276965145,4.0
11.820825556664786,-45.0
11.823429836364426,-9.0
11.826034116064065,37.0
11.828638395763704,78.0
11.831242675463345,81.0
11.833846955162985,29.0
11.836451234862624,-31.0
11.839055514562263,-164.0
11.841659794261904,-123.0
11.844264073961543,41.0
11.846868353661183,31.0
11.849472633360822,36.0
11.852076913060463,49.0
11.854681192760102,62.0
11.857285472459742,35.0
11.859889752159381,-3.0
11.862494031859022,-65.0
11.865098311558661,-79.0
11.8677025912583,-14.0
11.87030687095794,45.0
11.87291115065758,63.0
11.87551543035722,-58.0
11.87811971005686,-78.0
11.8807239897565,-85.0
11.88332826945614,46.0
11.885932549155779,139.0
11.888536828855418,39.0
11.89114110855506,22.0
11.893745388254699,44.0
11.896349667954338,25.0
11.898953947653977,1.0
11.901558227353618,-36.0
11.904162507053258,-52.0
11.906766786752897,-126.0
11.909371066452536,-94.0
11.911975346152177,64.0
11.914579625851816,45.0
11.917183905551456,-81.0
11.919788185251095,-25.0
11.922392464950736,78.0
11.924996744650375,49.0
11.927601024350015,100.0
11.930205304049654,148.0
11.932809583749295,8.0
11.935413863448934,-199.0
11.938018143148573,-111.0
11.940622422848215,34.0
11.943226702547854,-24.0
11.945830982247493,93.0
11.948435261947132,197.0
11.951039541646773,80.0
11.953643821346413,-69.0
11.956248101046052,-85.0
11.958852380745691,-136.0
11.961456660445332,-107.0
11.964060940144972,-3.0
11.96666521984461,-71.0
11.96926949954425,-20.0
11.971873779243891,154.0
11.97447805894353,63.0
11.97708233864317,12.0
11.979686618342809,-96.0
11.98229089804245,-57.0
11.98489517774209,5.0
11.987499457441729,105.0
11.990103737141368,136.0
11.992708016841009,116.0
11.995312296540648,47.0
11.997916576240288,-149.0
12.000520855939929,-221.0
12.003125135639568,27.0
12.005729415339207,84.0
12.008333695038846,-1.0
12.010937974738487,-138.0
12.013542254438127,32.0
12.016146534137766,126.0
12.018750813837405,12.0
12.021355093537046,-31.0
12.023959373236686,5.0
12.026563652936325,27.0
12.029167932635964,4.0
12.031772212335605,-52.0
12.034376492035245,-67.0
12.036980771734884,-28.0
12.039585051434523,32.0
12.042189331134164,-4.0
12.044793610833803,-42.0
12.047397890533443,-8.0
12.050002170233082,62.0
12.052606449932723,24.0
12.055210729632362,105.0
12.057815009332002,80.0
12.06041928903164,-88.0
12.063023568731282,-204.0
12.065627848430921,-110.0
12.06823212813056,-25.0
12.070836407830202,128.0
12.07344068752984,137.0
12.07604496722948,168.0
12.07864924692912,33.0
12.08125352662876,8.0
12.0838578063284,-140.0
12.086462086028039,-215.0
12.089066365727678,-124.0
12.09167064542732,-62.0
12.094274925126959,118.0
12.096879204826598,117.0
12.099483484526237,253.0
12.102087764225878,136.0
12.104692043925517,-125.0
12.107296323625157,-248.0
12.109900603324796,-191.0
12.112504883024437,-32.0
12.115109162724076,-20.0
12.117713442423716,130.0
12.120317722123355,206.0
12.122922001822996,85.0
12.125526281522635,101.0
12.128130561222275,121.0
12.130734840921916,8.0
12.133339120621555,-141.0
12.135943400321194,-64.0
12.138547680020833,-166.0
12.141151959720474,-253.0
12.143756239420114,-187.0
12.146360519119753,85.0
12.148964798819392,245.0
12.151569078519033,142.0
12.154173358218673,31.0
12.156777637918312,70.0
12.159381917617951,-79.0
12.161986197317592,-10.0
12.164590477017232,109.0
12.16719475671687,-103.0
12.16979903641651,-288.0
12.172403316116151,-122.0
12.17500759581579,161.0
12.17761187551543,135.0
12.180216155215069,128.0
12.18282043491471,100.0
12.18542471461435,-23.0
12.188028994313989,69.0
12.19063327401363,7.0
12.193237553713269,-62.0
12.195841833412908,-15.0
12.198446113112547,-231.0
12.201050392812189,-143.0
12.203654672511828,34.0
12.206258952211467,72.0
12.208863231911106,-7.0
12.211467511610747,24.0
12.214071791310387,129.0
12.216676071010026,-98.0
12.219280350709665,-124.0
12.221884630409306,-59.0
12.224488910108946,64.0
12.227093189808585,278.0
12.229697469508224,61.0
12.232301749207865,-30.0
12.234906028907504,-67.0
12.237510308607144,-275.0
12.240114588306783,-226.0
12.242718868006424,264.0
12.245323147706063,319.0
12.247927427405703,-43.0
12.250531707105344,-155.0
12.253135986804983,110.0
12.255740266504622,70.0
12.258344546204262,-50.0
12.260948825903903,-143.0
12.263553105603542,48.0
12.266157385303181,178.0
12.26876166500282,170.0
12.271365944702461,-239.0
12.2739702244021,-28.0
12.27657450410174,64.0
12.27917878380138,75.0
12.28178306350102,-87.0
12.28438734320066,-112.0
12.286991622900299,5.0
12.289595902599938,-11.0
12.29220018229958,-12.0
12.294804461999219,-19.0
12.297408741698858,-2.0
12.300013021398497,-15.0
12.302617301098138,39.0
12.305221580797777,-12.0
12.307825860497417,143.0
12.310430140197058,17.0
12.313034419896697,-117.0
12.315638699596336,-113.0
12.318242979295976,53.0
12.320847258995617,-7.0
12.323451538695256,-151.0
12.326055818394895,22.0
12.328660098094534,186.0
12.331264377794176,141.0
12.333868657493815,118.0
12.336472937193454,-48.0
12.339077216893093,-159.0
12.341681496592734,-79.0
12.344285776292374,51.0
12.346890055992013,25.0
12.349494335691652,-19.0
12.352098615391293,8.0
12.354702895090933,-83.0
12.357307174790572,6.0
12.359911454490211,-37.0
12.362515734189852,-132.0
12.365120013889491,-37.0
12.36772429358913,102.0
12.370328573288772,174.0
12.372932852988411,286.0
12.37553713268805,-6.0
12.37814141238769,-319.0
12.38074569208733,-98.0
12.38334997178697,35.0
12.38595425148661,102.0
12.388558531186249,23.0
12.39116281088589,-139.0
12.393767090585529,-178.0
12.396371370285168,-61.0
12.398975649984807,72.0
12.401579929684448,156.0
12.404184209384088,45.0
12.406788489083727,-81.0
12.409392768783366,9.0
12.411997048483007,118.0
12.414601328182647,35.0
12.417205607882286,-26.0
12.419809887581925,-41.0
12.422414167281566,-1.0
12.425018446981205,200.0
12.427622726680845,221.0
12.430227006380486,-55.0
12.432831286080125,-274.0
12.435435565779764,-124.0
12.438039845479404,61.0
12.440644125179045,-56.0
12.443248404878684,52.0
12.445852684578323,107.0
12.448456964277963,156.0
12.451061243977604,-123.0
12.453665523677243,-33.0
12.456269803376882,-16.0
12.458874083076521,20.0
12.461478362776162,-75.0
12.464082642475802,-85.0
12.466686922175441,31.0
12.46929120187508,67.0
12.471895481574721,-194.0
12.47449976127436,-183.0
12.477104040974,68.0
12.47970832067364,168.0
12.48231260037328,230.0
12.48491688007292,173.0
12.487521159772559,-25.0
12.4901254394722,-104.0
12.49272971917184,-53.0
12.495333998871478,-31.0
12.497938278571118,-11.0
12.500542558270759,-131.0
12.503146837970398,-178.0
12.505751117670037,4.0
12.508355397369677,-63.0
12.510959677069318,-12.0
12.513563956768957,-20.0
12.516168236468596,32.0
12.518772516168235,339.0
12.521376795867877,215.0
12.523981075567516,0.0
12.526585355267155,-39.0
12.529189634966794,-108.0
12.531793914666435,-170.0
12.534398194366075,-95.0
12.537002474065714,-47.0
12.539606753765353,52.0
12.542211033464994,113.0
12.544815313164634,-6.0
12.547419592864273,-39.0
12.550023872563914,18.0
12.552628152263553,72.0
12.555232431963192,91.0
12.557836711662832,-73.0
12.560440991362473,-130.0
12.563045271062112,-159.0
12.565649550761751,-94.0
12.56825383046139,57.0
12.570858110161032,254.0
12.573462389860671,162.0
12.57606666956031,67.0
12.57867094925995,54.0
12.58127522895959,-40.0
12.58387950865923,-108.0
12.58648378835887,-139.0
12.589088068058508,-142.0
12.59169234775815,-18.0
12.594296627457789,88.0
12.596900907157428,87.0
12.599505186857067,-18.0
12.602109466556708,-117.0
12.604713746256348,58.0
12.607318025955987,184.0
12.609922305655628,62.0
12.612526585355267,-24.0
12.615130865054907,-169.0
12.617735144754546,-127.0
12.620339424454187,17.0
12.622943704153826,26.0
12.625547983853465,26.0
12.628152263553105,-113.0
12.630756543252746,-21.0
12.633360822952385,39.0
12.635965102652024,129.0
12.638569382351664,130.0
12.641173662051305,114.0
12.643777941750944,-85.0
12.646382221450583,-108.0
12.648986501150222,-141.0
12.651590780849864,-31.0
12.654195060549503,-94.0
12.656799340249142,-111.0
12.659403619948781,108.0
12.662007899648422,125.0
12.664612179348062,230.0
12.667216459047701,246.0
12.669820738747342,-146.0
12.672425018446981,-251.0
12.67502929814662,-136.0
12.67763357784626,115.0
12.680237857545901,182.0
12.68284213724554,-99.0
12.68544641694518,-176.0
12.688050696644819,18.0
12.69065497634446,109.0
12.693259256044099,41.0
12.695863535743738,-87.0
12.698467815443378,51.0
12.701072095143019,198.0
12.703676374842658,44.0
12.706280654542297,-90.0
12.708884934241937,-110.0
12.711489213941578,-104.0
12.714093493641217,77.0
12.716697773340856,65.0
12.719302053040495,-32.0
12.721906332740136,-4.0
12.724510612439776,-52.0
12.727114892139415,-108.0
12.729719171839056,-123.0
12.732323451538695,-42.0
12.734927731238335,77.0
12.737532010937974,178.0
12.740136290637615,179.0
12.742740570337254,99.0
12.745344850036894,-49.0
12.747949129736533,-5.0
12.750553409436174,-55.0
12.753157689135813,-108.0
12.755761968835452,-117.0
12.758366248535092,-3.0
12.760970528234733,64.0
12.763574807934372,17.0
12.766179087634011,72.0
12.76878336733365,93.0
12.771387647033292,-19.0
12.773991926732931,-63.0
12.77659620643257,-116.0
12.77920048613221,-66.0
12.78180476583185,158.0
12.78440904553149,27.0
12.787013325231129,-24.0
12.78961760493077,-169.0
12.79222188463041,-156.0
12.794826164330049,84.0
12.797430444029688,137.0
12.800034723729329,39.0
12.802639003428968,12.0
12.805243283128608,33.0
12.807847562828247,-1.0
12.810451842527888,-47.0
12.813056122227527,-23.0
12.815660401927166,-37.0
12.818264681626806,-23.0
12.820868961326447,126.0
12.823473241026086,61.0
12.826077520725725,-35.0
12.828681800425365,-42.0
12.831286080125006,-44.0
12.833890359824645,-36.0
12.836494639524284,-35.0
12.839098919223924,52.0
12.841703198923565,40.0
12.844307478623204,46.0
12.846911758322843,56.0
12.849516038022484,-103.0
12.852120317722123,-99.0
12.854724597421763,91.0
12.857328877121402,171.0
12.859933156821043,-39.0
12.862537436520682,-66.0
12.865141716220322,-23.0
12.867745995919961,1.0
12.870350275619602,54.0
12.872954555319241,99.0
12.87555883501888,24.0
12.87816311471852,-143.0
12.88076739441816,-39.0
12.8833716741178,-70.0
12.88597595381744,-44.0
12.888580233517079,5.0
12.89118451321672,86.0
12.893788792916359,100.0
12.896393072615998,15.0
12.898997352315638,46.0
12.901601632015279,-88.0
12.904205911714918,-181.0
12.906810191414557,-91.0
12.909414471114196,113.0
12.912018750813838,78.0
12.914623030513477,-20.0
12.917227310213116,-1.0
12.919831589912757,31.0
12.922435869612396,19.0
12.925040149312036,-60.0
12.927644429011675,-18.0
12.930248708711316,17.0
12.932852988410955,-69.0
12.935457268110595,-20.0
12.938061547810234,-16.0
12.940665827509875,-27.0
12.943270107209514,-98.0
12.945874386909153,172.0
12.948478666608793,220.0
12.951082946308434,44.0
12.953687226008073,44.0
12.956291505707712,-31.0
12.958895785407352,-115.0
12.961500065106993,-75.0
12.964104344806632,3.0
12.966708624506271,98.0
12.96931290420591,51.0
12.971917183905552,-26.0
12.97452146360519,-108.0
12.97712574330483,-55.0
12.979730023004471,55.0
12.98233430270411,45.0
12.98493858240375,-38.0
12.987542862103389,-24.0
12.99014714180303,16.0
12.99275142150267,-16.0
12.995355701202309,15.0
12.997959980901948,-45.0
13.000564260601589,-45.0
13.003168540301228,-11.0
13.005772820000868,25.0
13.008377099700507,33.0
13.010981379400148,53.0
13.013585659099787,50.0
13.016189938799426,-6.0
13.018794218499066,-107.0
13.021398498198707,-92.0
13.024002777898346,-70.0
13.026607057597985,108.0
13.029211337297625,103.0
13.031815616997266,80.0
13.034419896696905,23.0
13.037024176396544,2.0
13.039628456096185,16.0
13.042232735795825,-8.0
13.044837015495464,-43.0
13.047441295195103,-34.0
13.050045574894744,40.0
13.052649854594383,58.0
13.055254134294023,32.0
13.057858413993662,-61.0
13.060462693693303,-148.0
13.063066973392942,-155.0
13.065671253092582,-198.0
13.06827553279222,269.0
13.070879812491862,303.0
13.073484092191501,30.0
13.07608837189114,-20.0
13.07869265159078,12.0
13.08129693129042,-47.0
13.08390121099006,-89.0
13.0865054906897,-111.0
13.089109770389339,-90.0
13.09171405008898,-27.0
13.094318329788619,72.0
13.096922609488258,5.0
13.0995268891879,-40.0
13.102131168887539,61.0
13.104735448587178,59.0
13.107339728286817,-21.0
13.109944007986458,-3.0
13.112548287686097,14.0
13.115152567385737,-10.0
13.117756847085376,37.0
13.120361126785017,76.0
13.122965406484656,97.0
13.125569686184296,-10.0
13.128173965883935,-87.0
13.130778245583576,-41.0
13.133382525283215,61.0
13.135986804982855,80.0
13.138591084682494,-27.0
13.141195364382135,-102.0
13.143799644081774,-18.0
13.146403923781413,-5.0
13.149008203481053,-28.0
13.151612483180694,38.0
13.154216762880333,-1.0
13.156821042579972,-75.0
13.159425322279613,-41.0
13.162029601979253,40.0
13.164633881678892,68.0
13.167238161378531,-6.0
13.169842441078172,-51.0
13.172446720777812,-42.0
13.17505100047745,47.0
13.17765528017709,24.0
13.180259559876731,-15.0
13.18286383957637,-37.0
13.18546811927601,-35.0
13.188072398975649,75.0
13.19067667867529,49.0
13.19328095837493,34.0
13.195885238074569,-27.0
13.198489517774208,-61.0
13.201093797473849,-79.0
13.203698077173488,41.0
13.206302356873127,12.0
13.208906636572767,34.0
13.211510916272408,3.0
13.214115195972047,-54.0
13.216719475671686,28.0
13.219323755371327,96.0
13.221928035070967,56.0
13.224532314770606,9.0
13.227136594470245,-17.0
13.229740874169886,-30.0
13.232345153869526,-19.0
13.234949433569165,29.0
13.237553713268804,-20.0
13.240157992968445,-64.0
13.242762272668084,-30.0
13.245366552367724,12.0
13.247970832067363,71.0
13.250575111767004,15.0
13.253179391466643,14.0
13.255783671166283,-60.0
13.258387950865922,-66.0
13.260992230565563,-34.0
13.263596510265202,17.0
13.266200789964842,22.0
13.26880506966448,-83.0
13.271409349364122,-10.0
13.274013629063761,122.0
13.2766179087634,36.0
13.279222188463041,-44.0
13.28182646816268,8.0
13.28443074786232,-11.0
13.28703502756196,36.0
13.2896393072616,150.0
13.29224358696124,70.0
13.294847866660879,-28.0
13.297452146360518,-24.0
13.30005642606016,-52.0
13.302660705759799,-57.0
13.305264985459438,-44.0
13.307869265159077,-32.0
13.310473544858718,-23.0
13.313077824558357,-18.0
13.315682104257997,5.0
13.318286383957636,4.0
13.320890663657277,-35.0
13.323494943356916,-69.0
13.326099223056556,5.0
13.328703502756195,110.0
13.331307782455836,69.0
13.333912062155475,9.0
13.336516341855114,-24.0
13.339120621554756,-11.0
13.341724901254395,-42.0
13.344329180954034,29.0
