Time,EMG
0.0,7.110266222961741
0.0009983527180152747,5.110266222961741
0.0019967054360305494,4.110266222961741
0.002995058154045824,6.110266222961741
0.003993410872061099,-0.8897337770382592
0.004991763590076374,-0.8897337770382592
0.005990116308091648,-1.8897337770382592
0.006988469026106923,-1.8897337770382592
0.007986821744122198,-4.889733777038259
0.008985174462137473,-10.88973377703826
0.009983527180152748,-7.889733777038259
0.010981879898168023,-7.889733777038259
0.011980232616183296,-6.889733777038259
0.01297858533419857,-3.889733777038259
0.013976938052213846,-1.8897337770382592
0.01497529077022912,1.1102662229617408
0.015973643488244395,3.110266222961741
0.01697199620625967,2.110266222961741
0.017970348924274945,6.110266222961741
0.01896870164229022,8.11026622296174
0.019967054360305495,6.110266222961741
0.02096540707832077,6.110266222961741
0.021963759796336045,5.110266222961741
0.02296211251435132,6.110266222961741
0.02396046523236659,-0.8897337770382592
0.024958817950381868,-2.889733777038259
0.02595717066839714,-1.8897337770382592
0.026955523386412418,-4.889733777038259
0.02795387610442769,-4.889733777038259
0.028952228822442968,-12.88973377703826
0.02995058154045824,-6.889733777038259
0.030948934258473518,-6.889733777038259
0.03194728697648879,-6.889733777038259
0.032945639694504064,-1.8897337770382592
0.03394399241251934,-1.8897337770382592
0.03494234513053462,5.110266222961741
0.03594069784854989,0.11026622296174082
0.036939050566565164,3.110266222961741
0.03793740328458044,8.11026622296174
0.03893575600259572,5.110266222961741
0.03993410872061099,7.110266222961741
0.040932461438626264,5.110266222961741
0.04193081415664154,6.110266222961741
0.04292916687465681,6.110266222961741
0.04392751959267209,3.110266222961741
0.04492587231068736,-2.889733777038259
0.04592422502870264,-1.8897337770382592
0.04692257774671791,-2.889733777038259
0.04792093046473318,-4.889733777038259
0.04891928318274846,-9.88973377703826
0.049917635900763736,-4.889733777038259
0.05091598861877901,-7.889733777038259
0.05191434133679428,-4.889733777038259
0.05291269405480956,-2.889733777038259
0.053911046772824836,-1.8897337770382592
0.05490939949084011,1.1102662229617408
0.05590775220885538,2.110266222961741
0.056906104926870656,4.110266222961741
0.057904457644885936,6.110266222961741
0.05890281036290121,8.11026622296174
0.05990116308091648,8.11026622296174
0.060899515798931755,3.110266222961741
0.061897868516947036,6.110266222961741
0.0628962212349623,4.110266222961741
0.06389457395297758,-1.8897337770382592
0.06489292667099286,2.110266222961741
0.06589127938900813,-2.889733777038259
0.06688963210702341,-1.8897337770382592
0.06788798482503867,-5.889733777038259
0.06888633754305395,-10.88973377703826
0.06988469026106923,-7.889733777038259
0.0708830429790845,-6.889733777038259
0.07188139569709978,-5.889733777038259
0.07287974841511505,-1.8897337770382592
0.07387810113313033,-2.889733777038259
0.07487645385114561,4.110266222961741
0.07587480656916087,2.110266222961741
0.07687315928717615,2.110266222961741
0.07787151200519143,8.11026622296174
0.0788698647232067,6.110266222961741
0.07986821744122198,7.110266222961741
0.08086657015923725,6.110266222961741
0.08186492287725253,4.110266222961741
0.08286327559526781,5.110266222961741
0.08386162831328307,-2.889733777038259
0.08485998103129835,1.1102662229617408
0.08585833374931362,-0.8897337770382592
0.0868566864673289,0.11026622296174082
0.08785503918534418,-4.889733777038259
0.08885339190335945,-11.88973377703826
0.08985174462137473,-5.889733777038259
0.09085009733938999,-6.889733777038259
0.09184845005740527,-6.889733777038259
0.09284680277542055,-3.889733777038259
0.09384515549343582,-1.8897337770382592
0.0948435082114511,4.110266222961741
0.09584186092946637,2.110266222961741
0.09684021364748165,2.110266222961741
0.09783856636549693,7.110266222961741
0.09883691908351219,7.110266222961741
0.09983527180152747,7.110266222961741
0.10083362451954275,5.110266222961741
0.10183197723755802,5.110266222961741
0.1028303299555733,5.110266222961741
0.10382868267358857,-0.8897337770382592
0.10482703539160385,1.1102662229617408
0.10582538810961913,2.110266222961741
0.10682374082763439,-3.889733777038259
0.10782209354564967,-5.889733777038259
0.10882044626366494,-9.88973377703826
0.10981879898168022,-5.889733777038259
0.1108171516996955,-7.889733777038259
0.11181550441771076,-5.889733777038259
0.11281385713572605,-1.8897337770382592
0.11381220985374131,-3.889733777038259
0.11481056257175659,3.110266222961741
0.11580891528977187,4.110266222961741
0.11680726800778714,3.110266222961741
0.11780562072580242,6.110266222961741
0.1188039734438177,8.11026622296174
0.11980232616183296,6.110266222961741
0.12080067887984824,3.110266222961741
0.12179903159786351,4.110266222961741
0.12279738431587879,6.110266222961741
0.12379573703389407,1.1102662229617408
0.12479408975190934,0.11026622296174082
0.1257924424699246,-0.8897337770382592
0.1267907951879399,-1.8897337770382592
0.12778914790595516,-2.889733777038259
0.12878750062397043,-11.88973377703826
0.12978585334198572,-7.889733777038259
0.130784206060001,-6.889733777038259
0.13178255877801626,-7.889733777038259
0.13278091149603155,-1.8897337770382592
0.13377926421404682,-1.8897337770382592
0.13477761693206208,0.11026622296174082
0.13577596965007735,2.110266222961741
0.13677432236809264,3.110266222961741
0.1377726750861079,8.11026622296174
0.13877102780412318,5.110266222961741
0.13976938052213847,7.110266222961741
0.14076773324015374,6.110266222961741
0.141766085958169,4.110266222961741
0.1427644386761843,5.110266222961741
0.14376279139419956,-0.8897337770382592
0.14476114411221483,-0.8897337770382592
0.1457594968302301,-0.8897337770382592
0.1467578495482454,-4.889733777038259
0.14775620226626066,-3.889733777038259
0.14875455498427592,-12.88973377703826
0.14975290770229122,-5.889733777038259
0.15075126042030648,-7.889733777038259
0.15174961313832175,-3.889733777038259
0.15274796585633704,-1.8897337770382592
0.1537463185743523,0.11026622296174082
0.15474467129236757,1.1102662229617408
0.15574302401038287,4.110266222961741
0.15674137672839814,3.110266222961741
0.1577397294464134,6.110266222961741
0.15873808216442867,9.11026622296174
0.15973643488244396,7.110266222961741
0.16073478760045923,2.110266222961741
0.1617331403184745,4.110266222961741
0.1627314930364898,4.110266222961741
0.16372984575450505,3.110266222961741
0.16472819847252032,-1.8897337770382592
0.16572655119053561,-2.889733777038259
0.16672490390855088,-2.889733777038259
0.16772325662656615,-6.889733777038259
0.1687216093445814,-12.88973377703826
0.1697199620625967,-5.889733777038259
0.17071831478061197,-7.889733777038259
0.17171666749862724,-3.889733777038259
0.17271502021664253,-1.8897337770382592
0.1737133729346578,-2.889733777038259
0.17471172565267307,4.110266222961741
0.17571007837068836,4.110266222961741
0.17670843108870363,3.110266222961741
0.1777067838067189,7.110266222961741
0.1787051365247342,7.110266222961741
0.17970348924274945,7.110266222961741
0.18070184196076472,5.110266222961741
0.18170019467877999,4.110266222961741
0.18269854739679528,6.110266222961741
0.18369690011481055,-0.8897337770382592
0.1846952528328258,1.1102662229617408
0.1856936055508411,-2.889733777038259
0.18669195826885637,-2.889733777038259
0.18769031098687164,-3.889733777038259
0.18868866370488693,-11.88973377703826
0.1896870164229022,-5.889733777038259
0.19068536914091747,-7.889733777038259
0.19168372185893273,-6.889733777038259
0.19268207457694803,-2.889733777038259
0.1936804272949633,-0.8897337770382592
0.19467878001297856,3.110266222961741
0.19567713273099385,2.110266222961741
0.19667548544900912,2.110266222961741
0.19767383816702438,7.110266222961741
0.19867219088503968,7.110266222961741
0.19967054360305495,8.11026622296174
0.2006688963210702,6.110266222961741
0.2016672490390855,3.110266222961741
0.20266560175710077,4.110266222961741
0.20366395447511604,1.1102662229617408
0.2046623071931313,-0.8897337770382592
0.2056606599111466,0.11026622296174082
0.20665901262916186,-2.889733777038259
0.20765736534717713,-3.889733777038259
0.20865571806519242,-9.88973377703826
0.2096540707832077,-4.889733777038259
0.21065242350122296,-6.889733777038259
0.21165077621923825,-4.889733777038259
0.21264912893725352,-3.889733777038259
0.21364748165526878,0.11026622296174082
0.21464583437328408,1.1102662229617408
0.21564418709129934,2.110266222961741
0.2166425398093146,3.110266222961741
0.21764089252732988,6.110266222961741
0.21863924524534517,5.110266222961741
0.21963759796336044,7.110266222961741
0.2206359506813757,7.110266222961741
0.221634303399391,4.110266222961741
0.22263265611740626,6.110266222961741
0.22363100883542153,-0.8897337770382592
0.22462936155343682,-2.889733777038259
0.2256277142714521,-2.889733777038259
0.22662606698946736,-2.889733777038259
0.22762441970748262,-3.889733777038259
0.22862277242549792,-9.88973377703826
0.22962112514351318,-6.889733777038259
0.23061947786152845,-6.889733777038259
0.23161783057954374,-6.889733777038259
0.232616183297559,-2.889733777038259
0.23361453601557428,-2.889733777038259
0.23461288873358957,6.110266222961741
0.23561124145160484,2.110266222961741
0.2366095941696201,4.110266222961741
0.2376079468876354,9.11026622296174
0.23860629960565066,6.110266222961741
0.23960465232366593,7.110266222961741
0.2406030050416812,6.110266222961741
0.2416013577596965,7.110266222961741
0.24259971047771176,3.110266222961741
0.24359806319572702,-1.8897337770382592
0.24459641591374232,1.1102662229617408
0.24559476863175758,1.1102662229617408
0.24659312134977285,-2.889733777038259
0.24759147406778814,-6.889733777038259
0.2485898267858034,-10.88973377703826
0.24958817950381867,-5.889733777038259
0.25058653222183397,-6.889733777038259
0.2515848849398492,-7.889733777038259
0.2525832376578645,-2.889733777038259
0.2535815903758798,-3.889733777038259
0.25457994309389503,4.110266222961741
0.2555782958119103,4.110266222961741
0.2565766485299256,3.110266222961741
0.25757500124794086,9.11026622296174
0.25857335396595615,7.110266222961741
0.25957170668397145,9.11026622296174
0.2605700594019867,5.110266222961741
0.261568412120002,5.110266222961741
0.2625667648380173,2.110266222961741
0.2635651175560325,-0.8897337770382592
0.2645634702740478,1.1102662229617408
0.2655618229920631,-0.8897337770382592
0.26656017571007834,-2.889733777038259
0.26755852842809363,-3.889733777038259
0.2685568811461089,-10.88973377703826
0.26955523386412417,-10.88973377703826
0.27055358658213946,-7.889733777038259
0.2715519393001547,-6.889733777038259
0.27255029201817,0.11026622296174082
0.2735486447361853,-2.889733777038259
0.2745469974542005,4.110266222961741
0.2755453501722158,3.110266222961741
0.2765437028902311,2.110266222961741
0.27754205560824635,9.11026622296174
0.27854040832626165,7.110266222961741
0.27953876104427694,7.110266222961741
0.2805371137622922,7.110266222961741
0.2815354664803075,4.110266222961741
0.28253381919832277,6.110266222961741
0.283532171916338,-1.8897337770382592
0.2845305246343533,-2.889733777038259
0.2855288773523686,1.1102662229617408
0.28652723007038383,-2.889733777038259
0.2875255827883991,-2.889733777038259
0.2885239355064144,-10.88973377703826
0.28952228822442966,-7.889733777038259
0.29052064094244495,-6.889733777038259
0.2915189936604602,-6.889733777038259
0.2925173463784755,-1.8897337770382592
0.2935156990964908,-0.8897337770382592
0.294514051814506,3.110266222961741
0.2955124045325213,2.110266222961741
0.2965107572505366,2.110266222961741
0.29750910996855184,8.11026622296174
0.29850746268656714,10.11026622296174
0.29950581540458243,6.110266222961741
0.30050416812259767,3.110266222961741
0.30150252084061296,5.110266222961741
0.30250087355862826,2.110266222961741
0.3034992262766435,1.1102662229617408
0.3044975789946588,1.1102662229617408
0.3054959317126741,-1.8897337770382592
0.3064942844306893,-3.889733777038259
0.3074926371487046,-4.889733777038259
0.3084909898667199,-8.88973377703826
0.30948934258473515,-3.889733777038259
0.31048769530275044,-7.889733777038259
0.31148604802076574,-5.889733777038259
0.312484400738781,-1.8897337770382592
0.31348275345679627,-2.889733777038259
0.3144811061748115,0.11026622296174082
0.3154794588928268,1.1102662229617408
0.3164778116108421,5.110266222961741
0.31747616432885734,7.110266222961741
0.31847451704687263,7.110266222961741
0.3194728697648879,5.110266222961741
0.32047122248290316,4.110266222961741
0.32146957520091846,4.110266222961741
0.32246792791893375,6.110266222961741
0.323466280636949,0.11026622296174082
0.3244646333549643,-0.8897337770382592
0.3254629860729796,-1.8897337770382592
0.3264613387909948,-3.889733777038259
0.3274596915090101,-4.889733777038259
0.3284580442270254,-10.88973377703826
0.32945639694504064,-7.889733777038259
0.33045474966305594,-7.889733777038259
0.33145310238107123,-3.889733777038259
0.33245145509908647,-2.889733777038259
0.33344980781710176,1.1102662229617408
0.33444816053511706,4.110266222961741
0.3354465132531323,0.11026622296174082
0.3364448659711476,3.110266222961741
0.3374432186891628,9.11026622296174
0.3384415714071781,8.11026622296174
0.3394399241251934,8.11026622296174
0.34043827684320865,4.110266222961741
0.34143662956122395,3.110266222961741
0.34243498227923924,5.110266222961741
0.3434333349972545,0.11026622296174082
0.3444316877152698,0.11026622296174082
0.34543004043328507,-2.889733777038259
0.3464283931513003,-2.889733777038259
0.3474267458693156,-5.889733777038259
0.3484250985873309,-10.88973377703826
0.34942345130534613,-6.889733777038259
0.3504218040233614,-5.889733777038259
0.3514201567413767,-6.889733777038259
0.35241850945939196,-1.8897337770382592
0.35341686217740725,-1.8897337770382592
0.35441521489542255,1.1102662229617408
0.3554135676134378,3.110266222961741
0.3564119203314531,3.110266222961741
0.3574102730494684,6.110266222961741
0.3584086257674836,5.110266222961741
0.3594069784854989,9.11026622296174
0.36040533120351415,6.110266222961741
0.36140368392152944,7.110266222961741
0.36240203663954473,5.110266222961741
0.36340038935755997,0.11026622296174082
0.36439874207557527,0.11026622296174082
0.36539709479359056,-2.889733777038259
0.3663954475116058,-3.889733777038259
0.3673938002296211,-3.889733777038259
0.3683921529476364,-10.88973377703826
0.3693905056656516,-7.889733777038259
0.3703888583836669,-8.88973377703826
0.3713872111016822,-6.889733777038259
0.37238556381969745,-1.8897337770382592
0.37338391653771275,0.11026622296174082
0.37438226925572804,2.110266222961741
0.3753806219737433,3.110266222961741
0.37637897469175857,2.110266222961741
0.37737732740977387,9.11026622296174
0.3783756801277891,9.11026622296174
0.3793740328458044,6.110266222961741
0.3803723855638197,4.110266222961741
0.38137073828183493,4.110266222961741
0.3823690909998502,5.110266222961741
0.38336744371786546,-2.889733777038259
0.38436579643588076,-0.8897337770382592
0.38536414915389605,-1.8897337770382592
0.3863625018719113,-2.889733777038259
0.3873608545899266,-4.889733777038259
0.3883592073079419,-7.889733777038259
0.3893575600259571,-5.889733777038259
0.3903559127439724,-6.889733777038259
0.3913542654619877,-4.889733777038259
0.39235261818000294,-2.889733777038259
0.39335097089801824,-2.889733777038259
0.39434932361603353,4.110266222961741
0.39534767633404877,2.110266222961741
0.39634602905206406,0.11026622296174082
0.39734438177007936,6.110266222961741
0.3983427344880946,6.110266222961741
0.3993410872061099,8.11026622296174
0.4003394399241252,8.11026622296174
0.4013377926421404,4.110266222961741
0.4023361453601557,5.110266222961741
0.403334498078171,-0.8897337770382592
0.40433285079618625,-2.889733777038259
0.40533120351420154,-1.8897337770382592
0.40632955623221684,-0.8897337770382592
0.4073279089502321,-2.889733777038259
0.40832626166824737,-8.88973377703826
0.4093246143862626,-7.889733777038259
0.4103229671042779,-7.889733777038259
0.4113213198222932,-5.889733777038259
0.41231967254030844,-2.889733777038259
0.41331802525832373,-2.889733777038259
0.414316377976339,4.110266222961741
0.41531473069435426,2.110266222961741
0.41631308341236956,1.1102662229617408
0.41731143613038485,8.11026622296174
0.4183097888484001,8.11026622296174
0.4193081415664154,6.110266222961741
0.4203064942844307,4.110266222961741
0.4213048470024459,4.110266222961741
0.4223031997204612,5.110266222961741
0.4233015524384765,-0.8897337770382592
0.42429990515649174,1.1102662229617408
0.42529825787450704,1.1102662229617408
0.42629661059252233,0.11026622296174082
0.42729496331053757,-4.889733777038259
0.42829331602855286,-11.88973377703826
0.42929166874656816,-8.88973377703826
0.4302900214645834,-6.889733777038259
0.4312883741825987,-5.889733777038259
0.4322867269006139,-2.889733777038259
0.4332850796186292,-2.889733777038259
0.4342834323366445,1.1102662229617408
0.43528178505465975,2.110266222961741
0.43628013777267505,5.110266222961741
0.43727849049069034,9.11026622296174
0.4382768432087056,8.11026622296174
0.4392751959267209,6.110266222961741
0.44027354864473617,6.110266222961741
0.4412719013627514,4.110266222961741
0.4422702540807667,5.110266222961741
0.443268606798782,2.110266222961741
0.44426695951679723,0.11026622296174082
0.4452653122348125,-2.889733777038259
0.4462636649528278,-2.889733777038259
0.44726201767084306,-5.889733777038259
0.44826037038885835,-7.889733777038259
0.44925872310687365,-7.889733777038259
0.4502570758248889,-8.88973377703826
0.4512554285429042,-2.889733777038259
0.4522537812609195,-0.8897337770382592
0.4532521339789347,-1.8897337770382592
0.45425048669695,4.110266222961741
0.45524883941496525,1.1102662229617408
0.45624719213298054,2.110266222961741
0.45724554485099583,7.110266222961741
0.45824389756901107,5.110266222961741
0.45924225028702637,5.110266222961741
0.46024060300504166,4.110266222961741
0.4612389557230569,6.110266222961741
0.4622373084410722,6.110266222961741
0.4632356611590875,0.11026622296174082
0.4642340138771027,-1.8897337770382592
0.465232366595118,-1.8897337770382592
0.4662307193131333,-2.889733777038259
0.46722907203114855,-5.889733777038259
0.46822742474916385,-10.88973377703826
0.46922577746717914,-6.889733777038259
0.4702241301851944,-8.88973377703826
0.47122248290320967,-4.889733777038259
0.47222083562122497,-1.8897337770382592
0.4732191883392402,-1.8897337770382592
0.4742175410572555,2.110266222961741
0.4752158937752708,2.110266222961741
0.47621424649328603,4.110266222961741
0.4772125992113013,6.110266222961741
0.47821095192931656,6.110266222961741
0.47920930464733186,6.110266222961741
0.48020765736534715,4.110266222961741
0.4812060100833624,5.110266222961741
0.4822043628013777,6.110266222961741
0.483202715519393,3.110266222961741
0.4842010682374082,2.110266222961741
0.4851994209554235,-2.889733777038259
0.4861977736734388,-2.889733777038259
0.48719612639145404,-3.889733777038259
0.48819447910946934,-11.88973377703826
0.48919283182748463,-6.889733777038259
0.49019118454549987,-6.889733777038259
0.49118953726351516,-4.889733777038259
0.49218788998153046,-4.889733777038259
0.4931862426995457,-2.889733777038259
0.494184595417561,2.110266222961741
0.4951829481355763,4.110266222961741
0.4961813008535915,4.110266222961741
0.4971796535716068,9.11026622296174
0.4981780062896221,8.11026622296174
0.49917635900763735,8.11026622296174
0.5001747117256526,4.110266222961741
0.5011730644436679,4.110266222961741
0.5021714171616832,4.110266222961741
0.5031697698796984,0.11026622296174082
0.5041681225977137,-1.8897337770382592
0.505166475315729,-1.8897337770382592
0.5061648280337443,0.11026622296174082
0.5071631807517596,-3.889733777038259
0.5081615334697749,-12.88973377703826
0.5091598861877901,-7.889733777038259
0.5101582389058054,-8.88973377703826
0.5111565916238207,-6.889733777038259
0.512154944341836,0.11026622296174082
0.5131532970598512,0.11026622296174082
0.5141516497778664,3.110266222961741
0.5151500024958817,2.110266222961741
0.516148355213897,2.110266222961741
0.5171467079319123,7.110266222961741
0.5181450606499276,6.110266222961741
0.5191434133679429,8.11026622296174
0.5201417660859581,6.110266222961741
0.5211401188039734,3.110266222961741
0.5221384715219887,6.110266222961741
0.523136824240004,-0.8897337770382592
0.5241351769580193,0.11026622296174082
0.5251335296760345,-0.8897337770382592
0.5261318823940497,-4.889733777038259
0.527130235112065,-2.889733777038259
0.5281285878300803,-10.88973377703826
0.5291269405480956,-5.889733777038259
0.5301252932661109,-7.889733777038259
0.5311236459841262,-5.889733777038259
0.5321219987021414,-1.8897337770382592
0.5331203514201567,-0.8897337770382592
0.534118704138172,4.110266222961741
0.5351170568561873,1.1102662229617408
0.5361154095742026,2.110266222961741
0.5371137622922177,9.11026622296174
0.538112115010233,8.11026622296174
0.5391104677282483,7.110266222961741
0.5401088204462636,6.110266222961741
0.5411071731642789,5.110266222961741
0.5421055258822942,3.110266222961741
0.5431038786003094,1.1102662229617408
0.5441022313183247,-3.889733777038259
0.54510058403634,-2.889733777038259
0.5460989367543553,-2.889733777038259
0.5470972894723706,-6.889733777038259
0.5480956421903859,-10.88973377703826
0.549093994908401,-7.889733777038259
0.5500923476264163,-6.889733777038259
0.5510907003444316,-6.889733777038259
0.5520890530624469,-0.8897337770382592
0.5530874057804622,-3.889733777038259
0.5540857584984775,2.110266222961741
0.5550841112164927,3.110266222961741
0.556082463934508,4.110266222961741
0.5570808166525233,8.11026622296174
0.5580791693705386,8.11026622296174
0.5590775220885539,8.11026622296174
0.5600758748065691,6.110266222961741
0.5610742275245844,4.110266222961741
0.5620725802425997,4.110266222961741
0.563070932960615,-2.889733777038259
0.5640692856786302,-1.8897337770382592
0.5650676383966455,1.1102662229617408
0.5660659911146607,-2.889733777038259
0.567064343832676,-5.889733777038259
0.5680626965506913,-8.88973377703826
0.5690610492687066,-7.889733777038259
0.5700594019867219,-7.889733777038259
0.5710577547047372,-7.889733777038259
0.5720561074227524,-2.889733777038259
0.5730544601407677,0.11026622296174082
0.574052812858783,4.110266222961741
0.5750511655767983,3.110266222961741
0.5760495182948135,3.110266222961741
0.5770478710128288,6.110266222961741
0.578046223730844,4.110266222961741
0.5790445764488593,6.110266222961741
0.5800429291668746,6.110266222961741
0.5810412818848899,4.110266222961741
0.5820396346029052,7.110266222961741
0.5830379873209204,0.11026622296174082
0.5840363400389357,3.110266222961741
0.585034692756951,-1.8897337770382592
0.5860330454749663,-3.889733777038259
0.5870313981929816,-6.889733777038259
0.5880297509109969,-10.88973377703826
0.589028103629012,-7.889733777038259
0.5900264563470273,-5.889733777038259
0.5910248090650426,-6.889733777038259
0.5920231617830579,-5.889733777038259
0.5930215145010732,-1.8897337770382592
0.5940198672190885,3.110266222961741
0.5950182199371037,4.110266222961741
0.596016572655119,2.110266222961741
0.5970149253731343,7.110266222961741
0.5980132780911496,10.11026622296174
0.5990116308091649,5.110266222961741
0.6000099835271802,5.110266222961741
0.6010083362451953,4.110266222961741
0.6020066889632106,4.110266222961741
0.6030050416812259,1.1102662229617408
0.6040033943992412,0.11026622296174082
0.6050017471172565,-1.8897337770382592
0.6060000998352717,-2.889733777038259
0.606998452553287,-4.889733777038259
0.6079968052713023,-10.88973377703826
0.6089951579893176,-4.889733777038259
0.6099935107073329,-7.889733777038259
0.6109918634253482,-5.889733777038259
0.6119902161433634,-0.8897337770382592
0.6129885688613786,-3.889733777038259
0.6139869215793939,4.110266222961741
0.6149852742974092,2.110266222961741
0.6159836270154245,4.110266222961741
0.6169819797334398,10.11026622296174
0.617980332451455,5.110266222961741
0.6189786851694703,8.11026622296174
0.6199770378874856,3.110266222961741
0.6209753906055009,4.110266222961741
0.6219737433235162,4.110266222961741
0.6229720960415315,0.11026622296174082
0.6239704487595467,-0.8897337770382592
0.624968801477562,-1.8897337770382592
0.6259671541955772,-2.889733777038259
0.6269655069135925,-3.889733777038259
0.6279638596316078,-11.88973377703826
0.628962212349623,-10.88973377703826
0.6299605650676383,-7.889733777038259
0.6309589177856536,-6.889733777038259
0.6319572705036689,-2.889733777038259
0.6329556232216842,-1.8897337770382592
0.6339539759396995,4.110266222961741
0.6349523286577147,3.110266222961741
0.63595068137573,3.110266222961741
0.6369490340937453,8.11026622296174
0.6379473868117606,6.110266222961741
0.6389457395297758,10.11026622296174
0.6399440922477911,4.110266222961741
0.6409424449658063,5.110266222961741
0.6419407976838216,5.110266222961741
0.6429391504018369,1.1102662229617408
0.6439375031198522,-1.8897337770382592
0.6449358558378675,-0.8897337770382592
0.6459342085558828,-2.889733777038259
0.646932561273898,-5.889733777038259
0.6479309139919133,-8.88973377703826
0.6489292667099286,-9.88973377703826
0.6499276194279439,-4.889733777038259
0.6509259721459592,-6.889733777038259
0.6519243248639743,-3.889733777038259
0.6529226775819896,-1.8897337770382592
0.6539210303000049,1.1102662229617408
0.6549193830180202,4.110266222961741
0.6559177357360355,3.110266222961741
0.6569160884540508,7.110266222961741
0.657914441172066,8.11026622296174
0.6589127938900813,10.11026622296174
0.6599111466080966,4.110266222961741
0.6609094993261119,4.110266222961741
0.6619078520441272,4.110266222961741
0.6629062047621425,1.1102662229617408
0.6639045574801576,-1.8897337770382592
0.6649029101981729,0.11026622296174082
0.6659012629161882,-2.889733777038259
0.6668996156342035,-6.889733777038259
0.6678979683522188,-9.88973377703826
0.6688963210702341,-7.889733777038259
0.6698946737882493,-7.889733777038259
0.6708930265062646,-6.889733777038259
0.6718913792242799,-1.8897337770382592
0.6728897319422952,-1.8897337770382592
0.6738880846603105,4.110266222961741
0.6748864373783257,1.1102662229617408
0.675884790096341,3.110266222961741
0.6768831428143562,7.110266222961741
0.6778814955323715,10.11026622296174
0.6788798482503868,4.110266222961741
0.6798782009684021,5.110266222961741
0.6808765536864173,5.110266222961741
0.6818749064044326,4.110266222961741
0.6828732591224479,1.1102662229617408
0.6838716118404632,3.110266222961741
0.6848699645584785,2.110266222961741
0.6858683172764938,-4.889733777038259
0.686866669994509,-3.889733777038259
0.6878650227125243,-11.88973377703826
0.6888633754305395,-8.88973377703826
0.6898617281485548,-5.889733777038259
0.6908600808665701,-7.889733777038259
0.6918584335845854,-2.889733777038259
0.6928567863026006,-4.889733777038259
0.6938551390206159,2.110266222961741
0.6948534917386312,2.110266222961741
0.6958518444566465,1.1102662229617408
0.6968501971746618,8.11026622296174
0.697848549892677,7.110266222961741
0.6988469026106923,7.110266222961741
0.6998452553287076,6.110266222961741
0.7008436080467229,4.110266222961741
0.7018419607647381,5.110266222961741
0.7028403134827534,0.11026622296174082
0.7038386662007686,1.1102662229617408
0.7048370189187839,0.11026622296174082
0.7058353716367992,-2.889733777038259
0.7068337243548145,-4.889733777038259
0.7078320770728298,-10.88973377703826
0.7088304297908451,-7.889733777038259
0.7098287825088603,-6.889733777038259
0.7108271352268756,-4.889733777038259
0.7118254879448909,0.11026622296174082
0.7128238406629062,-1.8897337770382592
0.7138221933809215,4.110266222961741
0.7148205460989367,1.1102662229617408
0.7158188988169519,4.110266222961741
0.7168172515349672,6.110266222961741
0.7178156042529825,8.11026622296174
0.7188139569709978,8.11026622296174
0.7198123096890131,5.110266222961741
0.7208106624070283,4.110266222961741
0.7218090151250436,5.110266222961741
0.7228073678430589,0.11026622296174082
0.7238057205610742,-1.8897337770382592
0.7248040732790895,1.1102662229617408
0.7258024259971048,-2.889733777038259
0.7268007787151199,-3.889733777038259
0.7277991314331352,-10.88973377703826
0.7287974841511505,-6.889733777038259
0.7297958368691658,-8.88973377703826
0.7307941895871811,-4.889733777038259
0.7317925423051964,-3.889733777038259
0.7327908950232116,0.11026622296174082
0.7337892477412269,4.110266222961741
0.7347876004592422,4.110266222961741
0.7357859531772575,1.1102662229617408
0.7367843058952728,6.110266222961741
0.7377826586132881,8.11026622296174
0.7387810113313033,8.11026622296174
0.7397793640493185,5.110266222961741
0.7407777167673338,5.110266222961741
0.7417760694853491,5.110266222961741
0.7427744222033644,-1.8897337770382592
0.7437727749213796,2.110266222961741
0.7447711276393949,1.1102662229617408
0.7457694803574102,1.1102662229617408
0.7467678330754255,-4.889733777038259
0.7477661857934408,-8.88973377703826
0.7487645385114561,-5.889733777038259
0.7497628912294713,-8.88973377703826
0.7507612439474866,-7.889733777038259
0.7517595966655019,-4.889733777038259
0.7527579493835171,-3.889733777038259
0.7537563021015324,3.110266222961741
0.7547546548195477,2.110266222961741
0.7557530075375629,3.110266222961741
0.7567513602555782,8.11026622296174
0.7577497129735935,8.11026622296174
0.7587480656916088,6.110266222961741
0.7597464184096241,5.110266222961741
0.7607447711276394,5.110266222961741
0.7617431238456546,5.110266222961741
0.7627414765636699,-0.8897337770382592
0.7637398292816852,1.1102662229617408
0.7647381819997005,-2.889733777038259
0.7657365347177157,-3.889733777038259
0.7667348874357309,-3.889733777038259
0.7677332401537462,-9.88973377703826
0.7687315928717615,-7.889733777038259
0.7697299455897768,-8.88973377703826
0.7707282983077921,-6.889733777038259
0.7717266510258074,-0.8897337770382592
0.7727250037438226,0.11026622296174082
0.7737233564618379,3.110266222961741
0.7747217091798532,2.110266222961741
0.7757200618978685,1.1102662229617408
0.7767184146158838,6.110266222961741
0.777716767333899,8.11026622296174
0.7787151200519142,6.110266222961741
0.7797134727699295,6.110266222961741
0.7807118254879448,6.110266222961741
0.7817101782059601,6.110266222961741
0.7827085309239754,1.1102662229617408
0.7837068836419907,1.1102662229617408
0.7847052363600059,0.11026622296174082
0.7857035890780212,-2.889733777038259
0.7867019417960365,-9.88973377703826
0.7877002945140518,-9.88973377703826
0.7886986472320671,-8.88973377703826
0.7896969999500824,-6.889733777038259
0.7906953526680975,-4.889733777038259
0.7916937053861128,-4.889733777038259
0.7926920581041281,-2.889733777038259
0.7936904108221434,1.1102662229617408
0.7946887635401587,4.110266222961741
0.7956871162581739,2.110266222961741
0.7966854689761892,8.11026622296174
0.7976838216942045,8.11026622296174
0.7986821744122198,8.11026622296174
0.7996805271302351,4.110266222961741
0.8006788798482504,2.110266222961741
0.8016772325662656,5.110266222961741
0.8026755852842808,0.11026622296174082
0.8036739380022961,-0.8897337770382592
0.8046722907203114,-1.8897337770382592
0.8056706434383267,-2.889733777038259
0.806668996156342,-3.889733777038259
0.8076673488743572,-9.88973377703826
0.8086657015923725,-4.889733777038259
0.8096640543103878,-9.88973377703826
0.8106624070284031,-3.889733777038259
0.8116607597464184,-1.8897337770382592
0.8126591124644337,-2.889733777038259
0.8136574651824489,1.1102662229617408
0.8146558179004642,1.1102662229617408
0.8156541706184794,2.110266222961741
0.8166525233364947,10.11026622296174
0.81765087605451,6.110266222961741
0.8186492287725252,11.11026622296174
0.8196475814905405,4.110266222961741
0.8206459342085558,5.110266222961741
0.8216442869265711,4.110266222961741
0.8226426396445864,1.1102662229617408
0.8236409923626017,-1.8897337770382592
0.8246393450806169,-0.8897337770382592
0.8256376977986322,-2.889733777038259
0.8266360505166475,-4.889733777038259
0.8276344032346628,-11.88973377703826
0.828632755952678,-6.889733777038259
0.8296311086706933,-7.889733777038259
0.8306294613887085,-3.889733777038259
0.8316278141067238,-1.8897337770382592
0.8326261668247391,-2.889733777038259
0.8336245195427544,5.110266222961741
0.8346228722607697,2.110266222961741
0.835621224978785,2.110266222961741
0.8366195776968002,8.11026622296174
0.8376179304148155,7.110266222961741
0.8386162831328308,11.11026622296174
0.8396146358508461,4.110266222961741
0.8406129885688614,4.110266222961741
0.8416113412868765,6.110266222961741
0.8426096940048918,-0.8897337770382592
0.8436080467229071,-1.8897337770382592
0.8446063994409224,-2.889733777038259
0.8456047521589377,-1.8897337770382592
0.846603104876953,-4.889733777038259
0.8476014575949682,-10.88973377703826
0.8485998103129835,-6.889733777038259
0.8495981630309988,-7.889733777038259
0.8505965157490141,-6.889733777038259
0.8515948684670294,-2.889733777038259
0.8525932211850447,-0.8897337770382592
0.8535915739030598,1.1102662229617408
0.8545899266210751,1.1102662229617408
0.8555882793390904,2.110266222961741
0.8565866320571057,10.11026622296174
0.857584984775121,8.11026622296174
0.8585833374931363,9.11026622296174
0.8595816902111515,3.110266222961741
0.8605800429291668,4.110266222961741
0.8615783956471821,5.110266222961741
0.8625767483651974,-1.8897337770382592
0.8635751010832127,2.110266222961741
0.8645734538012279,0.11026622296174082
0.8655718065192431,-0.8897337770382592
0.8665701592372584,-4.889733777038259
0.8675685119552737,-10.88973377703826
0.868566864673289,-8.88973377703826
0.8695652173913043,-7.889733777038259
0.8705635701093195,-6.889733777038259
0.8715619228273348,-0.8897337770382592
0.8725602755453501,-1.8897337770382592
0.8735586282633654,3.110266222961741
0.8745569809813807,-0.8897337770382592
0.875555333699396,2.110266222961741
0.8765536864174112,11.11026622296174
0.8775520391354265,8.11026622296174
0.8785503918534417,5.110266222961741
0.879548744571457,7.110266222961741
0.8805470972894723,5.110266222961741
0.8815454500074876,7.110266222961741
0.8825438027255028,-2.889733777038259
0.8835421554435181,1.1102662229617408
0.8845405081615334,-0.8897337770382592
0.8855388608795487,-4.889733777038259
0.886537213597564,-7.889733777038259
0.8875355663155792,-7.889733777038259
0.8885339190335945,-8.88973377703826
0.8895322717516098,-8.88973377703826
0.890530624469625,-7.889733777038259
0.8915289771876403,-3.889733777038259
0.8925273299056556,-1.8897337770382592
0.8935256826236708,4.110266222961741
0.8945240353416861,2.110266222961741
0.8955223880597014,3.110266222961741
0.8965207407777167,10.11026622296174
0.897519093495732,8.11026622296174
0.8985174462137473,4.110266222961741
0.8995157989317625,4.110266222961741
0.9005141516497778,5.110266222961741
0.9015125043677931,6.110266222961741
0.9025108570858084,1.1102662229617408
0.9035092098038237,-1.8897337770382592
0.904507562521839,-0.8897337770382592
0.9055059152398541,-2.889733777038259
0.9065042679578694,-5.889733777038259
0.9075026206758847,-9.88973377703826
0.9085009733939,-2.889733777038259
0.9094993261119153,-6.889733777038259
0.9104976788299305,-5.889733777038259
0.9114960315479458,-2.889733777038259
0.9124943842659611,0.11026622296174082
0.9134927369839764,3.110266222961741
0.9144910897019917,0.11026622296174082
0.915489442420007,4.110266222961741
0.9164877951380221,8.11026622296174
0.9174861478560374,8.11026622296174
0.9184845005740527,5.110266222961741
0.919482853292068,4.110266222961741
0.9204812060100833,4.110266222961741
0.9214795587280986,8.11026622296174
0.9224779114461138,-2.889733777038259
0.9234762641641291,1.1102662229617408
0.9244746168821444,-0.8897337770382592
0.9254729696001597,-3.889733777038259
0.926471322318175,-3.889733777038259
0.9274696750361903,-12.88973377703826
0.9284680277542054,-9.88973377703826
0.9294663804722207,-6.889733777038259
0.930464733190236,-3.889733777038259
0.9314630859082513,-0.8897337770382592
0.9324614386262666,-3.889733777038259
0.9334597913442818,1.1102662229617408
0.9344581440622971,3.110266222961741
0.9354564967803124,4.110266222961741
0.9364548494983277,8.11026622296174
0.937453202216343,11.11026622296174
0.9384515549343583,4.110266222961741
0.9394499076523735,4.110266222961741
0.9404482603703888,5.110266222961741
0.941446613088404,3.110266222961741
0.9424449658064193,-0.8897337770382592
0.9434433185244346,-1.8897337770382592
0.9444416712424499,-2.889733777038259
0.9454400239604651,0.11026622296174082
0.9464383766784804,-3.889733777038259
0.9474367293964957,-10.88973377703826
0.948435082114511,-4.889733777038259
0.9494334348325263,-7.889733777038259
0.9504317875505416,-4.889733777038259
0.9514301402685568,-2.889733777038259
0.9524284929865721,-0.8897337770382592
0.9534268457045874,3.110266222961741
0.9544251984226026,2.110266222961741
0.9554235511406179,3.110266222961741
0.9564219038586331,8.11026622296174
0.9574202565766484,8.11026622296174
0.9584186092946637,7.110266222961741
0.959416962012679,4.110266222961741
0.9604153147306943,3.110266222961741
0.9614136674487096,5.110266222961741
0.9624120201667248,-0.8897337770382592
0.9634103728847401,1.1102662229617408
0.9644087256027554,0.11026622296174082
0.9654070783207707,-2.889733777038259
0.966405431038786,-5.889733777038259
0.9674037837568012,-10.88973377703826
0.9684021364748164,-9.88973377703826
0.9694004891928317,-7.889733777038259
0.970398841910847,-4.889733777038259
0.9713971946288623,0.11026622296174082
0.9723955473468776,0.11026622296174082
0.9733939000648929,2.110266222961741
0.9743922527829081,5.110266222961741
0.9753906055009234,3.110266222961741
0.9763889582189387,7.110266222961741
0.977387310936954,6.110266222961741
0.9783856636549693,6.110266222961741
0.9793840163729844,5.110266222961741
0.9803823690909997,6.110266222961741
0.981380721809015,6.110266222961741
0.9823790745270303,0.11026622296174082
0.9833774272450456,-0.8897337770382592
0.9843757799630609,-1.8897337770382592
0.9853741326810761,-1.8897337770382592
0.9863724853990914,-4.889733777038259
0.9873708381171067,-10.88973377703826
0.988369190835122,-5.889733777038259
0.9893675435531373,-7.889733777038259
0.9903658962711526,-6.889733777038259
0.9913642489891678,-3.889733777038259
0.992362601707183,2.110266222961741
0.9933609544251983,1.1102662229617408
0.9943593071432136,3.110266222961741
0.9953576598612289,4.110266222961741
0.9963560125792442,8.11026622296174
0.9973543652972594,8.11026622296174
0.9983527180152747,8.11026622296174
0.99935107073329,2.110266222961741
1.0003494234513053,4.110266222961741
1.0013477761693206,3.110266222961741
1.0023461288873359,1.1102662229617408
1.0033444816053512,0.11026622296174082
1.0043428343233665,-0.8897337770382592
1.0053411870413815,-2.889733777038259
1.0063395397593968,-3.889733777038259
1.0073378924774121,-8.88973377703826
1.0083362451954274,-4.889733777038259
1.0093345979134427,-6.889733777038259
1.010332950631458,-6.889733777038259
1.0113313033494733,1.1102662229617408
1.0123296560674886,-2.889733777038259
1.0133280087855039,2.110266222961741
1.0143263615035192,4.110266222961741
1.0153247142215345,3.110266222961741
1.0163230669395498,8.11026622296174
1.0173214196575648,7.110266222961741
1.0183197723755801,6.110266222961741
1.0193181250935954,5.110266222961741
1.0203164778116107,4.110266222961741
1.021314830529626,3.110266222961741
1.0223131832476413,1.1102662229617408
1.0233115359656566,0.11026622296174082
1.024309888683672,1.1102662229617408
1.0253082414016872,-3.889733777038259
1.0263065941197025,-5.889733777038259
1.0273049468377178,-11.88973377703826
1.0283032995557329,-8.88973377703826
1.0293016522737481,-7.889733777038259
1.0303000049917634,-5.889733777038259
1.0312983577097787,-2.889733777038259
1.032296710427794,-2.889733777038259
1.0332950631458093,5.110266222961741
1.0342934158638246,0.11026622296174082
1.03529176858184,2.110266222961741
1.0362901212998552,5.110266222961741
1.0372884740178705,9.11026622296174
1.0382868267358858,7.110266222961741
1.039285179453901,6.110266222961741
1.0402835321719162,6.110266222961741
1.0412818848899315,2.110266222961741
1.0422802376079467,1.1102662229617408
1.043278590325962,-0.8897337770382592
1.0442769430439773,-2.889733777038259
1.0452752957619926,-1.8897337770382592
1.046273648480008,-6.889733777038259
1.0472720011980232,-11.88973377703826
1.0482703539160385,-4.889733777038259
1.0492687066340538,-5.889733777038259
1.050267059352069,-3.889733777038259
1.0512654120700842,-2.889733777038259
1.0522637647880995,-2.889733777038259
1.0532621175061148,1.1102662229617408
1.05426047022413,3.110266222961741
1.0552588229421453,3.110266222961741
1.0562571756601606,9.11026622296174
1.057255528378176,6.110266222961741
1.0582538810961912,7.110266222961741
1.0592522338142065,3.110266222961741
1.0602505865322218,6.110266222961741
1.0612489392502371,5.110266222961741
1.0622472919682524,-0.8897337770382592
1.0632456446862675,4.110266222961741
1.0642439974042828,-1.8897337770382592
1.065242350122298,-4.889733777038259
1.0662407028403134,-6.889733777038259
1.0672390555583287,-10.88973377703826
1.068237408276344,-6.889733777038259
1.0692357609943592,-5.889733777038259
1.0702341137123745,-6.889733777038259
1.0712324664303898,-1.8897337770382592
1.0722308191484051,0.11026622296174082
1.0732291718664204,1.1102662229617408
1.0742275245844355,1.1102662229617408
1.0752258773024508,4.110266222961741
1.076224230020466,9.11026622296174
1.0772225827384814,7.110266222961741
1.0782209354564967,5.110266222961741
1.079219288174512,5.110266222961741
1.0802176408925273,4.110266222961741
1.0812159936105425,5.110266222961741
1.0822143463285578,-1.8897337770382592
1.0832126990465731,0.11026622296174082
1.0842110517645884,-2.889733777038259
1.0852094044826037,0.11026622296174082
1.0862077572006188,-4.889733777038259
1.087206109918634,-9.88973377703826
1.0882044626366494,-7.889733777038259
1.0892028153546647,-8.88973377703826
1.09020116807268,-4.889733777038259
1.0911995207906953,-0.8897337770382592
1.0921978735087106,0.11026622296174082
1.0931962262267259,1.1102662229617408
1.0941945789447411,3.110266222961741
1.0951929316627564,4.110266222961741
1.0961912843807717,6.110266222961741
1.0971896370987868,8.11026622296174
1.098187989816802,9.11026622296174
1.0991863425348174,4.110266222961741
1.1001846952528327,4.110266222961741
1.101183047970848,6.110266222961741
1.1021814006888633,0.11026622296174082
1.1031797534068786,-1.8897337770382592
1.1041781061248939,-1.8897337770382592
1.1051764588429092,-2.889733777038259
1.1061748115609245,-4.889733777038259
1.1071731642789397,-11.88973377703826
1.108171516996955,-6.889733777038259
1.1091698697149701,-6.889733777038259
1.1101682224329854,-6.889733777038259
1.1111665751510007,-3.889733777038259
1.112164927869016,1.1102662229617408
1.1131632805870313,1.1102662229617408
1.1141616333050466,3.110266222961741
1.1151599860230619,4.110266222961741
1.1161583387410772,8.11026622296174
1.1171566914590925,6.110266222961741
1.1181550441771078,8.11026622296174
1.119153396895123,4.110266222961741
1.1201517496131381,3.110266222961741
1.1211501023311534,5.110266222961741
1.1221484550491687,1.1102662229617408
1.123146807767184,-0.8897337770382592
1.1241451604851993,-1.8897337770382592
1.1251435132032146,-1.8897337770382592
1.12614186592123,-3.889733777038259
1.1271402186392452,-11.88973377703826
1.1281385713572605,-7.889733777038259
1.1291369240752758,-7.889733777038259
1.130135276793291,-6.889733777038259
1.1311336295113064,-1.8897337770382592
1.1321319822293214,-0.8897337770382592
1.1331303349473367,2.110266222961741
1.134128687665352,3.110266222961741
1.1351270403833673,4.110266222961741
1.1361253931013826,9.11026622296174
1.137123745819398,6.110266222961741
1.1381220985374132,7.110266222961741
1.1391204512554285,3.110266222961741
1.1401188039734438,4.110266222961741
1.141117156691459,5.110266222961741
1.1421155094094744,-1.8897337770382592
1.1431138621274894,0.11026622296174082
1.1441122148455047,-1.8897337770382592
1.14511056756352,-3.889733777038259
1.1461089202815353,-4.889733777038259
1.1471072729995506,-9.88973377703826
1.148105625717566,-6.889733777038259
1.1491039784355812,-7.889733777038259
1.1501023311535965,-8.88973377703826
1.1511006838716118,-2.889733777038259
1.152099036589627,-2.889733777038259
1.1530973893076424,2.110266222961741
1.1540957420256577,3.110266222961741
1.1550940947436728,2.110266222961741
1.156092447461688,11.11026622296174
1.1570908001797033,4.110266222961741
1.1580891528977186,8.11026622296174
1.159087505615734,5.110266222961741
1.1600858583337492,5.110266222961741
1.1610842110517645,5.110266222961741
1.1620825637697798,0.11026622296174082
1.163080916487795,1.1102662229617408
1.1640792692058104,-2.889733777038259
1.1650776219238257,-4.889733777038259
1.1660759746418408,-6.889733777038259
1.167074327359856,-12.88973377703826
1.1680726800778714,-3.889733777038259
1.1690710327958866,-6.889733777038259
1.170069385513902,-7.889733777038259
1.1710677382319172,-1.8897337770382592
1.1720660909499325,0.11026622296174082
1.1730644436679478,3.110266222961741
1.1740627963859631,2.110266222961741
1.1750611491039784,1.1102662229617408
1.1760595018219937,7.110266222961741
1.177057854540009,8.11026622296174
1.178056207258024,7.110266222961741
1.1790545599760394,7.110266222961741
1.1800529126940547,6.110266222961741
1.18105126541207,4.110266222961741
1.1820496181300852,-1.8897337770382592
1.1830479708481005,1.1102662229617408
1.1840463235661158,-3.889733777038259
1.1850446762841311,-2.889733777038259
1.1860430290021464,-3.889733777038259
1.1870413817201617,-11.88973377703826
1.188039734438177,-6.889733777038259
1.189038087156192,-10.88973377703826
1.1900364398742074,-4.889733777038259
1.1910347925922227,-1.8897337770382592
1.192033145310238,-1.8897337770382592
1.1930314980282533,5.110266222961741
1.1940298507462686,3.110266222961741
1.1950282034642838,3.110266222961741
1.1960265561822991,6.110266222961741
1.1970249089003144,6.110266222961741
1.1980232616183297,6.110266222961741
1.199021614336345,7.110266222961741
1.2000199670543603,5.110266222961741
1.2010183197723754,4.110266222961741
1.2020166724903907,-1.8897337770382592
1.203015025208406,-0.8897337770382592
1.2040133779264213,0.11026622296174082
1.2050117306444366,-2.889733777038259
1.2060100833624519,-4.889733777038259
1.2070084360804672,-8.88973377703826
1.2080067887984824,-7.889733777038259
1.2090051415164977,-8.88973377703826
1.210003494234513,-6.889733777038259
1.2110018469525283,-0.8897337770382592
1.2120001996705434,-0.8897337770382592
1.2129985523885587,6.110266222961741
1.213996905106574,3.110266222961741
1.2149952578245893,4.110266222961741
1.2159936105426046,6.110266222961741
1.2169919632606199,6.110266222961741
1.2179903159786352,6.110266222961741
1.2189886686966505,6.110266222961741
1.2199870214146658,4.110266222961741
1.220985374132681,5.110266222961741
1.2219837268506963,0.11026622296174082
1.2229820795687116,-0.8897337770382592
1.2239804322867267,-1.8897337770382592
1.224978785004742,-3.889733777038259
1.2259771377227573,-3.889733777038259
1.2269754904407726,-8.88973377703826
1.2279738431587879,-7.889733777038259
1.2289721958768032,-7.889733777038259
1.2299705485948185,-4.889733777038259
1.2309689013128338,0.11026622296174082
1.231967254030849,-1.8897337770382592
1.2329656067488644,4.110266222961741
1.2339639594668796,2.110266222961741
1.2349623121848947,1.1102662229617408
1.23596066490291,8.11026622296174
1.2369590176209253,7.110266222961741
1.2379573703389406,8.11026622296174
1.238955723056956,5.110266222961741
1.2399540757749712,5.110266222961741
1.2409524284929865,3.110266222961741
1.2419507812110018,2.110266222961741
1.242949133929017,0.11026622296174082
1.2439474866470324,0.11026622296174082
1.2449458393650477,-2.889733777038259
1.245944192083063,-4.889733777038259
1.246942544801078,-10.88973377703826
1.2479408975190933,-7.889733777038259
1.2489392502371086,-8.88973377703826
1.249937602955124,-7.889733777038259
1.2509359556731392,-0.8897337770382592
1.2519343083911545,-1.8897337770382592
1.2529326611091698,4.110266222961741
1.253931013827185,3.110266222961741
1.2549293665452004,2.110266222961741
1.2559277192632157,7.110266222961741
1.256926071981231,8.11026622296174
1.257924424699246,8.11026622296174
1.2589227774172613,5.110266222961741
1.2599211301352766,4.110266222961741
1.260919482853292,3.110266222961741
1.2619178355713072,-0.8897337770382592
1.2629161882893225,1.1102662229617408
1.2639145410073378,0.11026622296174082
1.264912893725353,-0.8897337770382592
1.2659112464433684,-2.889733777038259
1.2669095991613837,-9.88973377703826
1.267907951879399,-7.889733777038259
1.2689063045974143,-6.889733777038259
1.2699046573154293,-6.889733777038259
1.2709030100334446,-2.889733777038259
1.27190136275146,-0.8897337770382592
1.2728997154694752,4.110266222961741
1.2738980681874905,2.110266222961741
1.2748964209055058,1.1102662229617408
1.275894773623521,9.11026622296174
1.2768931263415364,7.110266222961741
1.2778914790595517,4.110266222961741
1.278889831777567,5.110266222961741
1.2798881844955823,8.11026622296174
1.2808865372135974,7.110266222961741
1.2818848899316126,1.1102662229617408
1.282883242649628,0.11026622296174082
1.2838815953676432,-2.889733777038259
1.2848799480856585,-2.889733777038259
1.2858783008036738,-3.889733777038259
1.2868766535216891,-9.88973377703826
1.2878750062397044,-4.889733777038259
1.2888733589577197,-7.889733777038259
1.289871711675735,-3.889733777038259
1.2908700643937503,-2.889733777038259
1.2918684171117656,-0.8897337770382592
1.2928667698297807,5.110266222961741
1.293865122547796,3.110266222961741
1.2948634752658112,4.110266222961741
1.2958618279838265,7.110266222961741
1.2968601807018418,7.110266222961741
1.2978585334198571,5.110266222961741
1.2988568861378724,5.110266222961741
1.2998552388558877,4.110266222961741
1.300853591573903,6.110266222961741
1.3018519442919183,-0.8897337770382592
1.3028502970099336,-1.8897337770382592
1.3038486497279487,-1.8897337770382592
1.304847002445964,-2.889733777038259
1.3058453551639793,-5.889733777038259
1.3068437078819946,-11.88973377703826
1.3078420606000098,-7.889733777038259
1.3088404133180251,-8.88973377703826
1.3098387660360404,-4.889733777038259
1.3108371187540557,0.11026622296174082
1.311835471472071,-1.8897337770382592
1.3128338241900863,5.110266222961741
1.3138321769081016,1.1102662229617408
1.314830529626117,3.110266222961741
1.315828882344132,10.11026622296174
1.3168272350621473,5.110266222961741
1.3178255877801626,7.110266222961741
1.3188239404981779,4.110266222961741
1.3198222932161932,4.110266222961741
1.3208206459342084,6.110266222961741
1.3218189986522237,0.11026622296174082
1.322817351370239,-1.8897337770382592
1.3238157040882543,-0.8897337770382592
1.3248140568062696,-2.889733777038259
1.325812409524285,-3.889733777038259
1.3268107622423,-10.88973377703826
1.3278091149603153,-5.889733777038259
1.3288074676783306,-5.889733777038259
1.3298058203963459,-5.889733777038259
1.3308041731143612,-1.8897337770382592
1.3318025258323765,-2.889733777038259
1.3328008785503918,3.110266222961741
1.333799231268407,0.11026622296174082
1.3347975839864223,2.110266222961741
1.3357959367044376,6.110266222961741
1.336794289422453,8.11026622296174
1.3377926421404682,5.110266222961741
1.3387909948584833,4.110266222961741
1.3397893475764986,5.110266222961741
1.3407877002945139,4.110266222961741
1.3417860530125292,0.11026622296174082
1.3427844057305445,1.1102662229617408
1.3437827584485598,-2.889733777038259
1.344781111166575,-2.889733777038259
1.3457794638845904,-4.889733777038259
1.3467778166026056,-9.88973377703826
1.347776169320621,-8.88973377703826
1.3487745220386362,-5.889733777038259
1.3497728747566513,-6.889733777038259
1.3507712274746666,-2.889733777038259
1.351769580192682,-1.8897337770382592
1.3527679329106972,3.110266222961741
1.3537662856287125,4.110266222961741
1.3547646383467278,3.110266222961741
1.355762991064743,10.11026622296174
1.3567613437827584,8.11026622296174
1.3577596965007737,8.11026622296174
1.358758049218789,5.110266222961741
1.3597564019368042,4.110266222961741
1.3607547546548195,5.110266222961741
1.3617531073728346,-1.8897337770382592
1.36275146009085,1.1102662229617408
1.3637498128088652,-1.8897337770382592
1.3647481655268805,-4.889733777038259
1.3657465182448958,-5.889733777038259
1.366744870962911,-10.88973377703826
1.3677432236809264,-7.889733777038259
1.3687415763989417,-4.889733777038259
1.369739929116957,-7.889733777038259
1.3707382818349723,-0.8897337770382592
1.3717366345529876,0.11026622296174082
1.3727349872710026,1.1102662229617408
1.373733339989018,1.1102662229617408
1.3747316927070332,4.110266222961741
1.3757300454250485,8.11026622296174
1.3767283981430638,7.110266222961741
1.377726750861079,6.110266222961741
1.3787251035790944,7.110266222961741
1.3797234562971097,5.110266222961741
1.380721809015125,4.110266222961741
1.3817201617331403,-1.8897337770382592
1.3827185144511556,0.11026622296174082
1.3837168671691709,-1.8897337770382592
1.384715219887186,-0.8897337770382592
1.3857135726052012,-4.889733777038259
1.3867119253232165,-10.88973377703826
1.3877102780412318,-6.889733777038259
1.388708630759247,-8.88973377703826
1.3897069834772624,-6.889733777038259
1.3907053361952777,-2.889733777038259
1.391703688913293,-1.8897337770382592
1.3927020416313083,2.110266222961741
1.3937003943493236,3.110266222961741
1.3946987470673389,3.110266222961741
1.395697099785354,10.11026622296174
1.3966954525033692,9.11026622296174
1.3976938052213845,6.110266222961741
1.3986921579393998,4.110266222961741
1.3996905106574151,4.110266222961741
1.4006888633754304,7.110266222961741
1.4016872160934457,-1.8897337770382592
1.402685568811461,-0.8897337770382592
1.4036839215294763,-1.8897337770382592
1.4046822742474916,-3.889733777038259
1.4056806269655069,-5.889733777038259
1.4066789796835222,-10.88973377703826
1.4076773324015373,-4.889733777038259
1.4086756851195525,-8.88973377703826
1.4096740378375678,-4.889733777038259
1.4106723905555831,-0.8897337770382592
1.4116707432735984,-2.889733777038259
1.4126690959916137,6.110266222961741
1.413667448709629,2.110266222961741
1.4146658014276443,2.110266222961741
1.4156641541456596,10.11026622296174
1.416662506863675,5.110266222961741
1.4176608595816902,8.11026622296174
1.4186592122997053,6.110266222961741
1.4196575650177206,4.110266222961741
1.4206559177357359,7.110266222961741
1.4216542704537511,-1.8897337770382592
1.4226526231717664,-1.8897337770382592
1.4236509758897817,-2.889733777038259
1.424649328607797,-2.889733777038259
1.4256476813258123,-3.889733777038259
1.4266460340438276,-8.88973377703826
1.427644386761843,-2.889733777038259
1.4286427394798582,-7.889733777038259
1.4296410921978735,-5.889733777038259
1.4306394449158886,0.11026622296174082
1.4316377976339039,-0.8897337770382592
1.4326361503519192,4.110266222961741
1.4336345030699345,1.1102662229617408
1.4346328557879497,2.110266222961741
1.435631208505965,8.11026622296174
1.4366295612239803,9.11026622296174
1.4376279139419956,5.110266222961741
1.438626266660011,3.110266222961741
1.4396246193780262,4.110266222961741
1.4406229720960415,5.110266222961741
1.4416213248140566,0.11026622296174082
1.4426196775320719,1.1102662229617408
1.4436180302500872,-0.8897337770382592
1.4446163829681025,-3.889733777038259
1.4456147356861178,-5.889733777038259
1.446613088404133,-12.88973377703826
1.4476114411221483,-6.889733777038259
1.4486097938401636,-5.889733777038259
1.449608146558179,-4.889733777038259
1.4506064992761942,0.11026622296174082
1.4516048519942095,-3.889733777038259
1.4526032047122248,1.1102662229617408
1.4536015574302399,0.11026622296174082
1.4545999101482552,4.110266222961741
1.4555982628662705,8.11026622296174
1.4565966155842858,6.110266222961741
1.457594968302301,8.11026622296174
1.4585933210203164,6.110266222961741
1.4595916737383317,6.110266222961741
1.460590026456347,4.110266222961741
1.4615883791743622,-0.8897337770382592
1.4625867318923775,0.11026622296174082
1.4635850846103928,0.11026622296174082
1.464583437328408,-1.8897337770382592
1.4655817900464232,-5.889733777038259
1.4665801427644385,-10.88973377703826
1.4675784954824538,-6.889733777038259
1.468576848200469,-7.889733777038259
1.4695752009184844,-4.889733777038259
1.4705735536364997,-2.889733777038259
1.471571906354515,-0.8897337770382592
1.4725702590725303,2.110266222961741
1.4735686117905455,3.110266222961741
1.4745669645085608,4.110266222961741
1.4755653172265761,8.11026622296174
1.4765636699445912,4.110266222961741
1.4775620226626065,6.110266222961741
1.4785603753806218,6.110266222961741
1.479558728098637,4.110266222961741
1.4805570808166524,6.110266222961741
1.4815554335346677,-1.8897337770382592
1.482553786252683,-0.8897337770382592
1.4835521389706983,-1.8897337770382592
1.4845504916887136,-2.889733777038259
1.4855488444067289,-7.889733777038259
1.4865471971247441,-8.88973377703826
1.4875455498427592,-8.88973377703826
1.4885439025607745,-6.889733777038259
1.4895422552787898,-2.889733777038259
1.490540607996805,-1.8897337770382592
1.4915389607148204,-2.889733777038259
1.4925373134328357,5.110266222961741
1.493535666150851,4.110266222961741
1.4945340188688663,2.110266222961741
1.4955323715868816,10.11026622296174
1.4965307243048969,7.110266222961741
1.4975290770229122,5.110266222961741
1.4985274297409275,3.110266222961741
1.4995257824589425,4.110266222961741
1.5005241351769578,5.110266222961741
1.5015224878949731,0.11026622296174082
1.5025208406129884,-2.889733777038259
1.5035191933310037,-1.8897337770382592
1.504517546049019,-2.889733777038259
1.5055158987670343,-3.889733777038259
1.5065142514850496,-9.88973377703826
1.5075126042030649,-4.889733777038259
1.5085109569210802,-7.889733777038259
1.5095093096390955,-6.889733777038259
1.5105076623571105,-0.8897337770382592
1.5115060150751258,-3.889733777038259
1.5125043677931411,4.110266222961741
1.5135027205111564,1.1102662229617408
1.5145010732291717,3.110266222961741
1.515499425947187,9.11026622296174
1.5164977786652023,9.11026622296174
1.5174961313832176,5.110266222961741
1.5184944841012329,5.110266222961741
1.5194928368192482,5.110266222961741
1.5204911895372635,5.110266222961741
1.5214895422552788,-0.8897337770382592
1.5224878949732938,-1.8897337770382592
1.5234862476913091,-0.8897337770382592
1.5244846004093244,-3.889733777038259
1.5254829531273397,-6.889733777038259
1.526481305845355,-9.88973377703826
1.5274796585633703,-8.88973377703826
1.5284780112813856,-6.889733777038259
1.529476363999401,-6.889733777038259
1.5304747167174162,-1.8897337770382592
1.5314730694354315,1.1102662229617408
1.5324714221534468,4.110266222961741
1.5334697748714619,1.1102662229617408
1.5344681275894771,5.110266222961741
1.5354664803074924,8.11026622296174
1.5364648330255077,10.11026622296174
1.537463185743523,8.11026622296174
1.5384615384615383,4.110266222961741
1.5394598911795536,4.110266222961741
1.540458243897569,4.110266222961741
1.5414565966155842,0.11026622296174082
1.5424549493335995,-0.8897337770382592
1.5434533020516148,-2.889733777038259
1.54445165476963,-4.889733777038259
1.5454500074876452,-3.889733777038259
1.5464483602056605,-8.88973377703826
1.5474467129236757,-9.88973377703826
1.548445065641691,-7.889733777038259
1.5494434183597063,-4.889733777038259
1.5504417710777216,1.1102662229617408
1.551440123795737,-0.8897337770382592
1.5524384765137522,1.1102662229617408
1.5534368292317675,1.1102662229617408
1.5544351819497828,2.110266222961741
1.555433534667798,8.11026622296174
1.5564318873858134,7.110266222961741
1.5574302401038285,6.110266222961741
1.5584285928218438,6.110266222961741
1.559426945539859,4.110266222961741
1.5604252982578743,5.110266222961741
1.5614236509758896,-1.8897337770382592
1.562422003693905,0.11026622296174082
1.5634203564119202,-1.8897337770382592
1.5644187091299355,-2.889733777038259
1.5654170618479508,-5.889733777038259
1.5664154145659661,-9.88973377703826
1.5674137672839814,-7.889733777038259
1.5684121200019965,-4.889733777038259
1.5694104727200118,-6.889733777038259
1.570408825438027,-0.8897337770382592
1.5714071781560424,-1.8897337770382592
1.5724055308740577,1.1102662229617408
1.573403883592073,1.1102662229617408
1.5744022363100882,4.110266222961741
1.5754005890281035,8.11026622296174
1.5763989417461188,8.11026622296174
1.5773972944641341,6.110266222961741
1.5783956471821494,4.110266222961741
1.5793939999001647,2.110266222961741
1.5803923526181798,4.110266222961741
1.581390705336195,2.110266222961741
1.5823890580542104,0.11026622296174082
1.5833874107722257,-0.8897337770382592
1.584385763490241,-2.889733777038259
1.5853841162082563,-4.889733777038259
1.5863824689262715,-11.88973377703826
1.5873808216442868,-6.889733777038259
1.5883791743623021,-8.88973377703826
1.5893775270803174,-4.889733777038259
1.5903758797983327,-2.889733777038259
1.5913742325163478,-0.8897337770382592
1.592372585234363,3.110266222961741
1.5933709379523784,0.11026622296174082
1.5943692906703937,4.110266222961741
1.595367643388409,9.11026622296174
1.5963659961064243,9.11026622296174
1.5973643488244396,8.11026622296174
1.5983627015424549,5.110266222961741
1.5993610542604701,4.110266222961741
1.6003594069784854,7.110266222961741
1.6013577596965007,1.1102662229617408
1.602356112414516,-1.8897337770382592
1.603354465132531,-2.889733777038259
1.6043528178505464,-4.889733777038259
1.6053511705685617,-4.889733777038259
1.606349523286577,-12.88973377703826
1.6073478760045923,-4.889733777038259
1.6083462287226076,-6.889733777038259
1.6093445814406229,-7.889733777038259
1.6103429341586382,-1.8897337770382592
1.6113412868766535,-1.8897337770382592
1.6123396395946687,5.110266222961741
1.613337992312684,3.110266222961741
1.6143363450306991,3.110266222961741
1.6153346977487144,6.110266222961741
1.6163330504667297,10.11026622296174
1.617331403184745,4.110266222961741
1.6183297559027603,4.110266222961741
1.6193281086207756,2.110266222961741
1.6203264613387909,6.110266222961741
1.6213248140568062,2.110266222961741
1.6223231667748215,3.110266222961741
1.6233215194928368,-2.889733777038259
1.624319872210852,-2.889733777038259
1.6253182249288673,-4.889733777038259
1.6263165776468824,-11.88973377703826
1.6273149303648977,-7.889733777038259
1.628313283082913,-6.889733777038259
1.6293116358009283,-6.889733777038259
1.6303099885189436,-0.8897337770382592
1.631308341236959,0.11026622296174082
1.6323066939549742,4.110266222961741
1.6333050466729895,1.1102662229617408
1.6343033993910048,3.110266222961741
1.63530175210902,5.110266222961741
1.6363001048270354,5.110266222961741
1.6372984575450504,8.11026622296174
1.6382968102630657,2.110266222961741
1.639295162981081,4.110266222961741
1.6402935156990963,5.110266222961741
1.6412918684171116,-0.8897337770382592
1.642290221135127,1.1102662229617408
1.6432885738531422,0.11026622296174082
1.6442869265711575,-3.889733777038259
1.6452852792891728,-6.889733777038259
1.646283632007188,-10.88973377703826
1.6472819847252034,-8.88973377703826
1.6482803374432187,-5.889733777038259
1.6492786901612337,-3.889733777038259
1.650277042879249,0.11026622296174082
1.6512753955972643,-1.8897337770382592
1.6522737483152796,3.110266222961741
1.653272101033295,3.110266222961741
1.6542704537513102,4.110266222961741
1.6552688064693255,9.11026622296174
1.6562671591873408,5.110266222961741
1.657265511905356,8.11026622296174
1.6582638646233714,2.110266222961741
1.6592622173413867,4.110266222961741
1.6602605700594018,6.110266222961741
1.661258922777417,-0.8897337770382592
1.6622572754954323,0.11026622296174082
1.6632556282134476,-2.889733777038259
1.664253980931463,-2.889733777038259
1.6652523336494782,-4.889733777038259
1.6662506863674935,-10.88973377703826
1.6672490390855088,-6.889733777038259
1.668247391803524,-7.889733777038259
1.6692457445215394,-4.889733777038259
1.6702440972395547,-1.8897337770382592
1.67124244995757,1.1102662229617408
1.672240802675585,3.110266222961741
1.6732391553936004,1.1102662229617408
1.6742375081116156,5.110266222961741
1.675235860829631,6.110266222961741
1.6762342135476462,6.110266222961741
1.6772325662656615,5.110266222961741
1.6782309189836768,6.110266222961741
1.6792292717016921,5.110266222961741
1.6802276244197074,4.110266222961741
1.6812259771377227,-2.889733777038259
1.682224329855738,2.110266222961741
1.683222682573753,-1.8897337770382592
1.6842210352917684,-1.8897337770382592
1.6852193880097837,-7.889733777038259
1.686217740727799,-11.88973377703826
1.6872160934458142,-4.889733777038259
1.6882144461638295,-7.889733777038259
1.6892127988818448,-6.889733777038259
1.6902111515998601,-0.8897337770382592
1.6912095043178754,0.11026622296174082
1.6922078570358907,0.11026622296174082
1.693206209753906,1.1102662229617408
1.6942045624719213,1.1102662229617408
1.6952029151899364,8.11026622296174
1.6962012679079517,10.11026622296174
1.697199620625967,6.110266222961741
1.6981979733439823,5.110266222961741
1.6991963260619976,3.110266222961741
1.7001946787800128,4.110266222961741
1.7011930314980281,0.11026622296174082
1.7021913842160434,0.11026622296174082
1.7031897369340587,-1.8897337770382592
1.704188089652074,-2.889733777038259
1.7051864423700893,-6.889733777038259
1.7061847950881044,-10.88973377703826
1.7071831478061197,-5.889733777038259
1.708181500524135,-7.889733777038259
1.7091798532421503,-7.889733777038259
1.7101782059601656,-2.889733777038259
1.7111765586781809,-1.8897337770382592
1.7121749113961962,4.110266222961741
1.7131732641142114,3.110266222961741
1.7141716168322267,3.110266222961741
1.715169969550242,9.11026622296174
1.7161683222682573,7.110266222961741
1.7171666749862726,8.11026622296174
1.7181650277042877,1.1102662229617408
1.719163380422303,5.110266222961741
1.7201617331403183,5.110266222961741
1.7211600858583336,0.11026622296174082
1.7221584385763489,2.110266222961741
1.7231567912943642,-1.8897337770382592
1.7241551440123795,0.11026622296174082
1.7251534967303948,-5.889733777038259
1.72615184944841,-9.88973377703826
1.7271502021664253,-2.889733777038259
1.7281485548844406,-6.889733777038259
1.7291469076024557,-7.889733777038259
1.730145260320471,-4.889733777038259
1.7311436130384863,-1.8897337770382592
1.7321419657565016,5.110266222961741
1.7331403184745169,1.1102662229617408
1.7341386711925322,4.110266222961741
1.7351370239105475,10.11026622296174
1.7361353766285628,6.110266222961741
1.737133729346578,4.110266222961741
1.7381320820645934,6.110266222961741
1.7391304347826086,4.110266222961741
1.740128787500624,4.110266222961741
1.741127140218639,-1.8897337770382592
1.7421254929366543,1.1102662229617408
1.7431238456546696,-0.8897337770382592
1.744122198372685,-3.889733777038259
1.7451205510907002,-4.889733777038259
1.7461189038087155,-9.88973377703826
1.7471172565267308,-6.889733777038259
1.748115609244746,-6.889733777038259
1.7491139619627614,-5.889733777038259
1.7501123146807767,-1.8897337770382592
1.751110667398792,-1.8897337770382592
1.752109020116807,3.110266222961741
1.7531073728348223,3.110266222961741
1.7541057255528376,4.110266222961741
1.755104078270853,8.11026622296174
1.7561024309888682,6.110266222961741
1.7571007837068835,8.11026622296174
1.7580991364248988,5.110266222961741
1.759097489142914,4.110266222961741
1.7600958418609294,7.110266222961741
1.7610941945789447,1.1102662229617408
1.76209254729696,-1.8897337770382592
1.7630909000149753,-0.8897337770382592
1.7640892527329903,-2.889733777038259
1.7650876054510056,-4.889733777038259
1.766085958169021,-12.88973377703826
1.7670843108870362,-6.889733777038259
1.7680826636050515,-7.889733777038259
1.7690810163230668,-4.889733777038259
1.770079369041082,0.11026622296174082
1.7710777217590974,-0.8897337770382592
1.7720760744771127,5.110266222961741
1.773074427195128,1.1102662229617408
1.7740727799131433,1.1102662229617408
1.7750711326311583,7.110266222961741
1.7760694853491736,7.110266222961741
1.777067838067189,6.110266222961741
1.7780661907852042,6.110266222961741
1.7790645435032195,5.110266222961741
1.7800628962212348,5.110266222961741
1.78106124893925,-1.8897337770382592
1.7820596016572654,0.11026622296174082
1.7830579543752807,-2.889733777038259
1.784056307093296,-5.889733777038259
1.7850546598113113,-4.889733777038259
1.7860530125293266,-8.88973377703826
1.7870513652473416,-7.889733777038259
1.788049717965357,-5.889733777038259
1.7890480706833722,-4.889733777038259
1.7900464234013875,-2.889733777038259
1.7910447761194028,-1.8897337770382592
1.7920431288374181,3.110266222961741
1.7930414815554334,2.110266222961741
1.7940398342734487,4.110266222961741
1.795038186991464,7.110266222961741
1.7960365397094793,6.110266222961741
1.7970348924274946,6.110266222961741
1.7980332451455097,4.110266222961741
1.799031597863525,3.110266222961741
1.8000299505815403,5.110266222961741
1.8010283032995555,-0.8897337770382592
1.8020266560175708,0.11026622296174082
1.8030250087355861,-1.8897337770382592
1.8040233614536014,-3.889733777038259
1.8050217141716167,-6.889733777038259
1.806020066889632,-12.88973377703826
1.8070184196076473,-5.889733777038259
1.8080167723256626,-5.889733777038259
1.809015125043678,-1.8897337770382592
1.810013477761693,1.1102662229617408
1.8110118304797083,1.1102662229617408
1.8120101831977236,5.110266222961741
1.8130085359157389,0.11026622296174082
1.8140068886337541,3.110266222961741
1.8150052413517694,6.110266222961741
1.8160035940697847,6.110266222961741
1.8170019467878,5.110266222961741
1.8180002995058153,5.110266222961741
1.8189986522238306,5.110266222961741
1.819997004941846,3.110266222961741
1.820995357659861,-1.8897337770382592
1.8219937103778763,1.1102662229617408
1.8229920630958916,-0.8897337770382592
1.8239904158139069,-4.889733777038259
1.8249887685319222,-5.889733777038259
1.8259871212499375,-10.88973377703826
1.8269854739679527,-6.889733777038259
1.827983826685968,-6.889733777038259
1.8289821794039833,-3.889733777038259
1.8299805321219986,-2.889733777038259
1.830978884840014,-0.8897337770382592
1.8319772375580292,5.110266222961741
1.8329755902760443,0.11026622296174082
1.8339739429940596,3.110266222961741
1.8349722957120749,5.110266222961741
1.8359706484300902,9.11026622296174
1.8369690011481055,5.110266222961741
1.8379673538661208,4.110266222961741
1.838965706584136,5.110266222961741
1.8399640593021513,2.110266222961741
1.8409624120201666,1.1102662229617408
1.841960764738182,-0.8897337770382592
1.8429591174561972,0.11026622296174082
1.8439574701742123,-4.889733777038259
1.8449558228922276,-5.889733777038259
1.8459541756102429,-11.88973377703826
1.8469525283282582,-7.889733777038259
1.8479508810462735,-5.889733777038259
1.8489492337642888,-4.889733777038259
1.849947586482304,-0.8897337770382592
1.8509459392003194,-0.8897337770382592
1.8519442919183347,3.110266222961741
1.85294264463635,1.1102662229617408
1.8539409973543652,4.110266222961741
1.8549393500723805,8.11026622296174
1.8559377027903956,6.110266222961741
1.856936055508411,6.110266222961741
1.8579344082264262,2.110266222961741
1.8589327609444415,4.110266222961741
1.8599311136624568,5.110266222961741
1.860929466380472,1.1102662229617408
1.8619278190984874,0.11026622296174082
1.8629261718165027,-2.889733777038259
1.863924524534518,-4.889733777038259
1.8649228772525333,-5.889733777038259
1.8659212299705485,-9.88973377703826
1.8669195826885636,-4.889733777038259
1.867917935406579,-7.889733777038259
1.8689162881245942,-7.889733777038259
1.8699146408426095,-1.8897337770382592
1.8709129935606248,0.11026622296174082
1.87191134627864,4.110266222961741
1.8729096989966554,4.110266222961741
1.8739080517146707,4.110266222961741
1.874906404432686,8.11026622296174
1.8759047571507013,6.110266222961741
1.8769031098687166,6.110266222961741
1.8779014625867319,5.110266222961741
1.878899815304747,4.110266222961741
1.8798981680227622,4.110266222961741
1.8808965207407775,-0.8897337770382592
1.8818948734587928,1.1102662229617408
1.882893226176808,-2.889733777038259
1.8838915788948234,-1.8897337770382592
1.8848899316128387,-2.889733777038259
1.885888284330854,-11.88973377703826
1.8868866370488693,-3.889733777038259
1.8878849897668846,-7.889733777038259
1.8888833424848999,-6.889733777038259
1.889881695202915,-2.889733777038259
1.8908800479209302,-1.8897337770382592
1.8918784006389455,3.110266222961741
1.8928767533569608,2.110266222961741
1.8938751060749761,3.110266222961741
1.8948734587929914,7.110266222961741
1.8958718115110067,7.110266222961741
1.896870164229022,7.110266222961741
1.8978685169470373,6.110266222961741
1.8988668696650526,5.110266222961741
1.8998652223830679,5.110266222961741
1.9008635751010832,0.11026622296174082
1.9018619278190982,0.11026622296174082
1.9028602805371135,0.11026622296174082
1.9038586332551288,-5.889733777038259
1.9048569859731441,-4.889733777038259
1.9058553386911594,-10.88973377703826
1.9068536914091747,-7.889733777038259
1.90785204412719,-6.889733777038259
1.9088503968452053,-5.889733777038259
1.9098487495632206,-0.8897337770382592
1.9108471022812359,-0.8897337770382592
1.9118454549992512,3.110266222961741
1.9128438077172663,0.11026622296174082
1.9138421604352815,6.110266222961741
1.9148405131532968,8.11026622296174
1.9158388658713121,7.110266222961741
1.9168372185893274,7.110266222961741
1.9178355713073427,6.110266222961741
1.918833924025358,5.110266222961741
1.9198322767433733,6.110266222961741
1.9208306294613886,-1.8897337770382592
1.921828982179404,-1.8897337770382592
1.9228273348974192,-2.889733777038259
1.9238256876154345,-4.889733777038259
1.9248240403334496,-4.889733777038259
1.9258223930514649,-10.88973377703826
1.9268207457694801,-6.889733777038259
1.9278190984874954,-6.889733777038259
1.9288174512055107,-6.889733777038259
1.929815803923526,-2.889733777038259
1.9308141566415413,0.11026622296174082
1.9318125093595566,4.110266222961741
1.932810862077572,3.110266222961741
1.9338092147955872,5.110266222961741
1.9348075675136025,9.11026622296174
1.9358059202316176,7.110266222961741
1.9368042729496329,8.11026622296174
1.9378026256676482,5.110266222961741
1.9388009783856635,5.110266222961741
1.9397993311036787,3.110266222961741
1.940797683821694,-0.8897337770382592
1.9417960365397093,-0.8897337770382592
1.9427943892577246,-1.8897337770382592
1.94379274197574,-4.889733777038259
1.9447910946937552,-6.889733777038259
1.9457894474117705,-9.88973377703826
1.9467878001297858,-10.88973377703826
1.9477861528478009,-6.889733777038259
1.9487845055658162,-3.889733777038259
1.9497828582838315,0.11026622296174082
1.9507812110018468,0.11026622296174082
1.951779563719862,3.110266222961741
1.9527779164378773,3.110266222961741
1.9537762691558926,3.110266222961741
1.954774621873908,9.11026622296174
1.9557729745919232,6.110266222961741
1.9567713273099385,8.11026622296174
1.9577696800279538,4.110266222961741
1.958768032745969,4.110266222961741
1.9597663854639842,5.110266222961741
1.9607647381819995,1.1102662229617408
1.9617630909000148,0.11026622296174082
1.96276144361803,-0.8897337770382592
1.9637597963360454,-2.889733777038259
1.9647581490540607,-6.889733777038259
1.965756501772076,-8.88973377703826
1.9667548544900912,-8.88973377703826
1.9677532072081065,-6.889733777038259
1.9687515599261218,-8.88973377703826
1.9697499126441371,-2.889733777038259
1.9707482653621522,-0.8897337770382592
1.9717466180801675,5.110266222961741
1.9727449707981828,3.110266222961741
1.973743323516198,3.110266222961741
1.9747416762342134,8.11026622296174
1.9757400289522287,10.11026622296174
1.976738381670244,5.110266222961741
1.9777367343882593,4.110266222961741
1.9787350871062745,4.110266222961741
1.9797334398242898,2.110266222961741
1.9807317925423051,-1.8897337770382592
1.9817301452603202,-1.8897337770382592
1.9827284979783355,-2.889733777038259
1.9837268506963508,-2.889733777038259
1.984725203414366,-7.889733777038259
1.9857235561323814,-7.889733777038259
1.9867219088503967,-4.889733777038259
1.987720261568412,-5.889733777038259
1.9887186142864273,-3.889733777038259
1.9897169670044426,-2.889733777038259
1.9907153197224579,-0.8897337770382592
1.9917136724404731,4.110266222961741
1.9927120251584884,1.1102662229617408
1.9937103778765035,2.110266222961741
1.9947087305945188,11.11026622296174
1.995707083312534,8.11026622296174
1.9967054360305494,6.110266222961741
1.9977037887485647,7.110266222961741
1.99870214146658,5.110266222961741
1.9997004941845953,5.110266222961741
2.0006988469026106,-2.889733777038259
2.001697199620626,-1.8897337770382592
2.002695552338641,0.11026622296174082
2.0036939050566565,-2.889733777038259
2.0046922577746717,-6.889733777038259
2.005690610492687,-10.88973377703826
2.0066889632107023,-4.889733777038259
2.0076873159287176,-6.889733777038259
2.008685668646733,-3.889733777038259
2.009684021364748,-0.8897337770382592
2.010682374082763,-0.8897337770382592
2.0116807268007784,5.110266222961741
2.0126790795187937,0.11026622296174082
2.013677432236809,4.110266222961741
2.0146757849548242,7.110266222961741
2.0156741376728395,7.110266222961741
2.016672490390855,4.110266222961741
2.01767084310887,5.110266222961741
2.0186691958268854,4.110266222961741
2.0196675485449007,5.110266222961741
2.020665901262916,-0.8897337770382592
2.0216642539809313,-0.8897337770382592
2.0226626066989466,0.11026622296174082
2.023660959416962,-1.8897337770382592
2.024659312134977,-3.889733777038259
2.0256576648529925,-10.88973377703826
2.0266560175710078,-6.889733777038259
2.027654370289023,-9.88973377703826
2.0286527230070384,-4.889733777038259
2.0296510757250537,0.11026622296174082
2.030649428443069,-2.889733777038259
2.0316477811610842,5.110266222961741
2.0326461338790995,2.110266222961741
2.0336444865971144,5.110266222961741
2.0346428393151297,8.11026622296174
2.035641192033145,8.11026622296174
2.0366395447511603,5.110266222961741
2.0376378974691756,4.110266222961741
2.038636250187191,3.110266222961741
2.039634602905206,6.110266222961741
2.0406329556232214,1.1102662229617408
2.0416313083412367,1.1102662229617408
2.042629661059252,-0.8897337770382592
2.0436280137772673,-2.889733777038259
2.0446263664952826,-6.889733777038259
2.045624719213298,-12.88973377703826
2.046623071931313,-5.889733777038259
2.0476214246493285,-8.88973377703826
2.048619777367344,-5.889733777038259
2.049618130085359,-0.8897337770382592
2.0506164828033744,2.110266222961741
2.0516148355213897,3.110266222961741
2.052613188239405,1.1102662229617408
2.0536115409574203,1.1102662229617408
2.0546098936754356,8.11026622296174
2.055608246393451,6.110266222961741
2.0566065991114657,6.110266222961741
2.057604951829481,5.110266222961741
2.0586033045474963,5.110266222961741
2.0596016572655116,3.110266222961741
2.060600009983527,2.110266222961741
2.061598362701542,1.1102662229617408
2.0625967154195575,-1.8897337770382592
2.0635950681375728,-1.8897337770382592
2.064593420855588,-7.889733777038259
2.0655917735736034,-11.88973377703826
2.0665901262916186,-5.889733777038259
2.067588479009634,-6.889733777038259
2.0685868317276492,-6.889733777038259
2.0695851844456645,-1.8897337770382592
2.07058353716368,-0.8897337770382592
2.071581889881695,4.110266222961741
2.0725802425997104,1.1102662229617408
2.0735785953177257,1.1102662229617408
2.074576948035741,7.110266222961741
2.0755753007537563,7.110266222961741
2.0765736534717716,7.110266222961741
2.077572006189787,6.110266222961741
2.078570358907802,4.110266222961741
2.079568711625817,4.110266222961741
2.0805670643438323,-0.8897337770382592
2.0815654170618476,0.11026622296174082
2.082563769779863,0.11026622296174082
2.083562122497878,-1.8897337770382592
2.0845604752158935,-5.889733777038259
2.085558827933909,-10.88973377703826
2.086557180651924,-2.889733777038259
2.0875555333699394,-6.889733777038259
2.0885538860879547,-5.889733777038259
2.08955223880597,-3.889733777038259
2.0905505915239853,-1.8897337770382592
2.0915489442420006,3.110266222961741
2.092547296960016,2.110266222961741
2.093545649678031,2.110266222961741
2.0945440023960464,7.110266222961741
2.0955423551140617,9.11026622296174
2.096540707832077,8.11026622296174
2.0975390605500923,6.110266222961741
2.0985374132681076,4.110266222961741
2.099535765986123,4.110266222961741
2.100534118704138,-0.8897337770382592
2.1015324714221535,-1.8897337770382592
2.1025308241401683,-1.8897337770382592
2.1035291768581836,-2.889733777038259
2.104527529576199,-4.889733777038259
2.1055258822942142,-12.88973377703826
2.1065242350122295,-6.889733777038259
2.107522587730245,-6.889733777038259
2.10852094044826,-3.889733777038259
2.1095192931662754,-1.8897337770382592
2.1105176458842907,-0.8897337770382592
2.111515998602306,4.110266222961741
2.1125143513203213,4.110266222961741
2.1135127040383366,4.110266222961741
2.114511056756352,10.11026622296174
2.115509409474367,9.11026622296174
2.1165077621923825,5.110266222961741
2.1175061149103978,3.110266222961741
2.118504467628413,3.110266222961741
2.1195028203464283,1.1102662229617408
2.1205011730644436,-0.8897337770382592
2.121499525782459,-2.889733777038259
2.1224978785004742,0.11026622296174082
2.1234962312184895,-2.889733777038259
2.124494583936505,-4.889733777038259
2.1254929366545197,-10.88973377703826
2.126491289372535,-6.889733777038259
2.1274896420905502,-4.889733777038259
2.1284879948085655,-5.889733777038259
2.129486347526581,0.11026622296174082
2.130484700244596,0.11026622296174082
2.1314830529626114,3.110266222961741
2.1324814056806267,1.1102662229617408
2.133479758398642,3.110266222961741
2.1344781111166573,5.110266222961741
2.1354764638346726,9.11026622296174
2.136474816552688,5.110266222961741
2.137473169270703,5.110266222961741
2.1384715219887185,4.110266222961741
2.1394698747067338,3.110266222961741
2.140468227424749,-1.8897337770382592
2.1414665801427644,0.11026622296174082
2.1424649328607797,-0.8897337770382592
2.143463285578795,-3.889733777038259
2.1444616382968102,-2.889733777038259
2.1454599910148255,-10.88973377703826
2.146458343732841,-6.889733777038259
2.147456696450856,-6.889733777038259
2.148455049168871,-6.889733777038259
2.1494534018868863,-2.889733777038259
2.1504517546049016,-1.8897337770382592
2.151450107322917,1.1102662229617408
2.152448460040932,2.110266222961741
2.1534468127589474,5.110266222961741
2.1544451654769627,9.11026622296174
2.155443518194978,5.110266222961741
2.1564418709129933,8.11026622296174
2.1574402236310086,6.110266222961741
2.158438576349024,4.110266222961741
2.159436929067039,8.11026622296174
2.1604352817850545,-0.8897337770382592
2.16143363450307,1.1102662229617408
2.162431987221085,-2.889733777038259
2.1634303399391004,-3.889733777038259
2.1644286926571157,-3.889733777038259
2.165427045375131,-11.88973377703826
2.1664253980931463,-8.88973377703826
2.1674237508111616,-7.889733777038259
2.168422103529177,-4.889733777038259
2.169420456247192,-0.8897337770382592
2.1704188089652074,-1.8897337770382592
2.1714171616832223,5.110266222961741
2.1724155144012376,1.1102662229617408
2.173413867119253,4.110266222961741
2.174412219837268,8.11026622296174
2.1754105725552835,7.110266222961741
2.1764089252732988,5.110266222961741
2.177407277991314,5.110266222961741
2.1784056307093294,3.110266222961741
2.1794039834273446,5.110266222961741
2.18040233614536,-1.8897337770382592
2.1814006888633752,1.1102662229617408
2.1823990415813905,-2.889733777038259
2.183397394299406,-4.889733777038259
2.184395747017421,-3.889733777038259
2.1853940997354364,-10.88973377703826
2.1863924524534517,-5.889733777038259
2.187390805171467,-3.889733777038259
2.1883891578894823,-4.889733777038259
2.1893875106074976,-2.889733777038259
2.190385863325513,-1.8897337770382592
2.191384216043528,4.110266222961741
2.1923825687615435,1.1102662229617408
2.1933809214795588,2.110266222961741
2.1943792741975736,10.11026622296174
2.195377626915589,8.11026622296174
2.196375979633604,5.110266222961741
2.1973743323516195,6.110266222961741
2.198372685069635,6.110266222961741
2.19937103778765,4.110266222961741
2.2003693905056654,-1.8897337770382592
2.2013677432236807,1.1102662229617408
2.202366095941696,0.11026622296174082
2.2033644486597113,-4.889733777038259
2.2043628013777266,-5.889733777038259
2.205361154095742,-10.88973377703826
2.206359506813757,-6.889733777038259
2.2073578595317724,-6.889733777038259
2.2083562122497877,-6.889733777038259
2.209354564967803,0.11026622296174082
2.2103529176858183,-1.8897337770382592
2.2113512704038336,3.110266222961741
2.212349623121849,3.110266222961741
2.213347975839864,4.110266222961741
2.2143463285578795,6.110266222961741
2.215344681275895,11.11026622296174
2.21634303399391,5.110266222961741
2.217341386711925,4.110266222961741
2.2183397394299402,4.110266222961741
2.2193380921479555,5.110266222961741
2.220336444865971,4.110266222961741
2.221334797583986,-0.8897337770382592
2.2223331503020014,-2.889733777038259
2.2233315030200167,-3.889733777038259
2.224329855738032,-5.889733777038259
2.2253282084560473,-7.889733777038259
2.2263265611740626,-4.889733777038259
2.227324913892078,-9.88973377703826
2.228323266610093,-4.889733777038259
2.2293216193281085,-0.8897337770382592
2.2303199720461238,-1.8897337770382592
2.231318324764139,2.110266222961741
2.2323166774821543,3.110266222961741
2.2333150302001696,3.110266222961741
2.234313382918185,11.11026622296174
2.2353117356362002,8.11026622296174
2.2363100883542155,7.110266222961741
2.237308441072231,6.110266222961741
2.238306793790246,5.110266222961741
2.2393051465082614,3.110266222961741
2.2403034992262763,-0.8897337770382592
2.2413018519442915,0.11026622296174082
2.242300204662307,-1.8897337770382592
2.243298557380322,-5.889733777038259
2.2442969100983374,-7.889733777038259
2.2452952628163527,-10.88973377703826
2.246293615534368,-7.889733777038259
2.2472919682523833,-6.889733777038259
2.2482903209703986,-4.889733777038259
2.249288673688414,-0.8897337770382592
2.250287026406429,0.11026622296174082
2.2512853791244445,4.110266222961741
2.25228373184246,1.1102662229617408
2.253282084560475,3.110266222961741
2.2542804372784904,10.11026622296174
2.2552787899965057,6.110266222961741
2.256277142714521,8.11026622296174
2.2572754954325362,5.110266222961741
2.2582738481505515,5.110266222961741
2.259272200868567,4.110266222961741
2.260270553586582,-1.8897337770382592
2.2612689063045974,1.1102662229617408
2.2622672590226127,-1.8897337770382592
2.2632656117406276,-2.889733777038259
2.264263964458643,-5.889733777038259
2.265262317176658,-7.889733777038259
2.2662606698946735,-5.889733777038259
2.2672590226126887,-6.889733777038259
2.268257375330704,-1.8897337770382592
2.2692557280487193,-1.8897337770382592
2.2702540807667346,-0.8897337770382592
2.27125243348475,4.110266222961741
2.272250786202765,2.110266222961741
2.2732491389207805,3.110266222961741
2.274247491638796,9.11026622296174
2.275245844356811,7.110266222961741
2.2762441970748264,6.110266222961741
2.2772425497928417,4.110266222961741
2.278240902510857,3.110266222961741
2.2792392552288723,4.110266222961741
2.2802376079468876,0.11026622296174082
2.281235960664903,-0.8897337770382592
2.282234313382918,-2.889733777038259
2.2832326661009335,-4.889733777038259
2.2842310188189487,-5.889733777038259
2.285229371536964,-11.88973377703826
2.286227724254979,-6.889733777038259
2.287226076972994,-7.889733777038259
2.2882244296910095,-5.889733777038259
2.2892227824090248,-2.889733777038259
2.29022113512704,-1.8897337770382592
2.2912194878450554,5.110266222961741
2.2922178405630707,5.110266222961741
2.293216193281086,4.110266222961741
2.2942145459991012,7.110266222961741
2.2952128987171165,7.110266222961741
2.296211251435132,6.110266222961741
2.297209604153147,5.110266222961741
2.2982079568711624,4.110266222961741
2.2992063095891777,5.110266222961741
2.300204662307193,-0.8897337770382592
2.3012030150252083,-1.8897337770382592
2.3022013677432236,0.11026622296174082
2.303199720461239,-2.889733777038259
2.304198073179254,-3.889733777038259
2.3051964258972695,-10.88973377703826
2.3061947786152848,-6.889733777038259
2.3071931313333,-7.889733777038259
2.3081914840513154,-4.889733777038259
2.30918983676933,-0.8897337770382592
2.3101881894873455,-1.8897337770382592
2.311186542205361,5.110266222961741
2.312184894923376,0.11026622296174082
2.3131832476413914,3.110266222961741
2.3141816003594067,7.110266222961741
2.315179953077422,8.11026622296174
2.3161783057954373,4.110266222961741
2.3171766585134526,3.110266222961741
2.318175011231468,4.110266222961741
2.319173363949483,2.110266222961741
2.3201717166674984,-0.8897337770382592
2.3211700693855137,0.11026622296174082
2.322168422103529,0.11026622296174082
2.3231667748215443,-5.889733777038259
2.3241651275395596,-5.889733777038259
2.325163480257575,-9.88973377703826
2.32616183297559,-7.889733777038259
2.3271601856936055,-5.889733777038259
2.328158538411621,-6.889733777038259
2.329156891129636,1.1102662229617408
2.3301552438476514,-0.8897337770382592
2.3311535965656667,4.110266222961741
2.3321519492836815,1.1102662229617408
2.333150302001697,4.110266222961741
2.334148654719712,8.11026622296174
2.3351470074377274,6.110266222961741
2.3361453601557427,7.110266222961741
2.337143712873758,4.110266222961741
2.3381420655917733,4.110266222961741
2.3391404183097886,2.110266222961741
2.340138771027804,1.1102662229617408
2.341137123745819,-2.889733777038259
2.3421354764638345,0.11026622296174082
2.3431338291818498,-2.889733777038259
2.344132181899865,-7.889733777038259
2.3451305346178803,-9.88973377703826
2.3461288873358956,-8.88973377703826
2.347127240053911,-7.889733777038259
2.3481255927719262,-3.889733777038259
2.3491239454899415,-0.8897337770382592
2.350122298207957,-1.8897337770382592
2.351120650925972,2.110266222961741
2.3521190036439874,3.110266222961741
2.3531173563620027,4.110266222961741
2.354115709080018,7.110266222961741
2.355114061798033,8.11026622296174
2.356112414516048,8.11026622296174
2.3571107672340634,5.110266222961741
2.3581091199520787,5.110266222961741
2.359107472670094,3.110266222961741
2.3601058253881093,1.1102662229617408
2.3611041781061246,-2.889733777038259
2.36210253082414,-2.889733777038259
2.363100883542155,-4.889733777038259
2.3640992362601705,-8.88973377703826
2.365097588978186,-9.88973377703826
2.366095941696201,-7.889733777038259
2.3670942944142164,-5.889733777038259
2.3680926471322317,-4.889733777038259
2.369090999850247,-1.8897337770382592
2.3700893525682623,0.11026622296174082
2.3710877052862775,3.110266222961741
2.372086058004293,2.110266222961741
2.373084410722308,2.110266222961741
2.3740827634403234,8.11026622296174
2.3750811161583387,6.110266222961741
2.376079468876354,6.110266222961741
2.3770778215943693,6.110266222961741
2.378076174312384,4.110266222961741
2.3790745270303995,4.110266222961741
2.3800728797484147,-1.8897337770382592
2.38107123246643,0.11026622296174082
2.3820695851844453,-2.889733777038259
2.3830679379024606,-3.889733777038259
2.384066290620476,-6.889733777038259
2.385064643338491,-9.88973377703826
2.3860629960565065,-4.889733777038259
2.387061348774522,-7.889733777038259
2.388059701492537,-4.889733777038259
2.3890580542105524,-2.889733777038259
2.3900564069285677,2.110266222961741
2.391054759646583,3.110266222961741
2.3920531123645983,2.110266222961741
2.3930514650826136,2.110266222961741
2.394049817800629,8.11026622296174
2.395048170518644,7.110266222961741
2.3960465232366595,6.110266222961741
2.3970448759546747,5.110266222961741
2.39804322867269,3.110266222961741
2.3990415813907053,5.110266222961741
2.4000399341087206,1.1102662229617408
2.4010382868267355,-0.8897337770382592
2.4020366395447508,0.11026622296174082
2.403034992262766,-3.889733777038259
2.4040333449807814,-6.889733777038259
2.4050316976987967,-10.88973377703826
2.406030050416812,-3.889733777038259
2.4070284031348272,-7.889733777038259
2.4080267558528425,-4.889733777038259
2.409025108570858,0.11026622296174082
2.410023461288873,-0.8897337770382592
2.4110218140068884,5.110266222961741
2.4120201667249037,1.1102662229617408
2.413018519442919,3.110266222961741
2.4140168721609343,5.110266222961741
2.4150152248789496,9.11026622296174
2.416013577596965,4.110266222961741
2.41701193031498,5.110266222961741
2.4180102830329955,6.110266222961741
2.4190086357510108,1.1102662229617408
2.420006988469026,-1.8897337770382592
2.4210053411870414,-3.889733777038259
2.4220036939050567,0.11026622296174082
2.423002046623072,-1.8897337770382592
2.424000399341087,-7.889733777038259
2.424998752059102,-11.88973377703826
2.4259971047771174,-5.889733777038259
2.4269954574951327,-7.889733777038259
2.427993810213148,-3.889733777038259
2.4289921629311633,0.11026622296174082
2.4299905156491786,0.11026622296174082
2.430988868367194,4.110266222961741
2.431987221085209,0.11026622296174082
2.4329855738032244,3.110266222961741
2.4339839265212397,6.110266222961741
2.434982279239255,6.110266222961741
2.4359806319572703,8.11026622296174
2.4369789846752856,3.110266222961741
2.437977337393301,3.110266222961741
2.438975690111316,6.110266222961741
2.4399740428293315,-1.8897337770382592
2.440972395547347,-1.8897337770382592
2.441970748265362,-1.8897337770382592
2.4429691009833774,-1.8897337770382592
2.4439674537013927,-5.889733777038259
2.444965806419408,-8.88973377703826
2.4459641591374233,-7.889733777038259
2.446962511855438,-7.889733777038259
2.4479608645734534,-6.889733777038259
2.4489592172914687,-0.8897337770382592
2.449957570009484,0.11026622296174082
2.4509559227274993,5.110266222961741
2.4519542754455146,1.1102662229617408
2.45295262816353,2.110266222961741
2.453950980881545,10.11026622296174
2.4549493335995605,5.110266222961741
2.4559476863175758,8.11026622296174
2.456946039035591,5.110266222961741
2.4579443917536064,5.110266222961741
2.4589427444716216,4.110266222961741
2.459941097189637,-0.8897337770382592
2.4609394499076522,1.1102662229617408
2.4619378026256675,0.11026622296174082
2.462936155343683,-2.889733777038259
2.463934508061698,-3.889733777038259
2.4649328607797134,-10.88973377703826
2.4659312134977287,-9.88973377703826
2.466929566215744,-5.889733777038259
2.4679279189337593,-7.889733777038259
2.4689262716517746,-2.889733777038259
2.4699246243697894,0.11026622296174082
2.4709229770878047,3.110266222961741
2.47192132980582,1.1102662229617408
2.4729196825238353,4.110266222961741
2.4739180352418506,8.11026622296174
2.474916387959866,7.110266222961741
2.475914740677881,5.110266222961741
2.4769130933958965,3.110266222961741
2.477911446113912,4.110266222961741
2.478909798831927,5.110266222961741
2.4799081515499424,-1.8897337770382592
2.4809065042679577,0.11026622296174082
2.481904856985973,-2.889733777038259
2.4829032097039883,-2.889733777038259
2.4839015624220036,-7.889733777038259
2.484899915140019,-7.889733777038259
2.485898267858034,-8.88973377703826
2.4868966205760494,-7.889733777038259
2.4878949732940647,-7.889733777038259
2.48889332601208,-3.889733777038259
2.4898916787300953,2.110266222961741
2.4908900314481106,3.110266222961741
2.491888384166126,2.110266222961741
2.4928867368841408,4.110266222961741
2.493885089602156,8.11026622296174
2.4948834423201713,10.11026622296174
2.4958817950381866,4.110266222961741
2.496880147756202,3.110266222961741
2.4978785004742172,2.110266222961741
2.4988768531922325,4.110266222961741
2.499875205910248,2.110266222961741
2.500873558628263,-1.8897337770382592
2.5018719113462784,-1.8897337770382592
2.5028702640642937,-4.889733777038259
2.503868616782309,-7.889733777038259
2.5048669695003243,-12.88973377703826
2.5058653222183396,-4.889733777038259
2.506863674936355,-7.889733777038259
2.50786202765437,-3.889733777038259
2.5088603803723855,-0.8897337770382592
2.5098587330904008,-1.8897337770382592
2.510857085808416,2.110266222961741
2.5118554385264313,3.110266222961741
2.5128537912444466,4.110266222961741
2.513852143962462,11.11026622296174
2.514850496680477,8.11026622296174
2.515848849398492,6.110266222961741
2.5168472021165074,5.110266222961741
2.5178455548345227,3.110266222961741
2.518843907552538,4.110266222961741
2.5198422602705532,-2.889733777038259
2.5208406129885685,-2.889733777038259
2.521838965706584,-2.889733777038259
2.522837318424599,-2.889733777038259
2.5238356711426144,-3.889733777038259
2.5248340238606297,-9.88973377703826
2.525832376578645,-6.889733777038259
2.5268307292966603,-7.889733777038259
2.5278290820146756,-7.889733777038259
2.528827434732691,-1.8897337770382592
2.529825787450706,-0.8897337770382592
2.5308241401687215,3.110266222961741
2.5318224928867368,3.110266222961741
2.532820845604752,5.110266222961741
2.5338191983227674,9.11026622296174
2.5348175510407827,6.110266222961741
2.535815903758798,7.110266222961741
2.5368142564768132,4.110266222961741
2.5378126091948285,4.110266222961741
2.5388109619128434,4.110266222961741
2.5398093146308587,1.1102662229617408
2.540807667348874,-0.8897337770382592
2.5418060200668893,-0.8897337770382592
2.5428043727849046,-3.889733777038259
2.54380272550292,-4.889733777038259
2.544801078220935,-11.88973377703826
2.5457994309389504,-4.889733777038259
2.5467977836569657,-7.889733777038259
2.547796136374981,-4.889733777038259
2.5487944890929963,0.11026622296174082
2.5497928418110116,-0.8897337770382592
2.550791194529027,2.110266222961741
2.551789547247042,2.110266222961741
2.5527878999650575,2.110266222961741
2.553786252683073,8.11026622296174
2.554784605401088,6.110266222961741
2.5557829581191034,8.11026622296174
2.5567813108371187,4.110266222961741
2.557779663555134,5.110266222961741
2.5587780162731493,3.110266222961741
2.5597763689911646,-0.8897337770382592
2.56077472170918,1.1102662229617408
2.5617730744271947,-2.889733777038259
2.56277142714521,-4.889733777038259
2.5637697798632253,-5.889733777038259
2.5647681325812406,-10.88973377703826
2.565766485299256,-7.889733777038259
2.566764838017271,-6.889733777038259
2.5677631907352865,-4.889733777038259
2.5687615434533018,-0.8897337770382592
2.569759896171317,0.11026622296174082
2.5707582488893324,3.110266222961741
2.5717566016073476,2.110266222961741
2.572754954325363,3.110266222961741
2.5737533070433782,8.11026622296174
2.5747516597613935,6.110266222961741
2.575750012479409,5.110266222961741
2.576748365197424,4.110266222961741
2.5777467179154394,3.110266222961741
2.5787450706334547,5.110266222961741
2.57974342335147,-1.8897337770382592
2.5807417760694853,1.1102662229617408
2.5817401287875006,-1.8897337770382592
2.582738481505516,-4.889733777038259
2.583736834223531,-9.88973377703826
2.584735186941546,-7.889733777038259
2.5857335396595613,-6.889733777038259
2.5867318923775766,-6.889733777038259
2.587730245095592,-7.889733777038259
2.588728597813607,-2.889733777038259
2.5897269505316225,0.11026622296174082
2.590725303249638,7.110266222961741
2.591723655967653,0.11026622296174082
2.5927220086856684,3.110266222961741
2.5937203614036837,9.11026622296174
2.594718714121699,6.110266222961741
2.5957170668397143,6.110266222961741
2.5967154195577296,4.110266222961741
2.597713772275745,4.110266222961741
2.59871212499376,5.110266222961741
2.5997104777117754,1.1102662229617408
2.6007088304297907,0.11026622296174082
2.601707183147806,-1.8897337770382592
2.6027055358658213,-2.889733777038259
2.6037038885838366,-4.889733777038259
2.604702241301852,-12.88973377703826
2.605700594019867,-5.889733777038259
2.6066989467378825,-9.88973377703826
2.6076972994558973,-5.889733777038259
2.6086956521739126,-1.8897337770382592
2.609694004891928,-2.889733777038259
2.6106923576099432,4.110266222961741
2.6116907103279585,1.1102662229617408
2.612689063045974,4.110266222961741
2.613687415763989,10.11026622296174
2.6146857684820044,6.110266222961741
2.6156841212000197,6.110266222961741
2.616682473918035,5.110266222961741
2.6176808266360503,4.110266222961741
2.6186791793540656,6.110266222961741
2.619677532072081,-1.8897337770382592
2.620675884790096,0.11026622296174082
2.6216742375081115,0.11026622296174082
2.6226725902261268,-2.889733777038259
2.623670942944142,-7.889733777038259
2.6246692956621573,-11.88973377703826
2.6256676483801726,-6.889733777038259
2.626666001098188,-6.889733777038259
2.6276643538162032,-6.889733777038259
2.6286627065342185,-1.8897337770382592
2.629661059252234,-0.8897337770382592
2.6306594119702487,3.110266222961741
2.631657764688264,-1.8897337770382592
2.6326561174062793,4.110266222961741
2.6336544701242945,7.110266222961741
2.63465282284231,11.11026622296174
2.635651175560325,7.110266222961741
2.6366495282783404,6.110266222961741
2.6376478809963557,3.110266222961741
2.638646233714371,6.110266222961741
2.6396445864323863,-0.8897337770382592
2.6406429391504016,-1.8897337770382592
2.641641291868417,-2.889733777038259
2.642639644586432,-5.889733777038259
2.6436379973044475,-6.889733777038259
2.644636350022463,-9.88973377703826
2.645634702740478,-5.889733777038259
2.6466330554584934,-7.889733777038259
2.6476314081765087,-4.889733777038259
2.648629760894524,-0.8897337770382592
2.6496281136125392,-2.889733777038259
2.6506264663305545,1.1102662229617408
2.65162481904857,3.110266222961741
2.652623171766585,3.110266222961741
2.6536215244846,9.11026622296174
2.6546198772026153,8.11026622296174
2.6556182299206306,6.110266222961741
2.656616582638646,3.110266222961741
2.657614935356661,4.110266222961741
2.6586132880746765,6.110266222961741
2.6596116407926917,-0.8897337770382592
2.660609993510707,1.1102662229617408
2.6616083462287223,-3.889733777038259
2.6626066989467376,-4.889733777038259
2.663605051664753,-8.88973377703826
2.664603404382768,-8.88973377703826
2.6656017571007835,-4.889733777038259
2.666600109818799,-7.889733777038259
2.667598462536814,-4.889733777038259
2.6685968152548294,-0.8897337770382592
2.6695951679728447,-0.8897337770382592
2.67059352069086,3.110266222961741
2.6715918734088753,3.110266222961741
2.6725902261268906,4.110266222961741
2.673588578844906,8.11026622296174
2.674586931562921,5.110266222961741
2.6755852842809364,5.110266222961741
2.6765836369989513,5.110266222961741
2.6775819897169666,6.110266222961741
2.678580342434982,5.110266222961741
2.679578695152997,-2.889733777038259
2.6805770478710125,1.1102662229617408
2.6815754005890278,-0.8897337770382592
2.682573753307043,-3.889733777038259
2.6835721060250584,-7.889733777038259
2.6845704587430737,-10.88973377703826
2.685568811461089,-4.889733777038259
2.6865671641791042,-7.889733777038259
2.6875655168971195,-4.889733777038259
2.688563869615135,0.11026622296174082
2.68956222233315,-2.889733777038259
2.6905605750511654,6.110266222961741
2.6915589277691807,0.11026622296174082
2.692557280487196,4.110266222961741
2.6935556332052113,8.11026622296174
2.6945539859232266,8.11026622296174
2.695552338641242,7.110266222961741
2.696550691359257,6.110266222961741
2.6975490440772725,5.110266222961741
2.6985473967952878,4.110266222961741
2.6995457495133026,-1.8897337770382592
2.700544102231318,-0.8897337770382592
2.701542454949333,-0.8897337770382592
2.7025408076673485,-2.889733777038259
2.703539160385364,-6.889733777038259
2.704537513103379,-10.88973377703826
2.7055358658213944,-4.889733777038259
2.7065342185394097,-8.88973377703826
2.707532571257425,-7.889733777038259
2.7085309239754403,-3.889733777038259
2.7095292766934556,3.110266222961741
2.710527629411471,4.110266222961741
2.711525982129486,4.110266222961741
2.7125243348475014,4.110266222961741
2.7135226875655167,7.110266222961741
2.714521040283532,7.110266222961741
2.7155193930015473,5.110266222961741
2.7165177457195626,4.110266222961741
2.717516098437578,4.110266222961741
2.718514451155593,4.110266222961741
2.7195128038736085,1.1102662229617408
2.720511156591624,0.11026622296174082
2.721509509309639,-2.889733777038259
2.722507862027654,-4.889733777038259
2.7235062147456692,-7.889733777038259
2.7245045674636845,-10.88973377703826
2.7255029201817,-6.889733777038259
2.726501272899715,-5.889733777038259
2.7274996256177304,-6.889733777038259
2.7284979783357457,-1.8897337770382592
2.729496331053761,3.110266222961741
2.7304946837717763,5.110266222961741
2.7314930364897916,2.110266222961741
2.732491389207807,3.110266222961741
2.733489741925822,9.11026622296174
2.7344880946438375,8.11026622296174
2.7354864473618528,8.11026622296174
2.736484800079868,5.110266222961741
2.7374831527978833,5.110266222961741
2.7384815055158986,1.1102662229617408
2.739479858233914,-0.8897337770382592
2.7404782109519292,-0.8897337770382592
2.7414765636699445,0.11026622296174082
2.74247491638796,-4.889733777038259
2.743473269105975,-6.889733777038259
2.7444716218239904,-11.88973377703826
2.7454699745420053,-4.889733777038259
2.7464683272600205,-7.889733777038259
2.747466679978036,-4.889733777038259
2.748465032696051,1.1102662229617408
2.7494633854140664,0.11026622296174082
2.7504617381320817,4.110266222961741
2.751460090850097,3.110266222961741
2.7524584435681123,3.110266222961741
2.7534567962861276,7.110266222961741
2.754455149004143,5.110266222961741
2.755453501722158,5.110266222961741
2.7564518544401735,6.110266222961741
2.757450207158189,5.110266222961741
2.758448559876204,5.110266222961741
2.7594469125942194,1.1102662229617408
2.7604452653122347,0.11026622296174082
2.76144361803025,-1.8897337770382592
2.7624419707482653,-2.889733777038259
2.7634403234662805,-4.889733777038259
2.764438676184296,-8.88973377703826
2.765437028902311,-4.889733777038259
2.7664353816203264,-8.88973377703826
2.7674337343383417,-5.889733777038259
2.7684320870563566,-2.889733777038259
2.769430439774372,-0.8897337770382592
2.770428792492387,3.110266222961741
2.7714271452104025,3.110266222961741
2.7724254979284177,5.110266222961741
2.773423850646433,8.11026622296174
2.7744222033644483,6.110266222961741
2.7754205560824636,6.110266222961741
2.776418908800479,6.110266222961741
2.777417261518494,4.110266222961741
2.7784156142365095,3.110266222961741
2.779413966954525,-2.889733777038259
2.78041231967254,1.1102662229617408
2.7814106723905554,-3.889733777038259
2.7824090251085707,-2.889733777038259
2.783407377826586,-5.889733777038259
2.7844057305446013,-6.889733777038259
2.7854040832626166,-6.889733777038259
2.786402435980632,-7.889733777038259
2.787400788698647,-4.889733777038259
2.7883991414166625,-2.889733777038259
2.7893974941346777,3.110266222961741
2.790395846852693,7.110266222961741
2.791394199570708,2.110266222961741
2.792392552288723,1.1102662229617408
2.7933909050067385,9.11026622296174
2.7943892577247538,6.110266222961741
2.795387610442769,6.110266222961741
2.7963859631607844,7.110266222961741
2.7973843158787997,5.110266222961741
2.798382668596815,4.110266222961741
2.7993810213148302,-3.889733777038259
2.8003793740328455,-1.8897337770382592
2.801377726750861,-0.8897337770382592
2.802376079468876,-6.889733777038259
2.8033744321868914,-5.889733777038259
2.8043727849049067,-9.88973377703826
2.805371137622922,-4.889733777038259
2.8063694903409373,-7.889733777038259
2.8073678430589526,-6.889733777038259
2.808366195776968,-1.8897337770382592
2.809364548494983,-0.8897337770382592
2.8103629012129985,5.110266222961741
2.8113612539310138,2.110266222961741
2.812359606649029,5.110266222961741
2.8133579593670444,8.11026622296174
2.814356312085059,5.110266222961741
2.8153546648030745,8.11026622296174
2.81635301752109,5.110266222961741
2.817351370239105,4.110266222961741
2.8183497229571204,5.110266222961741
2.8193480756751357,-1.8897337770382592
2.820346428393151,-1.8897337770382592
2.8213447811111663,-1.8897337770382592
2.8223431338291816,-3.889733777038259
2.823341486547197,-6.889733777038259
2.824339839265212,-9.88973377703826
2.8253381919832274,-6.889733777038259
2.8263365447012427,-7.889733777038259
2.827334897419258,-6.889733777038259
2.8283332501372733,-3.889733777038259
2.8293316028552886,-1.8897337770382592
2.830329955573304,5.110266222961741
2.831328308291319,1.1102662229617408
2.8323266610093345,2.110266222961741
2.83332501372735,7.110266222961741
2.834323366445365,6.110266222961741
2.8353217191633804,7.110266222961741
2.8363200718813957,5.110266222961741
2.8373184245994105,2.110266222961741
2.838316777317426,3.110266222961741
2.839315130035441,-1.8897337770382592
2.8403134827534564,3.110266222961741
2.8413118354714717,1.1102662229617408
2.842310188189487,-2.889733777038259
2.8433085409075023,-5.889733777038259
2.8443068936255176,-9.88973377703826
2.845305246343533,-4.889733777038259
2.846303599061548,-7.889733777038259
2.8473019517795635,-7.889733777038259
2.8483003044975788,-2.889733777038259
2.849298657215594,-1.8897337770382592
2.8502970099336093,3.110266222961741
2.8512953626516246,3.110266222961741
2.85229371536964,4.110266222961741
2.8532920680876552,11.11026622296174
2.8542904208056705,8.11026622296174
2.855288773523686,6.110266222961741
2.856287126241701,6.110266222961741
2.8572854789597164,4.110266222961741
2.8582838316777317,4.110266222961741
2.859282184395747,1.1102662229617408
2.860280537113762,0.11026622296174082
2.861278889831777,-2.889733777038259
2.8622772425497924,-2.889733777038259
2.8632755952678077,-3.889733777038259
2.864273947985823,-8.88973377703826
2.8652723007038383,-4.889733777038259
2.8662706534218536,-7.889733777038259
2.867269006139869,-5.889733777038259
2.868267358857884,-1.8897337770382592
2.8692657115758995,-0.8897337770382592
2.870264064293915,3.110266222961741
2.87126241701193,1.1102662229617408
2.8722607697299454,4.110266222961741
2.8732591224479607,9.11026622296174
2.874257475165976,8.11026622296174
2.8752558278839913,8.11026622296174
2.8762541806020065,6.110266222961741
2.877252533320022,6.110266222961741
2.878250886038037,3.110266222961741
2.8792492387560524,-0.8897337770382592
2.8802475914740677,1.1102662229617408
2.881245944192083,-1.8897337770382592
2.8822442969100983,-4.889733777038259
2.883242649628113,-5.889733777038259
2.8842410023461285,-9.88973377703826
2.8852393550641438,-7.889733777038259
2.886237707782159,-7.889733777038259
2.8872360605001743,-5.889733777038259
2.8882344132181896,-2.889733777038259
2.889232765936205,1.1102662229617408
2.89023111865422,3.110266222961741
2.8912294713722355,1.1102662229617408
2.892227824090251,4.110266222961741
2.893226176808266,7.110266222961741
2.8942245295262814,9.11026622296174
2.8952228822442967,7.110266222961741
2.896221234962312,5.110266222961741
2.8972195876803273,5.110266222961741
2.8982179403983426,4.110266222961741
2.899216293116358,0.11026622296174082
2.900214645834373,-0.8897337770382592
2.9012129985523885,0.11026622296174082
2.9022113512704037,-5.889733777038259
2.903209703988419,-6.889733777038259
2.9042080567064343,-10.88973377703826
2.9052064094244496,-5.889733777038259
2.9062047621424645,-7.889733777038259
2.9072031148604798,-5.889733777038259
2.908201467578495,-1.8897337770382592
2.9091998202965104,0.11026622296174082
2.9101981730145257,4.110266222961741
2.911196525732541,2.110266222961741
2.9121948784505562,1.1102662229617408
2.9131932311685715,7.110266222961741
2.914191583886587,10.11026622296174
2.915189936604602,5.110266222961741
2.9161882893226174,4.110266222961741
2.9171866420406327,4.110266222961741
2.918184994758648,6.110266222961741
2.9191833474766633,-0.8897337770382592
2.9201817001946786,4.110266222961741
2.921180052912694,-1.8897337770382592
2.922178405630709,-4.889733777038259
2.9231767583487245,-9.88973377703826
2.9241751110667398,-9.88973377703826
2.925173463784755,-7.889733777038259
2.9261718165027704,-7.889733777038259
2.9271701692207857,-3.889733777038259
2.928168521938801,1.1102662229617408
2.929166874656816,1.1102662229617408
2.930165227374831,4.110266222961741
2.9311635800928464,1.1102662229617408
2.9321619328108617,5.110266222961741
2.933160285528877,9.11026622296174
2.9341586382468923,4.110266222961741
2.9351569909649076,7.110266222961741
2.936155343682923,4.110266222961741
2.937153696400938,4.110266222961741
2.9381520491189534,3.110266222961741
2.9391504018369687,-2.889733777038259
2.940148754554984,1.1102662229617408
2.9411471072729993,-1.8897337770382592
2.9421454599910146,-2.889733777038259
2.94314381270903,-7.889733777038259
2.944142165427045,-10.88973377703826
2.9451405181450605,-5.889733777038259
2.946138870863076,-8.88973377703826
2.947137223581091,-3.889733777038259
2.9481355762991064,-1.8897337770382592
2.9491339290171217,0.11026622296174082
2.950132281735137,5.110266222961741
2.9511306344531523,3.110266222961741
2.952128987171167,4.110266222961741
2.9531273398891824,8.11026622296174
2.9541256926071977,9.11026622296174
2.955124045325213,4.110266222961741
2.9561223980432283,6.110266222961741
2.9571207507612436,6.110266222961741
2.958119103479259,5.110266222961741
2.959117456197274,-2.889733777038259
2.9601158089152895,1.1102662229617408
2.9611141616333048,-1.8897337770382592
2.96211251435132,-6.889733777038259
2.9631108670693354,-9.88973377703826
2.9641092197873506,-10.88973377703826
2.965107572505366,-3.889733777038259
2.9661059252233812,-5.889733777038259
2.9671042779413965,-5.889733777038259
2.968102630659412,0.11026622296174082
2.969100983377427,-1.8897337770382592
2.9700993360954424,5.110266222961741
2.9710976888134577,3.110266222961741
2.972096041531473,2.110266222961741
2.9730943942494883,11.11026622296174
2.9740927469675036,7.110266222961741
2.9750910996855184,6.110266222961741
2.9760894524035337,4.110266222961741
2.977087805121549,5.110266222961741
2.9780861578395643,3.110266222961741
2.9790845105575796,-2.889733777038259
2.980082863275595,0.11026622296174082
2.98108121599361,0.11026622296174082
2.9820795687116255,-0.8897337770382592
2.983077921429641,-2.889733777038259
2.984076274147656,-10.88973377703826
2.9850746268656714,-4.889733777038259
2.9860729795836867,-7.889733777038259
2.987071332301702,-7.889733777038259
2.9880696850197173,-2.889733777038259
2.9890680377377326,0.11026622296174082
2.990066390455748,6.110266222961741
2.991064743173763,-0.8897337770382592
2.9920630958917784,1.1102662229617408
2.9930614486097937,9.11026622296174
2.994059801327809,9.11026622296174
2.9950581540458243,5.110266222961741
2.9960565067638396,5.110266222961741
2.997054859481855,5.110266222961741
2.9980532121998698,3.110266222961741
2.999051564917885,-1.8897337770382592
3.0000499176359003,-1.8897337770382592
3.0010482703539156,-1.8897337770382592
3.002046623071931,-1.8897337770382592
3.0030449757899462,-6.889733777038259
3.0040433285079615,-9.88973377703826
3.005041681225977,-4.889733777038259
3.006040033943992,-6.889733777038259
3.0070383866620074,-4.889733777038259
3.0080367393800227,-1.8897337770382592
3.009035092098038,0.11026622296174082
3.0100334448160533,5.110266222961741
3.0110317975340686,4.110266222961741
3.012030150252084,4.110266222961741
3.013028502970099,9.11026622296174
3.0140268556881145,5.110266222961741
3.0150252084061298,6.110266222961741
3.016023561124145,4.110266222961741
3.0170219138421603,3.110266222961741
3.0180202665601756,1.1102662229617408
3.019018619278191,-1.8897337770382592
3.0200169719962062,-1.8897337770382592
3.021015324714221,-0.8897337770382592
3.0220136774322364,-2.889733777038259
3.0230120301502517,-7.889733777038259
3.024010382868267,-10.88973377703826
3.0250087355862822,-4.889733777038259
3.0260070883042975,-6.889733777038259
3.027005441022313,-3.889733777038259
3.028003793740328,-1.8897337770382592
3.0290021464583434,-0.8897337770382592
3.0300004991763587,4.110266222961741
3.030998851894374,1.1102662229617408
3.0319972046123893,3.110266222961741
3.0329955573304046,10.11026622296174
3.03399391004842,7.110266222961741
3.034992262766435,7.110266222961741
3.0359906154844505,4.110266222961741
3.0369889682024658,5.110266222961741
3.037987320920481,5.110266222961741
3.0389856736384964,-1.8897337770382592
3.0399840263565117,-1.8897337770382592
3.040982379074527,-1.8897337770382592
3.0419807317925422,-1.8897337770382592
3.0429790845105575,-3.889733777038259
3.0439774372285724,-10.88973377703826
3.0449757899465877,-4.889733777038259
3.045974142664603,-8.88973377703826
3.0469724953826183,-7.889733777038259
3.0479708481006336,0.11026622296174082
3.048969200818649,-1.8897337770382592
3.049967553536664,3.110266222961741
3.0509659062546794,2.110266222961741
3.0519642589726947,5.110266222961741
3.05296261169071,8.11026622296174
3.0539609644087253,8.11026622296174
3.0549593171267406,8.11026622296174
3.055957669844756,5.110266222961741
3.056956022562771,4.110266222961741
3.0579543752807865,5.110266222961741
3.058952727998802,-1.8897337770382592
3.059951080716817,-1.8897337770382592
3.0609494334348324,-1.8897337770382592
3.0619477861528477,-5.889733777038259
3.062946138870863,-7.889733777038259
3.0639444915888783,-9.88973377703826
3.0649428443068936,-8.88973377703826
3.065941197024909,-6.889733777038259
3.0669395497429237,-5.889733777038259
3.067937902460939,-2.889733777038259
3.0689362551789543,3.110266222961741
3.0699346078969696,1.1102662229617408
3.070932960614985,2.110266222961741
3.071931313333,5.110266222961741
3.0729296660510155,11.11026622296174
3.0739280187690308,9.11026622296174
3.074926371487046,9.11026622296174
3.0759247242050614,4.110266222961741
3.0769230769230766,4.110266222961741
3.077921429641092,3.110266222961741
3.0789197823591072,-1.8897337770382592
3.0799181350771225,-0.8897337770382592
3.080916487795138,-2.889733777038259
3.081914840513153,-3.889733777038259
3.0829131932311684,-5.889733777038259
3.0839115459491837,-8.88973377703826
3.084909898667199,-7.889733777038259
3.0859082513852143,-6.889733777038259
3.0869066041032296,-4.889733777038259
3.087904956821245,0.11026622296174082
3.08890330953926,1.1102662229617408
3.0899016622572755,2.110266222961741
3.0909000149752903,0.11026622296174082
3.0918983676933056,5.110266222961741
3.092896720411321,10.11026622296174
3.093895073129336,8.11026622296174
3.0948934258473515,6.110266222961741
3.095891778565367,6.110266222961741
3.096890131283382,5.110266222961741
3.0978884840013974,4.110266222961741
3.0988868367194127,-1.8897337770382592
3.099885189437428,-3.889733777038259
3.1008835421554433,-1.8897337770382592
3.1018818948734586,-2.889733777038259
3.102880247591474,-3.889733777038259
3.103878600309489,-10.88973377703826
3.1048769530275044,-5.889733777038259
3.1058753057455197,-7.889733777038259
3.106873658463535,-3.889733777038259
3.1078720111815503,-0.8897337770382592
3.1088703638995656,-1.8897337770382592
3.109868716617581,5.110266222961741
3.110867069335596,1.1102662229617408
3.1118654220536115,2.110266222961741
3.112863774771627,7.110266222961741
3.1138621274896416,8.11026622296174
3.114860480207657,8.11026622296174
3.1158588329256722,3.110266222961741
3.1168571856436875,5.110266222961741
3.117855538361703,4.110266222961741
3.118853891079718,0.11026622296174082
3.1198522437977334,0.11026622296174082
3.1208505965157487,-1.8897337770382592
3.121848949233764,-2.889733777038259
3.1228473019517793,-4.889733777038259
3.1238456546697946,-11.88973377703826
3.12484400738781,-6.889733777038259
3.125842360105825,-6.889733777038259
3.1268407128238405,-6.889733777038259
3.1278390655418558,-1.8897337770382592
3.128837418259871,-1.8897337770382592
3.1298357709778863,5.110266222961741
3.1308341236959016,3.110266222961741
3.131832476413917,3.110266222961741
3.1328308291319322,8.11026622296174
3.1338291818499475,9.11026622296174
3.134827534567963,9.11026622296174
3.135825887285978,3.110266222961741
3.136824240003993,3.110266222961741
3.1378225927220083,3.110266222961741
3.1388209454400235,-1.8897337770382592
3.139819298158039,0.11026622296174082
3.140817650876054,-0.8897337770382592
3.1418160035940694,-4.889733777038259
3.1428143563120847,-6.889733777038259
3.1438127090301,-9.88973377703826
3.1448110617481153,-9.88973377703826
3.1458094144661306,-4.889733777038259
3.146807767184146,-4.889733777038259
3.147806119902161,-0.8897337770382592
3.1488044726201765,1.1102662229617408
3.149802825338192,3.110266222961741
3.150801178056207,2.110266222961741
3.1517995307742224,4.110266222961741
3.1527978834922377,6.110266222961741
3.153796236210253,5.110266222961741
3.1547945889282683,7.110266222961741
3.1557929416462835,4.110266222961741
3.156791294364299,4.110266222961741
3.157789647082314,5.110266222961741
3.1587879998003294,-2.889733777038259
3.1597863525183443,-0.8897337770382592
3.1607847052363596,-2.889733777038259
3.161783057954375,-2.889733777038259
3.16278141067239,-4.889733777038259
3.1637797633904055,-10.88973377703826
3.1647781161084207,-4.889733777038259
3.165776468826436,-6.889733777038259
3.1667748215444513,-5.889733777038259
3.1677731742624666,-1.8897337770382592
3.168771526980482,1.1102662229617408
3.169769879698497,1.1102662229617408
3.1707682324165125,0.11026622296174082
3.171766585134528,4.110266222961741
3.172764937852543,7.110266222961741
3.1737632905705584,6.110266222961741
3.1747616432885737,5.110266222961741
3.175759996006589,5.110266222961741
3.1767583487246043,3.110266222961741
3.1777567014426196,1.1102662229617408
3.178755054160635,-0.8897337770382592
3.17975340687865,4.110266222961741
3.1807517595966655,-1.8897337770382592
3.1817501123146807,-1.8897337770382592
3.1827484650326956,-7.889733777038259
3.183746817750711,-12.88973377703826
3.184745170468726,-8.88973377703826
3.1857435231867415,-7.889733777038259
3.1867418759047568,-2.889733777038259
3.187740228622772,0.11026622296174082
3.1887385813407874,1.1102662229617408
3.1897369340588027,4.110266222961741
3.190735286776818,4.110266222961741
3.1917336394948332,3.110266222961741
3.1927319922128485,8.11026622296174
3.193730344930864,6.110266222961741
3.194728697648879,5.110266222961741
