Time,EMG
0.0,2.0069767441860336
0.000996710854181202,4.006976744186034
0.001993421708362404,5.006976744186034
0.002990132562543606,6.006976744186034
0.003986843416724808,8.006976744186034
0.00498355427090601,9.006976744186034
0.005980265125087212,7.006976744186034
0.006976975979268414,11.006976744186034
0.007973686833449616,3.0069767441860336
0.008970397687630818,1.0069767441860336
0.00996710854181202,0.006976744186033557
0.01096381939599322,-3.9930232558139664
0.011960530250174423,-4.993023255813966
0.012957241104355626,-7.993023255813966
0.013953951958536827,-9.993023255813966
0.014950662812718028,-9.993023255813966
0.01594737366689923,-9.993023255813966
0.016944084521080434,-6.993023255813966
0.017940795375261637,-2.9930232558139664
0.018937506229442836,-2.9930232558139664
0.01993421708362404,1.0069767441860336
0.02093092793780524,3.0069767441860336
0.02192763879198644,6.006976744186034
0.022924349646167644,6.006976744186034
0.023921060500348847,8.006976744186034
0.02491777135453005,6.006976744186034
0.025914482208711252,8.006976744186034
0.02691119306289245,6.006976744186034
0.027907903917073654,5.006976744186034
0.028904614771254857,2.0069767441860336
0.029901325625436057,-0.9930232558139664
0.03089803647961726,-1.9930232558139664
0.03189474733379846,-5.993023255813966
0.032891458187979665,-7.993023255813966
0.03388816904216087,-10.993023255813966
0.03488487989634207,-6.993023255813966
0.03588159075052327,-8.993023255813966
0.03687830160470447,-5.993023255813966
0.03787501245888567,-0.9930232558139664
0.038871723313066875,0.006976744186033557
0.03986843416724808,2.0069767441860336
0.04086514502142928,3.0069767441860336
0.04186185587561048,7.006976744186034
0.042858566729791686,7.006976744186034
0.04385527758397288,5.006976744186034
0.044851988438154085,8.006976744186034
0.04584869929233529,8.006976744186034
0.04684541014651649,5.006976744186034
0.04784212100069769,4.006976744186034
0.048838831854878896,3.0069767441860336
0.0498355427090601,-0.9930232558139664
0.0508322535632413,-2.9930232558139664
0.051828964417422504,-4.993023255813966
0.0528256752716037,-6.993023255813966
0.0538223861257849,-10.993023255813966
0.054819096979966106,-10.993023255813966
0.05581580783414731,-10.993023255813966
0.05681251868832851,-6.993023255813966
0.057809229542509714,-3.9930232558139664
0.05880594039669092,-0.9930232558139664
0.05980265125087211,4.006976744186034
0.060799362105053316,6.006976744186034
0.06179607295923452,6.006976744186034
0.06279278381341573,9.006976744186034
0.06378949466759692,9.006976744186034
0.06478620552177812,8.006976744186034
0.06578291637595933,7.006976744186034
0.06677962723014053,8.006976744186034
0.06777633808432174,6.006976744186034
0.06877304893850293,3.0069767441860336
0.06976975979268414,-1.9930232558139664
0.07076647064686534,-4.993023255813966
0.07176318150104655,-4.993023255813966
0.07275989235522774,-7.993023255813966
0.07375660320940894,-9.993023255813966
0.07475331406359015,-7.993023255813966
0.07575002491777134,-7.993023255813966
0.07674673577195255,-7.993023255813966
0.07774344662613375,-1.9930232558139664
0.07874015748031496,-1.9930232558139664
0.07973686833449616,2.0069767441860336
0.08073357918867735,1.0069767441860336
0.08173029004285856,6.006976744186034
0.08272700089703976,8.006976744186034
0.08372371175122097,8.006976744186034
0.08472042260540216,9.006976744186034
0.08571713345958337,9.006976744186034
0.08671384431376457,5.006976744186034
0.08771055516794576,4.006976744186034
0.08870726602212697,1.0069767441860336
0.08970397687630817,-1.9930232558139664
0.09070068773048938,-1.9930232558139664
0.09169739858467058,-4.993023255813966
0.09269410943885178,-9.993023255813966
0.09369082029303298,-10.993023255813966
0.09468753114721419,-9.993023255813966
0.09568424200139539,-9.993023255813966
0.09668095285557658,-4.993023255813966
0.09767766370975779,-2.9930232558139664
0.09867437456393899,0.006976744186033557
0.0996710854181202,2.0069767441860336
0.1006677962723014,5.006976744186034
0.1016645071264826,6.006976744186034
0.1026612179806638,8.006976744186034
0.10365792883484501,8.006976744186034
0.1046546396890262,10.006976744186034
0.1056513505432074,9.006976744186034
0.10664806139738861,8.006976744186034
0.1076447722515698,6.006976744186034
0.10864148310575102,1.0069767441860336
0.10963819395993221,-0.9930232558139664
0.11063490481411342,-4.993023255813966
0.11163161566829462,-3.9930232558139664
0.11262832652247581,-8.993023255813966
0.11362503737665702,-9.993023255813966
0.11462174823083822,-7.993023255813966
0.11561845908501943,-9.993023255813966
0.11661516993920062,-2.9930232558139664
0.11761188079338183,-3.9930232558139664
0.11860859164756303,-1.9930232558139664
0.11960530250174423,0.006976744186033557
0.12060201335592544,4.006976744186034
0.12159872421010663,3.0069767441860336
0.12259543506428784,7.006976744186034
0.12359214591846904,9.006976744186034
0.12458885677265025,8.006976744186034
0.12558556762683146,9.006976744186034
0.12658227848101264,7.006976744186034
0.12757898933519385,6.006976744186034
0.12857570018937506,2.0069767441860336
0.12957241104355624,-0.9930232558139664
0.13056912189773745,-3.9930232558139664
0.13156583275191866,-6.993023255813966
0.13256254360609987,-6.993023255813966
0.13355925446028105,-8.993023255813966
0.13455596531446226,-9.993023255813966
0.13555267616864347,-8.993023255813966
0.13654938702282465,-5.993023255813966
0.13754609787700586,-2.9930232558139664
0.13854280873118707,-0.9930232558139664
0.13953951958536828,1.0069767441860336
0.14053623043954946,4.006976744186034
0.14153294129373067,6.006976744186034
0.14252965214791188,7.006976744186034
0.1435263630020931,8.006976744186034
0.14452307385627428,10.006976744186034
0.14551978471045549,11.006976744186034
0.1465164955646367,8.006976744186034
0.14751320641881788,4.006976744186034
0.1485099172729991,1.0069767441860336
0.1495066281271803,0.006976744186033557
0.1505033389813615,-3.9930232558139664
0.1515000498355427,-6.993023255813966
0.1524967606897239,-7.993023255813966
0.1534934715439051,-9.993023255813966
0.1544901823980863,-8.993023255813966
0.1554868932522675,-9.993023255813966
0.1564836041064487,-7.993023255813966
0.15748031496062992,0.006976744186033557
0.1584770258148111,0.006976744186033557
0.1594737366689923,3.0069767441860336
0.16047044752317352,3.0069767441860336
0.1614671583773547,4.006976744186034
0.1624638692315359,5.006976744186034
0.16346058008571712,6.006976744186034
0.16445729093989833,9.006976744186034
0.1654540017940795,9.006976744186034
0.16645071264826072,6.006976744186034
0.16744742350244193,4.006976744186034
0.16844413435662312,-1.9930232558139664
0.16944084521080433,1.0069767441860336
0.17043755606498553,-2.9930232558139664
0.17143426691916674,-4.993023255813966
0.17243097777334793,-9.993023255813966
0.17342768862752914,-9.993023255813966
0.17442439948171035,-8.993023255813966
0.17542111033589153,-8.993023255813966
0.17641782119007274,-5.993023255813966
0.17741453204425395,-3.9930232558139664
0.17841124289843516,-0.9930232558139664
0.17940795375261634,3.0069767441860336
0.18040466460679755,4.006976744186034
0.18140137546097876,4.006976744186034
0.18239808631515997,9.006976744186034
0.18339479716934115,10.006976744186034
0.18439150802352236,8.006976744186034
0.18538821887770357,7.006976744186034
0.18638492973188475,6.006976744186034
0.18738164058606596,6.006976744186034
0.18837835144024717,1.0069767441860336
0.18937506229442838,-2.9930232558139664
0.19037177314860956,-3.9930232558139664
0.19136848400279077,-4.993023255813966
0.19236519485697198,-8.993023255813966
0.19336190571115316,-11.993023255813966
0.19435861656533437,-6.993023255813966
0.19535532741951558,-9.993023255813966
0.1963520382736968,-3.9930232558139664
0.19734874912787798,-3.9930232558139664
0.19834545998205919,-1.9930232558139664
0.1993421708362404,2.0069767441860336
0.20033888169042158,6.006976744186034
0.2013355925446028,7.006976744186034
0.202332303398784,8.006976744186034
0.2033290142529652,7.006976744186034
0.2043257251071464,10.006976744186034
0.2053224359613276,5.006976744186034
0.2063191468155088,5.006976744186034
0.20731585766969002,7.006976744186034
0.2083125685238712,2.0069767441860336
0.2093092793780524,-0.9930232558139664
0.21030599023223362,-2.9930232558139664
0.2113027010864148,-4.993023255813966
0.212299411940596,-6.993023255813966
0.21329612279477722,-7.993023255813966
0.21429283364895843,-9.993023255813966
0.2152895445031396,-8.993023255813966
0.21628625535732082,-6.993023255813966
0.21728296621150203,-1.9930232558139664
0.21827967706568321,-0.9930232558139664
0.21927638791986442,3.0069767441860336
0.22027309877404563,2.0069767441860336
0.22126980962822684,6.006976744186034
0.22226652048240803,8.006976744186034
0.22326323133658924,8.006976744186034
0.22425994219077044,7.006976744186034
0.22525665304495163,7.006976744186034
0.22625336389913284,5.006976744186034
0.22725007475331405,7.006976744186034
0.22824678560749526,1.0069767441860336
0.22924349646167644,-1.9930232558139664
0.23024020731585765,-1.9930232558139664
0.23123691817003886,-2.9930232558139664
0.23223362902422004,-9.993023255813966
0.23323033987840125,-9.993023255813966
0.23422705073258246,-7.993023255813966
0.23522376158676367,-10.993023255813966
0.23622047244094485,-7.993023255813966
0.23721718329512606,-3.9930232558139664
0.23821389414930727,1.0069767441860336
0.23921060500348845,1.0069767441860336
0.24020731585766966,4.006976744186034
0.24120402671185087,6.006976744186034
0.24220073756603208,7.006976744186034
0.24319744842021326,7.006976744186034
0.24419415927439447,9.006976744186034
0.24519087012857568,8.006976744186034
0.2461875809827569,6.006976744186034
0.24718429183693807,6.006976744186034
0.24818100269111928,0.006976744186033557
0.2491777135453005,-2.9930232558139664
0.2501744243994817,-1.9930232558139664
0.2511711352536629,-4.993023255813966
0.2521678461078441,-10.993023255813966
0.2531645569620253,-8.993023255813966
0.2541612678162065,-9.993023255813966
0.2551579786703877,-9.993023255813966
0.2561546895245689,-6.993023255813966
0.2571514003787501,-3.9930232558139664
0.2581481112329313,-0.9930232558139664
0.2591448220871125,4.006976744186034
0.2601415329412937,5.006976744186034
0.2611382437954749,3.0069767441860336
0.26213495464965614,7.006976744186034
0.2631316655038373,8.006976744186034
0.2641283763580185,9.006976744186034
0.26512508721219974,7.006976744186034
0.2661217980663809,8.006976744186034
0.2671185089205621,5.006976744186034
0.26811521977474334,1.0069767441860336
0.2691119306289245,-1.9930232558139664
0.2701086414831057,-4.993023255813966
0.27110535233728694,-2.9930232558139664
0.2721020631914681,-7.993023255813966
0.2730987740456493,-9.993023255813966
0.27409548489983054,-7.993023255813966
0.2750921957540117,-7.993023255813966
0.27608890660819296,-6.993023255813966
0.27708561746237415,-3.9930232558139664
0.2780823283165553,-2.9930232558139664
0.27907903917073656,1.0069767441860336
0.28007575002491775,5.006976744186034
0.28107246087909893,6.006976744186034
0.28206917173328017,10.006976744186034
0.28306588258746135,9.006976744186034
0.28406259344164253,11.006976744186034
0.28505930429582377,8.006976744186034
0.28605601515000495,6.006976744186034
0.2870527260041862,5.006976744186034
0.28804943685836737,2.0069767441860336
0.28904614771254855,-1.9930232558139664
0.2900428585667298,-3.9930232558139664
0.29103956942091097,-4.993023255813966
0.29203628027509215,-7.993023255813966
0.2930329911292734,-10.993023255813966
0.29402970198345457,-7.993023255813966
0.29502641283763575,-10.993023255813966
0.296023123691817,-5.993023255813966
0.2970198345459982,-2.9930232558139664
0.29801654540017936,-0.9930232558139664
0.2990132562543606,2.0069767441860336
0.3000099671085418,4.006976744186034
0.301006677962723,6.006976744186034
0.3020033888169042,11.006976744186034
0.3030000996710854,11.006976744186034
0.3039968105252666,8.006976744186034
0.3049935213794478,9.006976744186034
0.305990232233629,6.006976744186034
0.3069869430878102,6.006976744186034
0.3079836539419914,1.0069767441860336
0.3089803647961726,-2.9930232558139664
0.3099770756503538,-3.9930232558139664
0.310973786504535,-4.993023255813966
0.3119704973587162,-7.993023255813966
0.3129672082128974,-11.993023255813966
0.3139639190670786,-9.993023255813966
0.31496062992125984,-9.993023255813966
0.315957340775441,-5.993023255813966
0.3169540516296222,-3.9930232558139664
0.31795076248380344,-2.9930232558139664
0.3189474733379846,4.006976744186034
0.3199441841921658,2.0069767441860336
0.32094089504634704,5.006976744186034
0.3219376059005282,8.006976744186034
0.3229343167547094,8.006976744186034
0.32393102760889064,8.006976744186034
0.3249277384630718,10.006976744186034
0.32592444931725306,6.006976744186034
0.32692116017143424,8.006976744186034
0.3279178710256154,3.0069767441860336
0.32891458187979666,-2.9930232558139664
0.32991129273397785,-3.9930232558139664
0.330908003588159,-6.993023255813966
0.33190471444234027,-7.993023255813966
0.33290142529652145,-9.993023255813966
0.33389813615070263,-10.993023255813966
0.33489484700488387,-8.993023255813966
0.33589155785906505,-4.993023255813966
0.33688826871324623,-3.9930232558139664
0.33788497956742747,-1.9930232558139664
0.33888169042160865,3.0069767441860336
0.3398784012757899,4.006976744186034
0.34087511212997107,6.006976744186034
0.34187182298415225,9.006976744186034
0.3428685338383335,10.006976744186034
0.34386524469251467,9.006976744186034
0.34486195554669585,7.006976744186034
0.3458586664008771,5.006976744186034
0.3468553772550583,8.006976744186034
0.34785208810923945,2.0069767441860336
0.3488487989634207,-0.9930232558139664
0.3498455098176019,-3.9930232558139664
0.35084222067178306,-6.993023255813966
0.3518389315259643,-3.9930232558139664
0.3528356423801455,-11.993023255813966
0.3538323532343267,-9.993023255813966
0.3548290640885079,-8.993023255813966
0.3558257749426891,-4.993023255813966
0.3568224857968703,-2.9930232558139664
0.3578191966510515,-0.9930232558139664
0.3588159075052327,1.0069767441860336
0.3598126183594139,5.006976744186034
0.3608093292135951,3.0069767441860336
0.3618060400677763,9.006976744186034
0.3628027509219575,11.006976744186034
0.3637994617761387,10.006976744186034
0.36479617263031994,7.006976744186034
0.3657928834845011,6.006976744186034
0.3667895943386823,5.006976744186034
0.36778630519286354,1.0069767441860336
0.3687830160470447,-0.9930232558139664
0.3697797269012259,-3.9930232558139664
0.37077643775540714,-5.993023255813966
0.3717731486095883,-7.993023255813966
0.3727698594637695,-8.993023255813966
0.37376657031795074,-7.993023255813966
0.3747632811721319,-6.993023255813966
0.3757599920263131,-6.993023255813966
0.37675670288049434,-2.9930232558139664
0.3777534137346755,-1.9930232558139664
0.37875012458885676,1.0069767441860336
0.37974683544303794,2.0069767441860336
0.3807435462972191,6.006976744186034
0.38174025715140036,5.006976744186034
0.38273696800558155,10.006976744186034
0.38373367885976273,7.006976744186034
0.38473038971394397,9.006976744186034
0.38572710056812515,8.006976744186034
0.38672381142230633,4.006976744186034
0.38772052227648757,3.0069767441860336
0.38871723313066875,-2.9930232558139664
0.38971394398485,-4.993023255813966
0.39071065483903117,-5.993023255813966
0.39170736569321235,-10.993023255813966
0.3927040765473936,-10.993023255813966
0.39370078740157477,-7.993023255813966
0.39469749825575595,-8.993023255813966
0.3956942091099372,-5.993023255813966
0.39669091996411837,-3.9930232558139664
0.39768763081829955,2.0069767441860336
0.3986843416724808,3.0069767441860336
0.399681052526662,5.006976744186034
0.40067776338084315,5.006976744186034
0.4016744742350244,8.006976744186034
0.4026711850892056,4.006976744186034
0.4036678959433868,6.006976744186034
0.404664606797568,8.006976744186034
0.4056613176517492,7.006976744186034
0.4066580285059304,4.006976744186034
0.4076547393601116,0.006976744186033557
0.4086514502142928,-2.9930232558139664
0.409648161068474,-3.9930232558139664
0.4106448719226552,-7.993023255813966
0.4116415827768364,-5.993023255813966
0.4126382936310176,-7.993023255813966
0.4136350044851988,-8.993023255813966
0.41463171533938004,-7.993023255813966
0.4156284261935612,-5.993023255813966
0.4166251370477424,-1.9930232558139664
0.41762184790192364,-2.9930232558139664
0.4186185587561048,2.0069767441860336
0.419615269610286,4.006976744186034
0.42061198046446724,4.006976744186034
0.4216086913186484,7.006976744186034
0.4226054021728296,7.006976744186034
0.42360211302701084,8.006976744186034
0.424598823881192,9.006976744186034
0.4255955347353732,6.006976744186034
0.42659224558955444,6.006976744186034
0.4275889564437356,1.0069767441860336
0.42858566729791686,-1.9930232558139664
0.42958237815209804,-1.9930232558139664
0.4305790890062792,-3.9930232558139664
0.43157579986046046,-9.993023255813966
0.43257251071464164,-9.993023255813966
0.4335692215688228,-10.993023255813966
0.43456593242300406,-9.993023255813966
0.43556264327718525,-2.9930232558139664
0.43655935413136643,-2.9930232558139664
0.43755606498554767,-2.9930232558139664
0.43855277583972885,-0.9930232558139664
0.43954948669391003,3.0069767441860336
0.44054619754809127,5.006976744186034
0.44154290840227245,8.006976744186034
0.4425396192564537,8.006976744186034
0.44353633011063487,8.006976744186034
0.44453304096481605,7.006976744186034
0.4455297518189973,6.006976744186034
0.44652646267317847,6.006976744186034
0.44752317352735965,4.006976744186034
0.4485198843815409,1.0069767441860336
0.44951659523572207,-4.993023255813966
0.45051330608990325,-4.993023255813966
0.4515100169440845,-7.993023255813966
0.4525067277982657,-10.993023255813966
0.4535034386524469,-10.993023255813966
0.4545001495066281,-7.993023255813966
0.4554968603608093,-7.993023255813966
0.4564935712149905,-2.9930232558139664
0.4574902820691717,-1.9930232558139664
0.4584869929233529,2.0069767441860336
0.4594837037775341,4.006976744186034
0.4604804146317153,4.006976744186034
0.4614771254858965,9.006976744186034
0.4624738363400777,9.006976744186034
0.4634705471942589,9.006976744186034
0.4644672580484401,8.006976744186034
0.4654639689026213,7.006976744186034
0.4664606797568025,7.006976744186034
0.46745739061098374,0.006976744186033557
0.4684541014651649,-2.9930232558139664
0.4694508123193461,-4.993023255813966
0.47044752317352734,-7.993023255813966
0.4714442340277085,-9.993023255813966
0.4724409448818897,-9.993023255813966
0.47343765573607094,-9.993023255813966
0.4744343665902521,-7.993023255813966
0.4754310774444333,-6.993023255813966
0.47642778829861454,-2.9930232558139664
0.4774244991527957,-2.9930232558139664
0.4784212100069769,3.0069767441860336
0.47941792086115814,4.006976744186034
0.4804146317153393,4.006976744186034
0.48141134256952056,7.006976744186034
0.48240805342370174,7.006976744186034
0.4834047642778829,8.006976744186034
0.48440147513206416,9.006976744186034
0.48539818598624535,6.006976744186034
0.4863948968404265,4.006976744186034
0.48739160769460776,5.006976744186034
0.48838831854878895,-1.9930232558139664
0.48938502940297013,-2.9930232558139664
0.49038174025715137,-5.993023255813966
0.49137845111133255,-5.993023255813966
0.4923751619655138,-8.993023255813966
0.49337187281969497,-7.993023255813966
0.49436858367387615,-10.993023255813966
0.4953652945280574,-7.993023255813966
0.49636200538223857,-2.9930232558139664
0.49735871623641975,0.006976744186033557
0.498355427090601,3.0069767441860336
0.49935213794478217,3.0069767441860336
0.5003488487989634,5.006976744186034
0.5013455596531445,9.006976744186034
0.5023422705073258,9.006976744186034
0.503338981361507,7.006976744186034
0.5043356922156882,8.006976744186034
0.5053324030698694,7.006976744186034
0.5063291139240506,7.006976744186034
0.5073258247782317,1.0069767441860336
0.508322535632413,-2.9930232558139664
0.5093192464865942,-3.9930232558139664
0.5103159573407754,-5.993023255813966
0.5113126681949566,-8.993023255813966
0.5123093790491378,-9.993023255813966
0.513306089903319,-10.993023255813966
0.5143028007575002,-9.993023255813966
0.5152995116116814,-6.993023255813966
0.5162962224658626,-2.9930232558139664
0.5172929333200438,0.006976744186033557
0.518289644174225,1.0069767441860336
0.5192863550284063,1.0069767441860336
0.5202830658825874,5.006976744186034
0.5212797767367686,8.006976744186034
0.5222764875909498,8.006976744186034
0.523273198445131,8.006976744186034
0.5242699092993123,7.006976744186034
0.5252666201534935,5.006976744186034
0.5262633310076746,4.006976744186034
0.5272600418618558,1.0069767441860336
0.528256752716037,-0.9930232558139664
0.5292534635702182,-0.9930232558139664
0.5302501744243995,-4.993023255813966
0.5312468852785807,-8.993023255813966
0.5322435961327618,-9.993023255813966
0.533240306986943,-8.993023255813966
0.5342370178411242,-9.993023255813966
0.5352337286953054,-5.993023255813966
0.5362304395494867,-3.9930232558139664
0.5372271504036679,0.006976744186033557
0.538223861257849,3.0069767441860336
0.5392205721120302,4.006976744186034
0.5402172829662114,6.006976744186034
0.5412139938203927,9.006976744186034
0.5422107046745739,8.006976744186034
0.5432074155287551,8.006976744186034
0.5442041263829362,8.006976744186034
0.5452008372371174,6.006976744186034
0.5461975480912986,5.006976744186034
0.5471942589454799,2.0069767441860336
0.5481909697996611,0.006976744186033557
0.5491876806538423,-2.9930232558139664
0.5501843915080235,-4.993023255813966
0.5511811023622046,-6.993023255813966
0.5521778132163859,-10.993023255813966
0.5531745240705671,-11.993023255813966
0.5541712349247483,-10.993023255813966
0.5551679457789295,-4.993023255813966
0.5561646566331107,-2.9930232558139664
0.5571613674872918,-0.9930232558139664
0.5581580783414731,2.0069767441860336
0.5591547891956543,3.0069767441860336
0.5601515000498355,6.006976744186034
0.5611482109040167,9.006976744186034
0.5621449217581979,8.006976744186034
0.5631416326123792,8.006976744186034
0.5641383434665603,10.006976744186034
0.5651350543207415,6.006976744186034
0.5661317651749227,5.006976744186034
0.5671284760291039,2.0069767441860336
0.5681251868832851,-1.9930232558139664
0.5691218977374664,-4.993023255813966
0.5701186085916475,-6.993023255813966
0.5711153194458287,-6.993023255813966
0.5721120303000099,-8.993023255813966
0.5731087411541911,-7.993023255813966
0.5741054520083724,-10.993023255813966
0.5751021628625536,-4.993023255813966
0.5760988737167347,-3.9930232558139664
0.5770955845709159,1.0069767441860336
0.5780922954250971,3.0069767441860336
0.5790890062792783,4.006976744186034
0.5800857171334596,3.0069767441860336
0.5810824279876408,7.006976744186034
0.5820791388418219,7.006976744186034
0.5830758496960031,6.006976744186034
0.5840725605501843,8.006976744186034
0.5850692714043655,8.006976744186034
0.5860659822585468,6.006976744186034
0.587062693112728,2.0069767441860336
0.5880594039669091,-1.9930232558139664
0.5890561148210903,-2.9930232558139664
0.5900528256752715,-5.993023255813966
0.5910495365294528,-5.993023255813966
0.592046247383634,-9.993023255813966
0.5930429582378152,-12.993023255813966
0.5940396690919963,-10.993023255813966
0.5950363799461775,-5.993023255813966
0.5960330908003587,-4.993023255813966
0.59702980165454,-2.9930232558139664
0.5980265125087212,4.006976744186034
0.5990232233629024,2.0069767441860336
0.6000199342170836,7.006976744186034
0.6010166450712647,9.006976744186034
0.602013355925446,8.006976744186034
0.6030100667796272,9.006976744186034
0.6040067776338084,8.006976744186034
0.6050034884879896,7.006976744186034
0.6060001993421708,5.006976744186034
0.6069969101963519,0.006976744186033557
0.6079936210505332,-0.9930232558139664
0.6089903319047144,-1.9930232558139664
0.6099870427588956,-5.993023255813966
0.6109837536130768,-10.993023255813966
0.611980464467258,-8.993023255813966
0.6129771753214392,-10.993023255813966
0.6139738861756204,-10.993023255813966
0.6149705970298016,-6.993023255813966
0.6159673078839828,-1.9930232558139664
0.616964018738164,-2.9930232558139664
0.6179607295923452,2.0069767441860336
0.6189574404465265,5.006976744186034
0.6199541513007076,4.006976744186034
0.6209508621548888,7.006976744186034
0.62194757300907,8.006976744186034
0.6229442838632512,9.006976744186034
0.6239409947174324,9.006976744186034
0.6249377055716137,6.006976744186034
0.6259344164257948,4.006976744186034
0.626931127279976,0.006976744186033557
0.6279278381341572,-0.9930232558139664
0.6289245489883384,-3.9930232558139664
0.6299212598425197,-4.993023255813966
0.6309179706967009,-6.993023255813966
0.631914681550882,-7.993023255813966
0.6329113924050632,-8.993023255813966
0.6339081032592444,-10.993023255813966
0.6349048141134256,-4.993023255813966
0.6359015249676069,-3.9930232558139664
0.6368982358217881,1.0069767441860336
0.6378949466759692,3.0069767441860336
0.6388916575301504,3.0069767441860336
0.6398883683843316,6.006976744186034
0.6408850792385129,6.006976744186034
0.6418817900926941,6.006976744186034
0.6428785009468753,10.006976744186034
0.6438752118010564,7.006976744186034
0.6448719226552376,8.006976744186034
0.6458686335094188,5.006976744186034
0.6468653443636001,1.0069767441860336
0.6478620552177813,0.006976744186033557
0.6488587660719625,-2.9930232558139664
0.6498554769261436,-5.993023255813966
0.6508521877803248,-8.993023255813966
0.6518488986345061,-9.993023255813966
0.6528456094886873,-7.993023255813966
0.6538423203428685,-7.993023255813966
0.6548390311970497,-5.993023255813966
0.6558357420512309,0.006976744186033557
0.656832452905412,-2.9930232558139664
0.6578291637595933,2.0069767441860336
0.6588258746137745,3.0069767441860336
0.6598225854679557,5.006976744186034
0.6608192963221369,6.006976744186034
0.661816007176318,8.006976744186034
0.6628127180304992,9.006976744186034
0.6638094288846805,10.006976744186034
0.6648061397388617,5.006976744186034
0.6658028505930429,4.006976744186034
0.6667995614472241,2.0069767441860336
0.6677962723014053,-1.9930232558139664
0.6687929831555866,-2.9930232558139664
0.6697896940097677,-3.9930232558139664
0.6707864048639489,-7.993023255813966
0.6717831157181301,-11.993023255813966
0.6727798265723113,-9.993023255813966
0.6737765374264925,-10.993023255813966
0.6747732482806738,-6.993023255813966
0.6757699591348549,-1.9930232558139664
0.6767666699890361,-1.9930232558139664
0.6777633808432173,1.0069767441860336
0.6787600916973985,3.0069767441860336
0.6797568025515798,6.006976744186034
0.680753513405761,7.006976744186034
0.6817502242599421,8.006976744186034
0.6827469351141233,11.006976744186034
0.6837436459683045,9.006976744186034
0.6847403568224857,7.006976744186034
0.685737067676667,7.006976744186034
0.6867337785308482,1.0069767441860336
0.6877304893850293,-0.9930232558139664
0.6887272002392105,-2.9930232558139664
0.6897239110933917,-4.993023255813966
0.690720621947573,-8.993023255813966
0.6917173328017542,-11.993023255813966
0.6927140436559354,-9.993023255813966
0.6937107545101165,-9.993023255813966
0.6947074653642977,-6.993023255813966
0.6957041762184789,-2.9930232558139664
0.6967008870726602,-2.9930232558139664
0.6976975979268414,1.0069767441860336
0.6986943087810226,3.0069767441860336
0.6996910196352037,5.006976744186034
0.7006877304893849,8.006976744186034
0.7016844413435661,9.006976744186034
0.7026811521977474,6.006976744186034
0.7036778630519286,7.006976744186034
0.7046745739061098,7.006976744186034
0.705671284760291,6.006976744186034
0.7066679956144721,4.006976744186034
0.7076647064686534,-1.9930232558139664
0.7086614173228346,-3.9930232558139664
0.7096581281770158,-4.993023255813966
0.710654839031197,-7.993023255813966
0.7116515498853782,-9.993023255813966
0.7126482607395593,-8.993023255813966
0.7136449715937406,-9.993023255813966
0.7146416824479218,-5.993023255813966
0.715638393302103,-4.993023255813966
0.7166351041562842,-1.9930232558139664
0.7176318150104654,3.0069767441860336
0.7186285258646467,3.0069767441860336
0.7196252367188278,6.006976744186034
0.720621947573009,8.006976744186034
0.7216186584271902,9.006976744186034
0.7226153692813714,9.006976744186034
0.7236120801355526,9.006976744186034
0.7246087909897339,4.006976744186034
0.725605501843915,5.006976744186034
0.7266022126980962,3.0069767441860336
0.7275989235522774,-1.9930232558139664
0.7285956344064586,-2.9930232558139664
0.7295923452606399,-7.993023255813966
0.7305890561148211,-7.993023255813966
0.7315857669690022,-9.993023255813966
0.7325824778231834,-8.993023255813966
0.7335791886773646,-5.993023255813966
0.7345758995315458,-3.9930232558139664
0.7355726103857271,-1.9930232558139664
0.7365693212399083,-1.9930232558139664
0.7375660320940894,3.0069767441860336
0.7385627429482706,3.0069767441860336
0.7395594538024518,4.006976744186034
0.7405561646566331,9.006976744186034
0.7415528755108143,7.006976744186034
0.7425495863649955,7.006976744186034
0.7435462972191766,8.006976744186034
0.7445430080733578,8.006976744186034
0.745539718927539,5.006976744186034
0.7465364297817203,4.006976744186034
0.7475331406359015,-1.9930232558139664
0.7485298514900827,-2.9930232558139664
0.7495265623442638,-6.993023255813966
0.750523273198445,-9.993023255813966
0.7515199840526262,-9.993023255813966
0.7525166949068075,-7.993023255813966
0.7535134057609887,-10.993023255813966
0.7545101166151699,-6.993023255813966
0.755506827469351,-0.9930232558139664
0.7565035383235322,-1.9930232558139664
0.7575002491777135,3.0069767441860336
0.7584969600318947,4.006976744186034
0.7594936708860759,5.006976744186034
0.7604903817402571,7.006976744186034
0.7614870925944383,8.006976744186034
0.7624838034486194,9.006976744186034
0.7634805143028007,9.006976744186034
0.7644772251569819,8.006976744186034
0.7654739360111631,4.006976744186034
0.7664706468653443,1.0069767441860336
0.7674673577195255,-1.9930232558139664
0.7684640685737067,-3.9930232558139664
0.7694607794278879,-4.993023255813966
0.7704574902820691,-6.993023255813966
0.7714542011362503,-9.993023255813966
0.7724509119904315,-9.993023255813966
0.7734476228446127,-7.993023255813966
0.774444333698794,-3.9930232558139664
0.7754410445529751,-2.9930232558139664
0.7764377554071563,-0.9930232558139664
0.7774344662613375,1.0069767441860336
0.7784311771155187,1.0069767441860336
0.7794278879697,2.0069767441860336
0.7804245988238812,8.006976744186034
0.7814213096780623,8.006976744186034
0.7824180205322435,9.006976744186034
0.7834147313864247,8.006976744186034
0.7844114422406059,5.006976744186034
0.7854081530947872,7.006976744186034
0.7864048639489684,3.0069767441860336
0.7874015748031495,0.006976744186033557
0.7883982856573307,-4.993023255813966
0.7893949965115119,-5.993023255813966
0.7903917073656931,-8.993023255813966
0.7913884182198744,-8.993023255813966
0.7923851290740556,-9.993023255813966
0.7933818399282367,-7.993023255813966
0.7943785507824179,-5.993023255813966
0.7953752616365991,-0.9930232558139664
0.7963719724907804,-1.9930232558139664
0.7973686833449616,3.0069767441860336
0.7983653941991428,1.0069767441860336
0.799362105053324,3.0069767441860336
0.8003588159075051,8.006976744186034
0.8013555267616863,8.006976744186034
0.8023522376158676,9.006976744186034
0.8033489484700488,7.006976744186034
0.80434565932423,6.006976744186034
0.8053423701784111,7.006976744186034
0.8063390810325923,0.006976744186033557
0.8073357918867736,0.006976744186033557
0.8083325027409548,-3.9930232558139664
0.809329213595136,-6.993023255813966
0.8103259244493172,-6.993023255813966
0.8113226353034984,-9.993023255813966
0.8123193461576795,-7.993023255813966
0.8133160570118608,-9.993023255813966
0.814312767866042,-5.993023255813966
0.8153094787202232,-2.9930232558139664
0.8163061895744044,-2.9930232558139664
0.8173029004285856,2.0069767441860336
0.8182996112827668,3.0069767441860336
0.819296322136948,6.006976744186034
0.8202930329911292,9.006976744186034
0.8212897438453104,9.006976744186034
0.8222864546994916,11.006976744186034
0.8232831655536728,8.006976744186034
0.824279876407854,8.006976744186034
0.8252765872620352,5.006976744186034
0.8262732981162164,3.0069767441860336
0.8272700089703976,-1.9930232558139664
0.8282667198245788,-3.9930232558139664
0.8292634306787601,-6.993023255813966
0.8302601415329413,-7.993023255813966
0.8312568523871224,-8.993023255813966
0.8322535632413036,-9.993023255813966
0.8332502740954848,-9.993023255813966
0.834246984949666,-7.993023255813966
0.8352436958038473,-4.993023255813966
0.8362404066580285,-1.9930232558139664
0.8372371175122096,1.0069767441860336
0.8382338283663908,3.0069767441860336
0.839230539220572,5.006976744186034
0.8402272500747532,10.006976744186034
0.8412239609289345,8.006976744186034
0.8422206717831157,9.006976744186034
0.8432173826372968,8.006976744186034
0.844214093491478,9.006976744186034
0.8452108043456592,7.006976744186034
0.8462075151998405,3.0069767441860336
0.8472042260540217,-0.9930232558139664
0.8482009369082029,0.006976744186033557
0.849197647762384,-7.993023255813966
0.8501943586165652,-10.993023255813966
0.8511910694707464,-9.993023255813966
0.8521877803249277,-9.993023255813966
0.8531844911791089,-10.993023255813966
0.8541812020332901,-7.993023255813966
0.8551779128874712,-2.9930232558139664
0.8561746237416524,-2.9930232558139664
0.8571713345958337,2.0069767441860336
0.8581680454500149,5.006976744186034
0.8591647563041961,3.0069767441860336
0.8601614671583773,6.006976744186034
0.8611581780125585,9.006976744186034
0.8621548888667396,8.006976744186034
0.8631515997209209,12.006976744186034
0.8641483105751021,7.006976744186034
0.8651450214292833,6.006976744186034
0.8661417322834645,3.0069767441860336
0.8671384431376457,-0.9930232558139664
0.868135153991827,-0.9930232558139664
0.8691318648460081,-2.9930232558139664
0.8701285757001893,-7.993023255813966
0.8711252865543705,-9.993023255813966
0.8721219974085517,-7.993023255813966
0.8731187082627329,-10.993023255813966
0.8741154191169141,-5.993023255813966
0.8751121299710953,-3.9930232558139664
0.8761088408252765,-2.9930232558139664
0.8771055516794577,1.0069767441860336
0.8781022625336389,3.0069767441860336
0.8790989733878201,3.0069767441860336
0.8800956842420014,8.006976744186034
0.8810923950961825,8.006976744186034
0.8820891059503637,10.006976744186034
0.8830858168045449,11.006976744186034
0.8840825276587261,6.006976744186034
0.8850792385129074,4.006976744186034
0.8860759493670886,2.0069767441860336
0.8870726602212697,0.006976744186033557
0.8880693710754509,-4.993023255813966
0.8890660819296321,-4.993023255813966
0.8900627927838133,-9.993023255813966
0.8910595036379946,-8.993023255813966
0.8920562144921758,-10.993023255813966
0.8930529253463569,-9.993023255813966
0.8940496362005381,-6.993023255813966
0.8950463470547193,0.006976744186033557
0.8960430579089006,1.0069767441860336
0.8970397687630818,0.006976744186033557
0.898036479617263,3.0069767441860336
0.8990331904714441,5.006976744186034
0.9000299013256253,8.006976744186034
0.9010266121798065,9.006976744186034
0.9020233230339878,8.006976744186034
0.903020033888169,10.006976744186034
0.9040167447423502,8.006976744186034
0.9050134555965313,7.006976744186034
0.9060101664507125,1.0069767441860336
0.9070068773048938,-2.9930232558139664
0.908003588159075,-4.993023255813966
0.9090002990132562,-5.993023255813966
0.9099970098674374,-8.993023255813966
0.9109937207216185,-9.993023255813966
0.9119904315757997,-9.993023255813966
0.912987142429981,-9.993023255813966
0.9139838532841622,-5.993023255813966
0.9149805641383434,-2.9930232558139664
0.9159772749925246,-2.9930232558139664
0.9169739858467058,0.006976744186033557
0.9179706967008869,0.006976744186033557
0.9189674075550682,7.006976744186034
0.9199641184092494,8.006976744186034
0.9209608292634306,10.006976744186034
0.9219575401176118,8.006976744186034
0.922954250971793,8.006976744186034
0.9239509618259742,7.006976744186034
0.9249476726801554,4.006976744186034
0.9259443835343366,2.0069767441860336
0.9269410943885178,0.006976744186033557
0.927937805242699,-2.9930232558139664
0.9289345160968802,-6.993023255813966
0.9299312269510615,-7.993023255813966
0.9309279378052426,-11.993023255813966
0.9319246486594238,-9.993023255813966
0.932921359513605,-7.993023255813966
0.9339180703677862,-3.9930232558139664
0.9349147812219675,-3.9930232558139664
0.9359114920761487,0.006976744186033557
0.9369082029303298,0.006976744186033557
0.937904913784511,3.0069767441860336
0.9389016246386922,6.006976744186034
0.9398983354928734,8.006976744186034
0.9408950463470547,8.006976744186034
0.9418917572012359,7.006976744186034
0.942888468055417,8.006976744186034
0.9438851789095982,4.006976744186034
0.9448818897637794,5.006976744186034
0.9458786006179607,-0.9930232558139664
0.9468753114721419,-2.9930232558139664
0.9478720223263231,-2.9930232558139664
0.9488687331805042,-4.993023255813966
0.9498654440346854,-7.993023255813966
0.9508621548888666,-10.993023255813966
0.9518588657430479,-7.993023255813966
0.9528555765972291,-7.993023255813966
0.9538522874514103,-7.993023255813966
0.9548489983055914,-2.9930232558139664
0.9558457091597726,-1.9930232558139664
0.9568424200139538,1.0069767441860336
0.9578391308681351,3.0069767441860336
0.9588358417223163,4.006976744186034
0.9598325525764975,8.006976744186034
0.9608292634306786,8.006976744186034
0.9618259742848598,8.006976744186034
0.9628226851390411,8.006976744186034
0.9638193959932223,6.006976744186034
0.9648161068474035,5.006976744186034
0.9658128177015847,3.0069767441860336
0.9668095285557659,-0.9930232558139664
0.967806239409947,-3.9930232558139664
0.9688029502641283,-4.993023255813966
0.9697996611183095,-7.993023255813966
0.9707963719724907,-10.993023255813966
0.9717930828266719,-9.993023255813966
0.972789793680853,-8.993023255813966
0.9737865045350343,-7.993023255813966
0.9747832153892155,-3.9930232558139664
0.9757799262433967,-1.9930232558139664
0.9767766370975779,3.0069767441860336
0.9777733479517591,5.006976744186034
0.9787700588059403,7.006976744186034
0.9797667696601216,9.006976744186034
0.9807634805143027,8.006976744186034
0.9817601913684839,7.006976744186034
0.9827569022226651,6.006976744186034
0.9837536130768463,7.006976744186034
0.9847503239310276,6.006976744186034
0.9857470347852088,3.0069767441860336
0.9867437456393899,-1.9930232558139664
0.9877404564935711,-2.9930232558139664
0.9887371673477523,-3.9930232558139664
0.9897338782019335,-10.993023255813966
0.9907305890561148,-7.993023255813966
0.991727299910296,-10.993023255813966
0.9927240107644771,-9.993023255813966
0.9937207216186583,-5.993023255813966
0.9947174324728395,-2.9930232558139664
0.9957141433270208,-0.9930232558139664
0.996710854181202,1.0069767441860336
0.9977075650353832,3.0069767441860336
0.9987042758895643,4.006976744186034
0.9997009867437455,10.006976744186034
1.0006976975979267,8.006976744186034
1.001694408452108,8.006976744186034
1.002691119306289,8.006976744186034
1.0036878301604704,3.0069767441860336
1.0046845410146517,8.006976744186034
1.0056812518688327,5.006976744186034
1.006677962723014,0.006976744186033557
1.007674673577195,-3.9930232558139664
1.0086713844313764,-5.993023255813966
1.0096680952855577,-8.993023255813966
1.0106648061397387,-10.993023255813966
1.01166151699392,-10.993023255813966
1.0126582278481011,-8.993023255813966
1.0136549387022824,-8.993023255813966
1.0146516495564635,-1.9930232558139664
1.0156483604106448,-1.9930232558139664
1.016645071264826,2.0069767441860336
1.0176417821190071,4.006976744186034
1.0186384929731884,5.006976744186034
1.0196352038273695,9.006976744186034
1.0206319146815508,8.006976744186034
1.021628625535732,8.006976744186034
1.0226253363899132,11.006976744186034
1.0236220472440944,9.006976744186034
1.0246187580982755,6.006976744186034
1.0256154689524568,1.0069767441860336
1.026612179806638,-1.9930232558139664
1.0276088906608192,-3.9930232558139664
1.0286056015150005,-6.993023255813966
1.0296023123691815,-9.993023255813966
1.0305990232233628,-10.993023255813966
1.031595734077544,-7.993023255813966
1.0325924449317252,-9.993023255813966
1.0335891557859065,-7.993023255813966
1.0345858666400876,-2.9930232558139664
1.0355825774942689,-1.9930232558139664
1.03657928834845,1.0069767441860336
1.0375759992026312,3.0069767441860336
1.0385727100568125,6.006976744186034
1.0395694209109936,9.006976744186034
1.0405661317651749,9.006976744186034
1.041562842619356,6.006976744186034
1.0425595534735372,9.006976744186034
1.0435562643277185,7.006976744186034
1.0445529751818996,5.006976744186034
1.045549686036081,2.0069767441860336
1.046546396890262,0.006976744186033557
1.0475431077444433,-3.9930232558139664
1.0485398185986246,-2.9930232558139664
1.0495365294528056,-8.993023255813966
1.050533240306987,-8.993023255813966
1.051529951161168,-9.993023255813966
1.0525266620153493,-7.993023255813966
1.0535233728695304,-7.993023255813966
1.0545200837237116,-1.9930232558139664
1.055516794577893,-0.9930232558139664
1.056513505432074,3.0069767441860336
1.0575102162862553,3.0069767441860336
1.0585069271404364,4.006976744186034
1.0595036379946177,5.006976744186034
1.060500348848799,7.006976744186034
1.06149705970298,10.006976744186034
1.0624937705571613,8.006976744186034
1.0634904814113424,5.006976744186034
1.0644871922655237,6.006976744186034
1.065483903119705,2.0069767441860336
1.066480613973886,-0.9930232558139664
1.0674773248280673,-1.9930232558139664
1.0684740356822484,-5.993023255813966
1.0694707465364297,-9.993023255813966
1.0704674573906108,-9.993023255813966
1.071464168244792,-9.993023255813966
1.0724608790989734,-7.993023255813966
1.0734575899531544,-3.9930232558139664
1.0744543008073357,-2.9930232558139664
1.0754510116615168,-0.9930232558139664
1.076447722515698,1.0069767441860336
1.0774444333698794,3.0069767441860336
1.0784411442240605,5.006976744186034
1.0794378550782417,8.006976744186034
1.0804345659324228,9.006976744186034
1.0814312767866041,6.006976744186034
1.0824279876407854,11.006976744186034
1.0834246984949665,7.006976744186034
1.0844214093491478,5.006976744186034
1.0854181202033288,0.006976744186033557
1.0864148310575101,1.0069767441860336
1.0874115419116914,-3.9930232558139664
1.0884082527658725,-4.993023255813966
1.0894049636200538,-8.993023255813966
1.0904016744742349,-9.993023255813966
1.0913983853284162,-10.993023255813966
1.0923950961825972,-9.993023255813966
1.0933918070367785,-4.993023255813966
1.0943885178909598,-1.9930232558139664
1.0953852287451409,-1.9930232558139664
1.0963819395993222,4.006976744186034
1.0973786504535032,3.0069767441860336
1.0983753613076845,5.006976744186034
1.0993720721618658,6.006976744186034
1.100368783016047,8.006976744186034
1.1013654938702282,9.006976744186034
1.1023622047244093,8.006976744186034
1.1033589155785906,7.006976744186034
1.1043556264327719,5.006976744186034
1.105352337286953,2.0069767441860336
1.1063490481411342,-2.9930232558139664
1.1073457589953153,-3.9930232558139664
1.1083424698494966,-5.993023255813966
1.1093391807036777,-8.993023255813966
1.110335891557859,-8.993023255813966
1.1113326024120402,-9.993023255813966
1.1123293132662213,-7.993023255813966
1.1133260241204026,-6.993023255813966
1.1143227349745837,-4.993023255813966
1.115319445828765,-3.9930232558139664
1.1163161566829463,4.006976744186034
1.1173128675371273,4.006976744186034
1.1183095783913086,6.006976744186034
1.1193062892454897,9.006976744186034
1.120303000099671,10.006976744186034
1.1212997109538523,9.006976744186034
1.1222964218080334,10.006976744186034
1.1232931326622146,7.006976744186034
1.1242898435163957,6.006976744186034
1.125286554370577,2.0069767441860336
1.1262832652247583,-1.9930232558139664
1.1272799760789394,-4.993023255813966
1.1282766869331207,-7.993023255813966
1.1292733977873017,-7.993023255813966
1.130270108641483,-10.993023255813966
1.131266819495664,-8.993023255813966
1.1322635303498454,-7.993023255813966
1.1332602412040267,-4.993023255813966
1.1342569520582078,-3.9930232558139664
1.135253662912389,-3.9930232558139664
1.1362503737665701,1.0069767441860336
1.1372470846207514,2.0069767441860336
1.1382437954749327,5.006976744186034
1.1392405063291138,8.006976744186034
1.140237217183295,8.006976744186034
1.1412339280374761,8.006976744186034
1.1422306388916574,8.006976744186034
1.1432273497458387,7.006976744186034
1.1442240606000198,8.006976744186034
1.145220771454201,3.0069767441860336
1.1462174823083822,0.006976744186033557
1.1472141931625635,-2.9930232558139664
1.1482109040167447,-4.993023255813966
1.1492076148709258,-8.993023255813966
1.1502043257251071,-10.993023255813966
1.1512010365792882,-10.993023255813966
1.1521977474334695,-7.993023255813966
1.1531944582876505,-1.9930232558139664
1.1541911691418318,-2.9930232558139664
1.1551878799960131,-1.9930232558139664
1.1561845908501942,0.006976744186033557
1.1571813017043755,4.006976744186034
1.1581780125585566,6.006976744186034
1.1591747234127379,8.006976744186034
1.1601714342669192,8.006976744186034
1.1611681451211002,9.006976744186034
1.1621648559752815,7.006976744186034
1.1631615668294626,8.006976744186034
1.1641582776836439,7.006976744186034
1.1651549885378252,2.0069767441860336
1.1661516993920062,-2.9930232558139664
1.1671484102461875,-3.9930232558139664
1.1681451211003686,-4.993023255813966
1.16914183195455,-9.993023255813966
1.170138542808731,-8.993023255813966
1.1711352536629123,-9.993023255813966
1.1721319645170936,-7.993023255813966
1.1731286753712746,-7.993023255813966
1.174125386225456,-4.993023255813966
1.175122097079637,-2.9930232558139664
1.1761188079338183,2.0069767441860336
1.1771155187879996,4.006976744186034
1.1781122296421807,5.006976744186034
1.179108940496362,8.006976744186034
1.180105651350543,10.006976744186034
1.1811023622047243,8.006976744186034
1.1820990730589056,6.006976744186034
1.1830957839130867,4.006976744186034
1.184092494767268,6.006976744186034
1.185089205621449,3.0069767441860336
1.1860859164756303,1.0069767441860336
1.1870826273298116,-2.9930232558139664
1.1880793381839927,-7.993023255813966
1.189076049038174,-8.993023255813966
1.190072759892355,-7.993023255813966
1.1910694707465364,-9.993023255813966
1.1920661816007174,-7.993023255813966
1.1930628924548987,-4.993023255813966
1.19405960330908,-1.9930232558139664
1.195056314163261,-1.9930232558139664
1.1960530250174424,2.0069767441860336
1.1970497358716234,4.006976744186034
1.1980464467258047,4.006976744186034
1.199043157579986,6.006976744186034
1.200039868434167,8.006976744186034
1.2010365792883484,8.006976744186034
1.2020332901425295,10.006976744186034
1.2030300009967108,8.006976744186034
1.204026711850892,5.006976744186034
1.2050234227050731,1.0069767441860336
1.2060201335592544,1.0069767441860336
1.2070168444134355,-2.9930232558139664
1.2080135552676168,-3.9930232558139664
1.2090102661217978,-7.993023255813966
1.2100069769759791,-7.993023255813966
1.2110036878301604,-9.993023255813966
1.2120003986843415,-6.993023255813966
1.2129971095385228,-4.993023255813966
1.2139938203927039,-3.9930232558139664
1.2149905312468852,-4.993023255813966
1.2159872421010665,1.0069767441860336
1.2169839529552475,4.006976744186034
1.2179806638094288,7.006976744186034
1.21897737466361,9.006976744186034
1.2199740855177912,6.006976744186034
1.2209707963719725,6.006976744186034
1.2219675072261535,7.006976744186034
1.2229642180803348,10.006976744186034
1.223960928934516,6.006976744186034
1.2249576397886972,1.0069767441860336
1.2259543506428785,-2.9930232558139664
1.2269510614970596,-3.9930232558139664
1.2279477723512409,-4.993023255813966
1.228944483205422,-7.993023255813966
1.2299411940596032,-9.993023255813966
1.2309379049137843,-9.993023255813966
1.2319346157679656,-8.993023255813966
1.2329313266221469,-4.993023255813966
1.233928037476328,-4.993023255813966
1.2349247483305092,-2.9930232558139664
1.2359214591846903,3.0069767441860336
1.2369181700388716,3.0069767441860336
1.237914880893053,5.006976744186034
1.238911591747234,7.006976744186034
1.2399083026014153,6.006976744186034
1.2409050134555963,11.006976744186034
1.2419017243097776,10.006976744186034
1.242898435163959,6.006976744186034
1.24389514601814,5.006976744186034
1.2448918568723213,3.0069767441860336
1.2458885677265024,-0.9930232558139664
1.2468852785806837,-4.993023255813966
1.2478819894348647,-6.993023255813966
1.248878700289046,-8.993023255813966
1.2498754111432273,-9.993023255813966
1.2508721219974084,-10.993023255813966
1.2518688328515897,-6.993023255813966
1.2528655437057707,-7.993023255813966
1.253862254559952,-1.9930232558139664
1.2548589654141333,0.006976744186033557
1.2558556762683144,1.0069767441860336
1.2568523871224957,1.0069767441860336
1.2578490979766768,3.0069767441860336
1.258845808830858,9.006976744186034
1.2598425196850394,9.006976744186034
1.2608392305392204,7.006976744186034
1.2618359413934017,10.006976744186034
1.2628326522475828,7.006976744186034
1.263829363101764,6.006976744186034
1.2648260739559454,0.006976744186033557
1.2658227848101264,-1.9930232558139664
1.2668194956643077,-3.9930232558139664
1.2678162065184888,-4.993023255813966
1.26881291737267,-6.993023255813966
1.2698096282268512,-9.993023255813966
1.2708063390810325,-9.993023255813966
1.2718030499352138,-11.993023255813966
1.2727997607893948,-6.993023255813966
1.2737964716435761,-2.9930232558139664
1.2747931824977572,-3.9930232558139664
1.2757898933519385,-4.993023255813966
1.2767866042061198,-2.9930232558139664
1.2777833150603009,3.0069767441860336
1.2787800259144821,11.006976744186034
1.2797767367686632,9.006976744186034
1.2807734476228445,9.006976744186034
1.2817701584770258,12.006976744186034
1.2827668693312069,12.006976744186034
1.2837635801853882,12.006976744186034
1.2847602910395692,4.006976744186034
1.2857570018937505,-9.993023255813966
1.2867537127479316,-22.993023255813966
1.287750423602113,-24.993023255813966
1.2887471344562942,-19.993023255813966
1.2897438453104753,-18.993023255813966
1.2907405561646565,-8.993023255813966
1.2917372670188376,2.0069767441860336
1.292733977873019,4.006976744186034
1.2937306887272002,9.006976744186034
1.2947273995813813,18.006976744186034
1.2957241104355626,25.006976744186034
1.2967208212897436,17.006976744186034
1.297717532143925,0.006976744186033557
1.2987142429981062,-12.993023255813966
1.2997109538522873,-14.993023255813966
1.3007076647064686,-7.993023255813966
1.3017043755606497,-2.9930232558139664
1.302701086414831,15.006976744186034
1.3036977972690122,40.006976744186034
1.3046945081231933,16.006976744186034
1.3056912189773746,-3.9930232558139664
1.3066879298315557,17.006976744186034
1.307684640685737,17.006976744186034
1.308681351539918,-2.9930232558139664
1.3096780623940993,-11.993023255813966
1.3106747732482806,1.0069767441860336
1.3116714841024617,7.006976744186034
1.312668194956643,-3.9930232558139664
1.313664905810824,-8.993023255813966
1.3146616166650054,-19.993023255813966
1.3156583275191867,-27.993023255813966
1.3166550383733677,-33.993023255813966
1.317651749227549,-45.993023255813966
1.31864846008173,-52.993023255813966
1.3196451709359114,-43.993023255813966
1.3206418817900927,-10.993023255813966
1.3216385926442737,13.006976744186034
1.322635303498455,7.006976744186034
1.323632014352636,2.0069767441860336
1.3246287252068174,-1.9930232558139664
1.3256254360609985,39.006976744186034
1.3266221469151798,85.00697674418603
1.327618857769361,113.00697674418603
1.3286155686235421,86.00697674418603
1.3296122794777234,19.006976744186034
1.3306089903319045,-24.993023255813966
1.3316057011860858,-47.993023255813966
1.332602412040267,-58.993023255813966
1.3335991228944482,-58.993023255813966
1.3345958337486294,-59.993023255813966
1.3355925446028105,-53.993023255813966
1.3365892554569918,-20.993023255813966
1.337585966311173,-22.993023255813966
1.3385826771653542,-16.993023255813966
1.3395793880195355,12.006976744186034
1.3405760988737165,39.006976744186034
1.3415728097278978,51.006976744186034
1.3425695205820791,51.006976744186034
1.3435662314362602,66.00697674418603
1.3445629422904415,92.00697674418603
1.3455596531446226,53.006976744186034
1.3465563639988039,0.006976744186033557
1.347553074852985,-17.993023255813966
1.3485497857071662,-51.993023255813966
1.3495464965613475,-57.993023255813966
1.3505432074155286,-37.993023255813966
1.3515399182697099,-34.993023255813966
1.352536629123891,-42.993023255813966
1.3535333399780722,-27.993023255813966
1.3545300508322535,-10.993023255813966
1.3555267616864346,-10.993023255813966
1.356523472540616,19.006976744186034
1.357520183394797,62.006976744186034
1.3585168942489783,56.006976744186034
1.3595136051031596,29.006976744186034
1.3605103159573406,9.006976744186034
1.361507026811522,4.006976744186034
1.362503737665703,-1.9930232558139664
1.3635004485198843,-37.993023255813966
1.3644971593740653,-28.993023255813966
1.3654938702282466,-22.993023255813966
1.366490581082428,-26.993023255813966
1.367487291936609,-7.993023255813966
1.3684840027907903,-18.993023255813966
1.3694807136449714,-12.993023255813966
1.3704774244991527,19.006976744186034
1.371474135353334,11.006976744186034
1.372470846207515,-25.993023255813966
1.3734675570616963,-19.993023255813966
1.3744642679158774,31.006976744186034
1.3754609787700587,44.006976744186034
1.37645768962424,11.006976744186034
1.377454400478421,-3.9930232558139664
1.3784511113326023,14.006976744186034
1.3794478221867834,-4.993023255813966
1.3804445330409647,-10.993023255813966
1.381441243895146,44.006976744186034
1.382437954749327,25.006976744186034
1.3834346656035084,-10.993023255813966
1.3844313764576894,10.006976744186034
1.3854280873118707,34.006976744186034
1.3864247981660518,30.006976744186034
1.387421509020233,7.006976744186034
1.3884182198744144,-19.993023255813966
1.3894149307285955,-7.993023255813966
1.3904116415827767,-29.993023255813966
1.3914083524369578,-68.99302325581397
1.3924050632911391,-66.99302325581397
1.3934017741453204,-75.99302325581397
1.3943984849995015,-87.99302325581397
1.3953951958536828,-41.993023255813966
1.3963919067078638,27.006976744186034
1.3973886175620451,80.00697674418603
1.3983853284162264,131.00697674418603
1.3993820392704075,175.00697674418603
1.4003787501245888,214.00697674418603
1.4013754609787699,136.00697674418603
1.4023721718329512,41.006976744186034
1.4033688826871322,-34.993023255813966
1.4043655935413135,-100.99302325581397
1.4053623043954948,-134.99302325581397
1.4063590152496759,-179.99302325581397
1.4073557261038572,-192.99302325581397
1.4083524369580382,-153.99302325581397
1.4093491478122195,-97.99302325581397
1.4103458586664008,-0.9930232558139664
1.411342569520582,79.00697674418603
1.4123392803747632,115.00697674418603
1.4133359912289443,120.00697674418603
1.4143327020831256,76.00697674418603
1.4153294129373069,19.006976744186034
1.416326123791488,8.006976744186034
1.4173228346456692,35.006976744186034
1.4183195454998503,30.006976744186034
1.4193162563540316,68.00697674418603
1.4203129672082129,38.006976744186034
1.421309678062394,-17.993023255813966
1.4223063889165752,-53.993023255813966
1.4233030997707563,-99.99302325581397
1.4242998106249376,-119.99302325581397
1.4252965214791187,-78.99302325581397
1.4262932323333,-45.993023255813966
1.4272899431874813,-7.993023255813966
1.4282866540416623,-34.993023255813966
1.4292833648958436,-33.993023255813966
1.4302800757500247,36.006976744186034
1.431276786604206,86.00697674418603
1.4322734974583873,116.00697674418603
1.4332702083125684,74.00697674418603
1.4342669191667496,25.006976744186034
1.4352636300209307,-27.993023255813966
1.436260340875112,-11.993023255813966
1.4372570517292933,-1.9930232558139664
1.4382537625834744,-28.993023255813966
1.4392504734376557,-62.993023255813966
1.4402471842918367,-70.99302325581397
1.441243895146018,-36.993023255813966
1.4422406060001993,83.00697674418603
1.4432373168543804,107.00697674418603
1.4442340277085617,24.006976744186034
1.4452307385627428,4.006976744186034
1.446227449416924,-8.993023255813966
1.4472241602711051,-78.99302325581397
1.4482208711252864,-62.993023255813966
1.4492175819794677,-3.9930232558139664
1.4502142928336488,17.006976744186034
1.45121100368783,71.00697674418603
1.4522077145420111,102.00697674418603
1.4532044253961924,61.006976744186034
1.4542011362503737,-43.993023255813966
1.4551978471045548,-82.99302325581397
1.456194557958736,-97.99302325581397
1.4571912688129172,-78.99302325581397
1.4581879796670985,-33.993023255813966
1.4591846905212797,24.006976744186034
1.4601814013754608,132.00697674418603
1.4611781122296421,90.00697674418603
1.4621748230838232,-1.9930232558139664
1.4631715339380045,-43.993023255813966
1.4641682447921855,-74.99302325581397
1.4651649556463668,-84.99302325581397
1.4661616665005481,-31.993023255813966
1.4671583773547292,56.006976744186034
1.4681550882089105,126.00697674418603
1.4691517990630916,152.00697674418603
1.4701485099172729,119.00697674418603
1.4711452207714542,40.006976744186034
1.4721419316256352,-50.993023255813966
1.4731386424798165,-146.99302325581397
1.4741353533339976,-104.99302325581397
1.4751320641881789,-65.99302325581397
1.4761287750423602,-50.993023255813966
1.4771254858965412,-29.993023255813966
1.4781221967507225,8.006976744186034
1.4791189076049036,16.006976744186034
1.480115618459085,3.0069767441860336
1.4811123293132662,-22.993023255813966
1.4821090401674473,-6.993023255813966
1.4831057510216286,-40.993023255813966
1.4841024618758096,-44.993023255813966
1.485099172729991,19.006976744186034
1.486095883584172,66.00697674418603
1.4870925944383533,84.00697674418603
1.4880893052925346,-1.9930232558139664
1.4890860161467157,26.006976744186034
1.490082727000897,70.00697674418603
1.491079437855078,90.00697674418603
1.4920761487092593,11.006976744186034
1.4930728595634406,-36.993023255813966
1.4940695704176217,-31.993023255813966
1.495066281271803,14.006976744186034
1.496062992125984,35.006976744186034
1.4970597029801653,-23.993023255813966
1.4980564138343466,-44.993023255813966
1.4990531246885277,-14.993023255813966
1.500049835542709,-24.993023255813966
1.50104654639689,-47.993023255813966
1.5020432572510714,-10.993023255813966
1.5030399681052524,9.006976744186034
1.5040366789594337,28.006976744186034
1.505033389813615,5.006976744186034
1.506030100667796,-49.993023255813966
1.5070268115219774,-43.993023255813966
1.5080235223761584,-3.9930232558139664
1.5090202332303397,20.006976744186034
1.510016944084521,44.006976744186034
1.511013654938702,50.006976744186034
1.5120103657928834,-25.993023255813966
1.5130070766470645,2.0069767441860336
1.5140037875012458,-46.993023255813966
1.515000498355427,-49.993023255813966
1.5159972092096081,-29.993023255813966
1.5169939200637894,25.006976744186034
1.5179906309179705,16.006976744186034
1.5189873417721518,27.006976744186034
1.519984052626333,130.00697674418603
1.5209807634805141,120.00697674418603
1.5219774743346954,71.00697674418603
1.5229741851888765,15.006976744186034
1.5239708960430578,-22.993023255813966
1.5249676068972389,-49.993023255813966
1.5259643177514202,-51.993023255813966
1.5269610286056015,-71.99302325581397
1.5279577394597825,-85.99302325581397
1.5289544503139638,-104.99302325581397
1.529951161168145,-98.99302325581397
1.5309478720223262,-107.99302325581397
1.5319445828765075,-41.993023255813966
1.5329412937306885,56.006976744186034
1.5339380045848698,167.00697674418603
1.534934715439051,142.00697674418603
1.5359314262932322,96.00697674418603
1.5369281371474135,73.00697674418603
1.5379248480015946,-60.993023255813966
1.5389215588557759,-124.99302325581397
1.539918269709957,-49.993023255813966
1.5409149805641382,-25.993023255813966
1.5419116914183193,-17.993023255813966
1.5429084022725006,58.006976744186034
1.5439051131266819,70.00697674418603
1.544901823980863,59.006976744186034
1.5458985348350442,23.006976744186034
1.5468952456892253,-8.993023255813966
1.5478919565434066,-12.993023255813966
1.548888667397588,-4.993023255813966
1.549885378251769,-7.993023255813966
1.5508820891059503,-39.993023255813966
1.5518787999601313,-41.993023255813966
1.5528755108143126,-29.993023255813966
1.553872221668494,-52.993023255813966
1.554868932522675,-39.993023255813966
1.5558656433768563,9.006976744186034
1.5568623542310374,25.006976744186034
1.5578590650852187,8.006976744186034
1.5588557759394,20.006976744186034
1.559852486793581,33.006976744186034
1.5608491976477623,2.0069767441860336
1.5618459085019434,7.006976744186034
1.5628426193561247,51.006976744186034
1.5638393302103057,20.006976744186034
1.564836041064487,12.006976744186034
1.5658327519186683,0.006976744186033557
1.5668294627728494,-9.993023255813966
1.5678261736270307,-9.993023255813966
1.5688228844812118,-26.993023255813966
1.569819595335393,-6.993023255813966
1.5708163061895744,-22.993023255813966
1.5718130170437554,-68.99302325581397
1.5728097278979367,-22.993023255813966
1.5738064387521178,-19.993023255813966
1.574803149606299,25.006976744186034
1.5757998604604804,51.006976744186034
1.5767965713146614,24.006976744186034
1.5777932821688427,-23.993023255813966
1.5787899930230238,-59.993023255813966
1.579786703877205,-80.99302325581397
1.5807834147313862,-44.993023255813966
1.5817801255855675,70.00697674418603
1.5827768364397488,127.00697674418603
1.5837735472939298,180.00697674418603
1.5847702581481111,154.00697674418603
1.5857669690022922,8.006976744186034
1.5867636798564735,-60.993023255813966
1.5877603907106548,-131.99302325581397
1.5887571015648358,-150.99302325581397
1.5897538124190171,-67.99302325581397
1.5907505232731982,-17.993023255813966
1.5917472341273795,19.006976744186034
1.5927439449815608,86.00697674418603
1.5937406558357419,70.00697674418603
1.5947373666899232,16.006976744186034
1.5957340775441042,-38.993023255813966
1.5967307883982855,-52.993023255813966
1.5977274992524668,-32.993023255813966
1.598724210106648,41.006976744186034
1.5997209209608292,72.00697674418603
1.6007176318150103,11.006976744186034
1.6017143426691915,-37.993023255813966
1.6027110535233726,-63.993023255813966
1.603707764377554,-47.993023255813966
1.6047044752317352,-46.993023255813966
1.6057011860859163,-47.993023255813966
1.6066978969400976,32.006976744186034
1.6076946077942786,46.006976744186034
1.60869131864846,84.00697674418603
1.6096880295026412,80.00697674418603
1.6106847403568223,33.006976744186034
1.6116814512110036,5.006976744186034
1.6126781620651847,-4.993023255813966
1.613674872919366,-63.993023255813966
1.6146715837735472,-45.993023255813966
1.6156682946277283,-26.993023255813966
1.6166650054819096,32.006976744186034
1.6176617163360907,45.006976744186034
1.618658427190272,11.006976744186034
1.619655138044453,8.006976744186034
1.6206518488986343,-23.993023255813966
1.6216485597528156,-90.99302325581397
1.6226452706069967,-95.99302325581397
1.623641981461178,-100.99302325581397
1.624638692315359,48.006976744186034
1.6256354031695404,145.00697674418603
1.6266321140237217,89.00697674418603
1.6276288248779027,64.00697674418603
1.628625535732084,19.006976744186034
1.629622246586265,-44.993023255813966
1.6306189574404464,-66.99302325581397
1.6316156682946277,-39.993023255813966
1.6326123791488087,16.006976744186034
1.63360909000299,65.00697674418603
1.634605800857171,12.006976744186034
1.6356025117113524,-11.993023255813966
1.6365992225655337,-25.993023255813966
1.6375959334197148,46.006976744186034
1.638592644273896,33.006976744186034
1.6395893551280771,-21.993023255813966
1.6405860659822584,-39.993023255813966
1.6415827768364395,-51.993023255813966
1.6425794876906208,-15.993023255813966
1.643576198544802,12.006976744186034
1.6445729093989832,33.006976744186034
1.6455696202531644,3.0069767441860336
1.6465663311073455,14.006976744186034
1.6475630419615268,-4.993023255813966
1.648559752815708,-58.993023255813966
1.6495564636698892,-62.993023255813966
1.6505531745240705,-49.993023255813966
1.6515498853782515,15.006976744186034
1.6525465962324328,78.00697674418603
1.6535433070866141,56.006976744186034
1.6545400179407952,7.006976744186034
1.6555367287949765,-14.993023255813966
1.6565334396491576,-31.993023255813966
1.6575301505033389,-2.9930232558139664
1.6585268613575201,25.006976744186034
1.6595235722117012,-10.993023255813966
1.6605202830658825,26.006976744186034
1.6615169939200636,34.006976744186034
1.6625137047742449,25.006976744186034
1.663510415628426,8.006976744186034
1.6645071264826072,-12.993023255813966
1.6655038373367885,-36.993023255813966
1.6665005481909696,-36.993023255813966
1.667497259045151,-46.993023255813966
1.668493969899332,-32.993023255813966
1.6694906807535133,28.006976744186034
1.6704873916076945,53.006976744186034
1.6714841024618756,44.006976744186034
1.672480813316057,30.006976744186034
1.673477524170238,-1.9930232558139664
1.6744742350244193,-26.993023255813966
1.6754709458786006,-6.993023255813966
1.6764676567327816,-2.9930232558139664
1.677464367586963,8.006976744186034
1.678461078441144,-1.9930232558139664
1.6794577892953253,-7.993023255813966
1.6804545001495064,11.006976744186034
1.6814512110036877,40.006976744186034
1.682447921857869,23.006976744186034
1.68344463271205,-19.993023255813966
1.6844413435662313,-75.99302325581397
1.6854380544204124,-92.99302325581397
1.6864347652745937,-68.99302325581397
1.687431476128775,-35.993023255813966
1.688428186982956,-20.993023255813966
1.6894248978371373,5.006976744186034
1.6904216086913184,32.006976744186034
1.6914183195454997,39.006976744186034
1.692415030399681,8.006976744186034
1.693411741253862,3.0069767441860336
1.6944084521080434,16.006976744186034
1.6954051629622244,15.006976744186034
1.6964018738164057,6.006976744186034
1.697398584670587,1.0069767441860336
1.698395295524768,3.0069767441860336
1.6993920063789494,-16.993023255813966
1.7003887172331305,-27.993023255813966
1.7013854280873117,-3.9930232558139664
1.7023821389414928,20.006976744186034
1.703378849795674,13.006976744186034
1.7043755606498554,37.006976744186034
1.7053722715040365,62.006976744186034
1.7063689823582178,68.00697674418603
1.7073656932123988,27.006976744186034
1.7083624040665801,1.0069767441860336
1.7093591149207614,2.0069767441860336
1.7103558257749425,-25.993023255813966
1.7113525366291238,-23.993023255813966
1.7123492474833049,8.006976744186034
1.7133459583374862,17.006976744186034
1.7143426691916674,8.006976744186034
1.7153393800458485,-7.993023255813966
1.7163360909000298,-21.993023255813966
1.7173328017542109,-35.993023255813966
1.7183295126083922,-25.993023255813966
1.7193262234625732,-24.993023255813966
1.7203229343167545,-31.993023255813966
1.7213196451709358,-61.993023255813966
1.722316356025117,-98.99302325581397
1.7233130668792982,-112.99302325581397
1.7243097777334793,-79.99302325581397
1.7253064885876606,-36.993023255813966
1.7263031994418419,17.006976744186034
1.727299910296023,105.00697674418603
1.7282966211502042,201.00697674418603
1.7292933320043853,196.00697674418603
1.7302900428585666,165.00697674418603
1.7312867537127479,101.00697674418603
1.732283464566929,25.006976744186034
1.7332801754211102,-25.993023255813966
1.7342768862752913,-26.993023255813966
1.7352735971294726,-13.993023255813966
1.736270307983654,-14.993023255813966
1.737267018837835,-14.993023255813966
1.7382637296920163,-29.993023255813966
1.7392604405461973,-71.99302325581397
1.7402571514003786,-80.99302325581397
1.7412538622545597,-51.993023255813966
1.742250573108741,-18.993023255813966
1.7432472839629223,-14.993023255813966
1.7442439948171033,-18.993023255813966
1.7452407056712846,12.006976744186034
1.7462374165254657,-1.9930232558139664
1.747234127379647,-28.993023255813966
1.7482308382338283,-66.99302325581397
1.7492275490880094,-44.993023255813966
1.7502242599421907,-13.993023255813966
1.7512209707963717,4.006976744186034
1.752217681650553,-7.993023255813966
1.7532143925047343,-6.993023255813966
1.7542111033589154,-11.993023255813966
1.7552078142130967,-108.99302325581397
1.7562045250672778,-183.99302325581397
1.757201235921459,-157.99302325581397
1.7581979467756401,-27.993023255813966
1.7591946576298214,67.00697674418603
1.7601913684840027,145.00697674418603
1.7611880793381838,277.00697674418603
1.762184790192365,343.00697674418603
1.7631815010465461,284.00697674418603
1.7641782119007274,206.00697674418603
1.7651749227549087,110.00697674418603
1.7661716336090898,-18.993023255813966
1.767168344463271,-95.99302325581397
1.7681650553174522,-109.99302325581397
1.7691617661716335,-107.99302325581397
1.7701584770258147,-100.99302325581397
1.7711551878799958,-90.99302325581397
1.7721518987341771,-84.99302325581397
1.7731486095883582,-75.99302325581397
1.7741453204425395,-42.993023255813966
1.7751420312967208,-4.993023255813966
1.7761387421509018,5.006976744186034
1.7771354530050831,19.006976744186034
1.7781321638592642,-39.993023255813966
1.7791288747134455,-118.99302325581397
1.7801255855676266,-140.99302325581397
1.7811222964218079,-120.99302325581397
1.7821190072759892,-71.99302325581397
1.7831157181301702,13.006976744186034
1.7841124289843515,116.00697674418603
1.7851091398385326,129.00697674418603
1.7861058506927139,125.00697674418603
1.7871025615468952,85.00697674418603
1.7880992724010762,-21.993023255813966
1.7890959832552575,-87.99302325581397
1.7900926941094386,-58.993023255813966
1.79108940496362,32.006976744186034
1.7920861158178012,59.006976744186034
1.7930828266719823,39.006976744186034
1.7940795375261636,57.006976744186034
1.7950762483803446,43.006976744186034
1.796072959234526,-17.993023255813966
1.797069670088707,18.006976744186034
1.7980663809428883,60.006976744186034
1.7990630917970696,40.006976744186034
1.8000598026512507,19.006976744186034
1.801056513505432,-26.993023255813966
1.802053224359613,-73.99302325581397
1.8030499352137943,-109.99302325581397
1.8040466460679756,-103.99302325581397
1.8050433569221567,-50.993023255813966
1.806040067776338,25.006976744186034
1.807036778630519,80.00697674418603
1.8080334894847003,58.006976744186034
1.8090302003388816,11.006976744186034
1.8100269111930627,36.006976744186034
1.811023622047244,64.00697674418603
1.812020332901425,74.00697674418603
1.8130170437556064,60.006976744186034
1.8140137546097876,-15.993023255813966
1.8150104654639687,-74.99302325581397
1.81600717631815,-65.99302325581397
1.817003887172331,-46.993023255813966
1.8180005980265124,-20.993023255813966
1.8189973088806934,3.0069767441860336
1.8199940197348747,16.006976744186034
1.820990730589056,17.006976744186034
1.821987441443237,35.006976744186034
1.8229841522974184,11.006976744186034
1.8239808631515995,-36.993023255813966
1.8249775740057808,-73.99302325581397
1.825974284859962,-91.99302325581397
1.8269709957141431,-75.99302325581397
1.8279677065683244,-29.993023255813966
1.8289644174225055,-6.993023255813966
1.8299611282766868,9.006976744186034
1.830957839130868,12.006976744186034
1.8319545499850491,-4.993023255813966
1.8329512608392304,-4.993023255813966
1.8339479716934115,6.006976744186034
1.8349446825475928,24.006976744186034
1.8359413934017739,29.006976744186034
1.8369381042559552,65.00697674418603
1.8379348151101365,87.00697674418603
1.8389315259643175,66.00697674418603
1.8399282368184988,49.006976744186034
1.84092494767268,48.006976744186034
1.8419216585268612,-9.993023255813966
1.8429183693810425,-73.99302325581397
1.8439150802352235,-70.99302325581397
1.8449117910894048,-9.993023255813966
1.845908501943586,1.0069767441860336
1.8469052127977672,6.006976744186034
1.8479019236519485,-23.993023255813966
1.8488986345061296,-25.993023255813966
1.8498953453603109,-57.993023255813966
1.850892056214492,-48.993023255813966
1.8518887670686732,22.006976744186034
1.8528854779228545,9.006976744186034
1.8538821887770356,16.006976744186034
1.8548788996312169,73.00697674418603
1.855875610485398,75.00697674418603
1.8568723213395792,68.00697674418603
1.8578690321937603,83.00697674418603
1.8588657430479416,86.00697674418603
1.859862453902123,72.00697674418603
1.860859164756304,63.006976744186034
1.8618558756104853,-9.993023255813966
1.8628525864646663,-51.993023255813966
1.8638492973188476,-95.99302325581397
1.864846008173029,-98.99302325581397
1.86584271902721,-72.99302325581397
1.8668394298813913,-41.993023255813966
1.8678361407355724,-25.993023255813966
1.8688328515897537,-55.993023255813966
1.869829562443935,-47.993023255813966
1.870826273298116,-8.993023255813966
1.8718229841522973,-15.993023255813966
1.8728196950064784,0.006976744186033557
1.8738164058606597,32.006976744186034
1.8748131167148407,3.0069767441860336
1.875809827569022,4.006976744186034
1.8768065384232033,54.006976744186034
1.8778032492773844,60.006976744186034
1.8787999601315657,49.006976744186034
1.8797966709857468,24.006976744186034
1.880793381839928,-8.993023255813966
1.8817900926941094,-16.993023255813966
1.8827868035482904,-18.993023255813966
1.8837835144024717,-23.993023255813966
1.8847802252566528,-21.993023255813966
1.885776936110834,-26.993023255813966
1.8867736469650154,-31.993023255813966
1.8877703578191964,-34.993023255813966
1.8887670686733777,-29.993023255813966
1.8897637795275588,-5.993023255813966
1.89076049038174,-2.9930232558139664
1.8917572012359214,12.006976744186034
1.8927539120901025,34.006976744186034
1.8937506229442838,26.006976744186034
1.8947473337984648,0.006976744186033557
1.8957440446526461,17.006976744186034
1.8967407555068272,25.006976744186034
1.8977374663610085,20.006976744186034
1.8987341772151898,25.006976744186034
1.8997308880693708,-1.9930232558139664
1.9007275989235521,-37.993023255813966
1.9017243097777332,-22.993023255813966
1.9027210206319145,6.006976744186034
1.9037177314860958,35.006976744186034
1.9047144423402769,49.006976744186034
1.9057111531944582,9.006976744186034
1.9067078640486392,-26.993023255813966
1.9077045749028205,-30.993023255813966
1.9087012857570018,-12.993023255813966
1.909697996611183,-16.993023255813966
1.9106947074653642,-14.993023255813966
1.9116914183195453,-4.993023255813966
1.9126881291737265,-26.993023255813966
1.9136848400279076,-35.993023255813966
1.914681550882089,-14.993023255813966
1.9156782617362702,20.006976744186034
1.9166749725904513,44.006976744186034
1.9176716834446326,38.006976744186034
1.9186683942988136,35.006976744186034
1.919665105152995,43.006976744186034
1.9206618160071762,21.006976744186034
1.9216585268613573,-7.993023255813966
1.9226552377155386,-36.993023255813966
1.9236519485697197,-74.99302325581397
1.924648659423901,-74.99302325581397
1.9256453702780822,-51.993023255813966
1.9266420811322633,-55.993023255813966
1.9276387919864446,-20.993023255813966
1.9286355028406257,23.006976744186034
1.929632213694807,54.006976744186034
1.9306289245489883,24.006976744186034
1.9316256354031693,-10.993023255813966
1.9326223462573506,-5.993023255813966
1.9336190571115317,26.006976744186034
1.934615767965713,43.006976744186034
1.935612478819894,71.00697674418603
1.9366091896740754,89.00697674418603
1.9376059005282567,57.006976744186034
1.9386026113824377,72.00697674418603
1.939599322236619,16.006976744186034
1.9405960330908,-14.993023255813966
1.9415927439449814,-11.993023255813966
1.9425894547991627,-14.993023255813966
1.9435861656533437,-10.993023255813966
1.944582876507525,-1.9930232558139664
1.945579587361706,-22.993023255813966
1.9465762982158874,-27.993023255813966
1.9475730090700687,-28.993023255813966
1.9485697199242498,-24.993023255813966
1.949566430778431,3.0069767441860336
1.9505631416326121,19.006976744186034
1.9515598524867934,9.006976744186034
1.9525565633409747,1.0069767441860336
1.9535532741951558,-30.993023255813966
1.954549985049337,-47.993023255813966
1.9555466959035182,-39.993023255813966
1.9565434067576994,-8.993023255813966
1.9575401176118805,42.006976744186034
1.9585368284660618,54.006976744186034
1.959533539320243,8.006976744186034
1.9605302501744242,-38.993023255813966
1.9615269610286055,-54.993023255813966
1.9625236718827865,-26.993023255813966
1.9635203827369678,2.0069767441860336
1.9645170935911491,17.006976744186034
1.9655138044453302,53.006976744186034
1.9665105152995115,65.00697674418603
1.9675072261536926,25.006976744186034
1.9685039370078738,-1.9930232558139664
1.9695006478620551,-18.993023255813966
1.9704973587162362,-32.993023255813966
1.9714940695704175,-38.993023255813966
1.9724907804245986,-60.993023255813966
1.9734874912787799,-80.99302325581397
1.974484202132961,-90.99302325581397
1.9754809129871422,-68.99302325581397
1.9764776238413235,-4.993023255813966
1.9774743346955046,76.00697674418603
1.978471045549686,128.00697674418603
1.979467756403867,151.00697674418603
1.9804644672580483,93.00697674418603
1.9814611781122295,25.006976744186034
1.9824578889664106,-19.993023255813966
1.983454599820592,-41.993023255813966
1.984451310674773,-34.993023255813966
1.9854480215289543,-25.993023255813966
1.9864447323831356,-21.993023255813966
1.9874414432373166,-14.993023255813966
1.988438154091498,-18.993023255813966
1.989434864945679,-19.993023255813966
1.9904315757998603,-16.993023255813966
1.9914282866540416,-12.993023255813966
1.9924249975082227,-9.993023255813966
1.993421708362404,-4.993023255813966
1.994418419216585,-2.9930232558139664
1.9954151300707663,-3.9930232558139664
1.9964118409249474,-1.9930232558139664
1.9974085517791287,5.006976744186034
1.99840526263331,10.006976744186034
1.999401973487491,8.006976744186034
2.0003986843416723,14.006976744186034
2.0013953951958534,12.006976744186034
2.0023921060500345,-8.993023255813966
2.003388816904216,-23.993023255813966
2.004385527758397,-22.993023255813966
2.005382238612578,-15.993023255813966
2.0063789494667597,8.006976744186034
2.0073756603209407,35.006976744186034
2.008372371175122,39.006976744186034
2.0093690820293033,25.006976744186034
2.0103657928834844,8.006976744186034
2.0113625037376655,-7.993023255813966
2.0123592145918465,-25.993023255813966
2.013355925446028,-21.993023255813966
2.014352636300209,-11.993023255813966
2.01534934715439,-1.9930232558139664
2.0163460580085717,11.006976744186034
2.0173427688627528,14.006976744186034
2.018339479716934,11.006976744186034
2.0193361905711154,6.006976744186034
2.0203329014252964,8.006976744186034
2.0213296122794775,3.0069767441860336
2.0223263231336586,3.0069767441860336
2.02332303398784,-7.993023255813966
2.024319744842021,0.006976744186033557
2.0253164556962022,-2.9930232558139664
2.0263131665503837,-4.993023255813966
2.027309877404565,-8.993023255813966
2.028306588258746,-10.993023255813966
2.029303299112927,-14.993023255813966
2.0303000099671085,-14.993023255813966
2.0312967208212895,-5.993023255813966
2.0322934316754706,0.006976744186033557
2.033290142529652,4.006976744186034
2.034286853383833,16.006976744186034
2.0352835642380143,19.006976744186034
2.036280275092196,12.006976744186034
2.037276985946377,5.006976744186034
2.038273696800558,8.006976744186034
2.039270407654739,6.006976744186034
2.0402671185089205,6.006976744186034
2.0412638293631016,2.0069767441860336
2.0422605402172826,4.006976744186034
2.043257251071464,4.006976744186034
2.0442539619256452,-2.9930232558139664
2.0452506727798263,-4.993023255813966
2.0462473836340074,-8.993023255813966
2.047244094488189,-9.993023255813966
2.04824080534237,-10.993023255813966
2.049237516196551,-8.993023255813966
2.0502342270507325,-7.993023255813966
2.0512309379049136,-4.993023255813966
2.0522276487590947,-2.9930232558139664
2.053224359613276,1.0069767441860336
2.0542210704674573,-1.9930232558139664
2.0552177813216383,0.006976744186033557
2.0562144921758194,4.006976744186034
2.057211203030001,11.006976744186034
2.058207913884182,15.006976744186034
2.059204624738363,20.006976744186034
2.0602013355925446,8.006976744186034
2.0611980464467257,10.006976744186034
2.0621947573009067,18.006976744186034
2.063191468155088,29.006976744186034
2.0641881790092693,12.006976744186034
2.0651848898634504,-12.993023255813966
2.0661816007176315,-27.993023255813966
2.067178311571813,-23.993023255813966
2.068175022425994,-6.993023255813966
2.069171733280175,0.006976744186033557
2.0701684441343566,2.0069767441860336
2.0711651549885377,3.0069767441860336
2.0721618658427188,-1.9930232558139664
2.0731585766969,-0.9930232558139664
2.0741552875510814,0.006976744186033557
2.0751519984052624,-1.9930232558139664
2.0761487092594435,1.0069767441860336
2.077145420113625,1.0069767441860336
2.078142130967806,4.006976744186034
2.079138841821987,4.006976744186034
2.0801355526761687,3.0069767441860336
2.0811322635303497,3.0069767441860336
2.082128974384531,0.006976744186033557
2.083125685238712,-3.9930232558139664
2.0841223960928934,-5.993023255813966
2.0851191069470745,-6.993023255813966
2.0861158178012555,-8.993023255813966
2.087112528655437,-10.993023255813966
2.088109239509618,-9.993023255813966
2.089105950363799,-8.993023255813966
2.0901026612179803,-7.993023255813966
2.091099372072162,-4.993023255813966
2.092096082926343,0.006976744186033557
2.093092793780524,1.0069767441860336
2.0940895046347054,2.0069767441860336
2.0950862154888865,4.006976744186034
2.0960829263430676,9.006976744186034
2.097079637197249,12.006976744186034
2.09807634805143,8.006976744186034
2.0990730589056112,7.006976744186034
2.1000697697597923,5.006976744186034
2.101066480613974,7.006976744186034
2.102063191468155,1.0069767441860336
2.103059902322336,-0.9930232558139664
2.1040566131765175,-4.993023255813966
2.1050533240306986,-3.9930232558139664
2.1060500348848796,-6.993023255813966
2.1070467457390607,-8.993023255813966
2.108043456593242,-6.993023255813966
2.1090401674474233,-9.993023255813966
2.1100368783016044,-4.993023255813966
2.111033589155786,-3.9930232558139664
2.112030300009967,-2.9930232558139664
2.113027010864148,2.0069767441860336
2.1140237217183295,3.0069767441860336
2.1150204325725106,3.0069767441860336
2.1160171434266917,7.006976744186034
2.1170138542808727,9.006976744186034
2.1180105651350543,9.006976744186034
2.1190072759892353,8.006976744186034
2.1200039868434164,9.006976744186034
2.121000697697598,6.006976744186034
2.121997408551779,2.0069767441860336
2.12299411940596,1.0069767441860336
2.123990830260141,-7.993023255813966
2.1249875411143226,-7.993023255813966
2.1259842519685037,-8.993023255813966
2.126980962822685,-12.993023255813966
2.1279776736768663,-12.993023255813966
2.1289743845310474,-10.993023255813966
2.1299710953852284,-9.993023255813966
2.13096780623941,-6.993023255813966
2.131964517093591,-1.9930232558139664
2.132961227947772,-0.9930232558139664
2.133957938801953,2.0069767441860336
2.1349546496561347,4.006976744186034
2.1359513605103158,7.006976744186034
2.136948071364497,10.006976744186034
2.1379447822186783,9.006976744186034
2.1389414930728594,8.006976744186034
2.1399382039270405,8.006976744186034
2.1409349147812216,6.006976744186034
2.141931625635403,3.0069767441860336
2.142928336489584,-1.9930232558139664
2.143925047343765,-3.9930232558139664
2.1449217581979467,-6.993023255813966
2.145918469052128,-6.993023255813966
2.146915179906309,-10.993023255813966
2.1479118907604904,-7.993023255813966
2.1489086016146715,-9.993023255813966
2.1499053124688525,-5.993023255813966
2.1509020233230336,-1.9930232558139664
2.151898734177215,-0.9930232558139664
2.152895445031396,2.0069767441860336
2.1538921558855773,3.0069767441860336
2.1548888667397588,6.006976744186034
2.15588557759394,9.006976744186034
2.156882288448121,9.006976744186034
2.1578789993023024,10.006976744186034
2.1588757101564835,9.006976744186034
2.1598724210106646,7.006976744186034
2.1608691318648456,7.006976744186034
2.161865842719027,5.006976744186034
2.1628625535732082,1.0069767441860336
2.1638592644273893,-2.9930232558139664
2.164855975281571,-4.993023255813966
2.165852686135752,-8.993023255813966
2.166849396989933,-9.993023255813966
2.167846107844114,-6.993023255813966
2.1688428186982955,-10.993023255813966
2.1698395295524766,-7.993023255813966
2.1708362404066577,-3.9930232558139664
2.171832951260839,-1.9930232558139664
2.1728296621150203,4.006976744186034
2.1738263729692013,5.006976744186034
2.174823083823383,7.006976744186034
2.175819794677564,7.006976744186034
2.176816505531745,8.006976744186034
2.177813216385926,10.006976744186034
2.1788099272401076,8.006976744186034
2.1798066380942887,6.006976744186034
2.1808033489484697,8.006976744186034
2.1818000598026512,2.0069767441860336
2.1827967706568323,-0.9930232558139664
2.1837934815110134,-0.9930232558139664
2.1847901923651945,-3.9930232558139664
2.185786903219376,-9.993023255813966
2.186783614073557,-10.993023255813966
2.187780324927738,-8.993023255813966
2.1887770357819196,-10.993023255813966
2.1897737466361007,-5.993023255813966
2.1907704574902818,-4.993023255813966
2.1917671683444633,-1.9930232558139664
2.1927638791986444,3.0069767441860336
2.1937605900528254,1.0069767441860336
2.1947573009070065,5.006976744186034
2.195754011761188,8.006976744186034
2.196750722615369,8.006976744186034
2.19774743346955,10.006976744186034
2.1987441443237317,8.006976744186034
2.1997408551779127,4.006976744186034
2.200737566032094,5.006976744186034
2.201734276886275,2.0069767441860336
2.2027309877404564,-2.9930232558139664
2.2037276985946375,-2.9930232558139664
2.2047244094488185,-3.9930232558139664
2.205721120303,-7.993023255813966
2.206717831157181,-10.993023255813966
2.207714542011362,-10.993023255813966
2.2087112528655437,-10.993023255813966
2.2097079637197248,-7.993023255813966
2.210704674573906,-4.993023255813966
2.211701385428087,-1.9930232558139664
2.2126980962822684,1.0069767441860336
2.2136948071364495,2.0069767441860336
2.2146915179906306,4.006976744186034
2.215688228844812,7.006976744186034
2.216684939698993,9.006976744186034
2.2176816505531742,9.006976744186034
2.2186783614073553,7.006976744186034
2.219675072261537,4.006976744186034
2.220671783115718,5.006976744186034
2.221668493969899,1.0069767441860336
2.2226652048240805,0.006976744186033557
2.2236619156782615,-3.9930232558139664
2.2246586265324426,-6.993023255813966
2.225655337386624,-6.993023255813966
2.226652048240805,-11.993023255813966
2.2276487590949863,-11.993023255813966
2.2286454699491673,-10.993023255813966
2.229642180803349,-5.993023255813966
2.23063889165753,-5.993023255813966
2.231635602511711,-2.9930232558139664
2.2326323133658925,2.0069767441860336
2.2336290242200736,2.0069767441860336
2.2346257350742547,5.006976744186034
2.235622445928436,7.006976744186034
2.2366191567826172,8.006976744186034
2.2376158676367983,8.006976744186034
2.2386125784909794,9.006976744186034
2.239609289345161,9.006976744186034
2.240606000199342,5.006976744186034
2.241602711053523,1.0069767441860336
2.2425994219077046,-2.9930232558139664
2.2435961327618856,-2.9930232558139664
2.2445928436160667,-5.993023255813966
2.2455895544702478,-8.993023255813966
2.2465862653244293,-8.993023255813966
2.2475829761786104,-9.993023255813966
2.2485796870327914,-10.993023255813966
2.249576397886973,-7.993023255813966
2.250573108741154,-2.9930232558139664
2.251569819595335,0.006976744186033557
2.2525665304495166,2.0069767441860336
2.2535632413036977,5.006976744186034
2.2545599521578787,5.006976744186034
2.25555666301206,7.006976744186034
2.2565533738662413,7.006976744186034
2.2575500847204224,7.006976744186034
2.2585467955746035,9.006976744186034
2.259543506428785,9.006976744186034
2.260540217282966,9.006976744186034
2.261536928137147,4.006976744186034
2.262533638991328,1.0069767441860336
2.2635303498455097,0.006976744186033557
2.264527060699691,-2.9930232558139664
2.265523771553872,-7.993023255813966
2.2665204824080534,-8.993023255813966
2.2675171932622344,-10.993023255813966
2.2685139041164155,-8.993023255813966
2.269510614970597,-6.993023255813966
2.270507325824778,-2.9930232558139664
2.271504036678959,-2.9930232558139664
2.2725007475331402,1.0069767441860336
2.2734974583873218,2.0069767441860336
2.274494169241503,5.006976744186034
2.275490880095684,8.006976744186034
2.2764875909498654,9.006976744186034
2.2774843018040465,8.006976744186034
2.2784810126582276,10.006976744186034
2.2794777235124086,7.006976744186034
2.28047443436659,8.006976744186034
2.281471145220771,6.006976744186034
2.2824678560749523,2.0069767441860336
2.283464566929134,-0.9930232558139664
2.284461277783315,-3.9930232558139664
2.285457988637496,-8.993023255813966
2.2864546994916775,-11.993023255813966
2.2874514103458585,-9.993023255813966
2.2884481212000396,-9.993023255813966
2.2894448320542207,-4.993023255813966
2.290441542908402,-3.9930232558139664
2.2914382537625833,-2.9930232558139664
2.2924349646167643,0.006976744186033557
2.293431675470946,4.006976744186034
2.294428386325127,6.006976744186034
2.295425097179308,8.006976744186034
2.2964218080334895,8.006976744186034
2.2974185188876706,8.006976744186034
2.2984152297418516,9.006976744186034
2.2994119405960327,6.006976744186034
2.3004086514502142,5.006976744186034
2.3014053623043953,2.0069767441860336
2.3024020731585764,-1.9930232558139664
2.303398784012758,-3.9930232558139664
2.304395494866939,-5.993023255813966
2.30539220572112,-7.993023255813966
2.306388916575301,-10.993023255813966
2.3073856274294826,-10.993023255813966
2.3083823382836637,-8.993023255813966
2.3093790491378448,-3.9930232558139664
2.3103757599920263,-2.9930232558139664
2.3113724708462073,-1.9930232558139664
2.3123691817003884,2.0069767441860336
2.31336589255457,5.006976744186034
2.314362603408751,5.006976744186034
2.315359314262932,9.006976744186034
2.316356025117113,10.006976744186034
2.3173527359712947,8.006976744186034
2.3183494468254757,10.006976744186034
2.319346157679657,5.006976744186034
2.3203428685338383,4.006976744186034
2.3213395793880194,1.0069767441860336
2.3223362902422005,-0.9930232558139664
2.3233330010963815,-3.9930232558139664
2.324329711950563,-4.993023255813966
2.325326422804744,-6.993023255813966
2.326323133658925,-11.993023255813966
2.3273198445131067,-7.993023255813966
2.3283165553672878,-8.993023255813966
2.329313266221469,-7.993023255813966
2.3303099770756504,-5.993023255813966
2.3313066879298314,1.0069767441860336
2.3323033987840125,3.0069767441860336
2.3333001096381936,4.006976744186034
2.334296820492375,5.006976744186034
2.335293531346556,10.006976744186034
2.336290242200737,10.006976744186034
2.3372869530549187,8.006976744186034
2.3382836639091,5.006976744186034
2.339280374763281,5.006976744186034
2.340277085617462,5.006976744186034
2.3412737964716435,3.0069767441860336
2.3422705073258245,1.0069767441860336
2.3432672181800056,-3.9930232558139664
2.344263929034187,-4.993023255813966
2.345260639888368,-6.993023255813966
2.3462573507425493,-11.993023255813966
2.347254061596731,-8.993023255813966
2.348250772450912,-9.993023255813966
2.349247483305093,-3.9930232558139664
2.350244194159274,-0.9930232558139664
2.3512409050134555,-3.9930232558139664
2.3522376158676366,3.0069767441860336
2.3532343267218176,3.0069767441860336
2.354231037575999,4.006976744186034
2.3552277484301802,6.006976744186034
2.3562244592843613,8.006976744186034
2.3572211701385424,9.006976744186034
2.358217880992724,6.006976744186034
2.359214591846905,6.006976744186034
2.360211302701086,4.006976744186034
2.3612080135552675,3.0069767441860336
2.3622047244094486,1.0069767441860336
2.3632014352636297,-3.9930232558139664
2.364198146117811,-4.993023255813966
2.3651948569719923,-8.993023255813966
2.3661915678261733,-10.993023255813966
2.3671882786803544,-10.993023255813966
2.368184989534536,-7.993023255813966
2.369181700388717,-5.993023255813966
2.370178411242898,-2.9930232558139664
2.3711751220970796,-3.9930232558139664
2.3721718329512607,0.006976744186033557
2.3731685438054417,2.0069767441860336
2.3741652546596232,5.006976744186034
2.3751619655138043,7.006976744186034
2.3761586763679854,8.006976744186034
2.3771553872221665,11.006976744186034
2.378152098076348,9.006976744186034
2.379148808930529,5.006976744186034
2.38014551978471,5.006976744186034
2.3811422306388916,3.0069767441860336
2.3821389414930727,-1.9930232558139664
2.3831356523472538,-3.9930232558139664
2.384132363201435,-6.993023255813966
2.3851290740556164,-8.993023255813966
2.3861257849097974,-7.993023255813966
2.3871224957639785,-8.993023255813966
2.38811920661816,-10.993023255813966
2.389115917472341,-5.993023255813966
2.390112628326522,-2.9930232558139664
2.3911093391807037,-1.9930232558139664
2.3921060500348847,2.0069767441860336
2.393102760889066,3.0069767441860336
2.394099471743247,5.006976744186034
2.3950961825974284,6.006976744186034
2.3960928934516095,5.006976744186034
2.3970896043057905,9.006976744186034
2.398086315159972,8.006976744186034
2.399083026014153,5.006976744186034
2.400079736868334,5.006976744186034
2.4010764477225153,2.0069767441860336
2.402073158576697,0.006976744186033557
2.403069869430878,-4.993023255813966
2.404066580285059,-5.993023255813966
2.4050632911392404,-8.993023255813966
2.4060600019934215,-7.993023255813966
2.4070567128476026,-7.993023255813966
2.408053423701784,-6.993023255813966
2.409050134555965,-4.993023255813966
2.4100468454101462,-0.9930232558139664
2.4110435562643273,0.006976744186033557
2.412040267118509,1.0069767441860336
2.41303697797269,5.006976744186034
2.414033688826871,3.0069767441860336
2.4150303996810525,7.006976744186034
2.4160271105352336,5.006976744186034
2.4170238213894146,7.006976744186034
2.4180205322435957,7.006976744186034
2.419017243097777,5.006976744186034
2.4200139539519583,8.006976744186034
2.4210106648061394,4.006976744186034
2.422007375660321,-2.9930232558139664
2.423004086514502,-3.9930232558139664
2.424000797368683,-3.9930232558139664
2.4249975082228645,-7.993023255813966
2.4259942190770456,-8.993023255813966
2.4269909299312267,-10.993023255813966
2.4279876407854077,-9.993023255813966
2.4289843516395893,-7.993023255813966
2.4299810624937703,-3.9930232558139664
2.4309777733479514,-2.9930232558139664
2.431974484202133,4.006976744186034
2.432971195056314,4.006976744186034
2.433967905910495,5.006976744186034
2.434964616764676,8.006976744186034
2.4359613276188576,6.006976744186034
2.4369580384730387,9.006976744186034
2.43795474932722,9.006976744186034
2.4389514601814013,7.006976744186034
2.4399481710355824,5.006976744186034
2.4409448818897634,4.006976744186034
2.441941592743945,0.006976744186033557
2.442938303598126,-3.9930232558139664
2.443935014452307,-4.993023255813966
2.444931725306488,-9.993023255813966
2.4459284361606697,-9.993023255813966
2.4469251470148508,-6.993023255813966
2.447921857869032,-7.993023255813966
2.4489185687232133,-4.993023255813966
2.4499152795773944,-3.9930232558139664
2.4509119904315755,-2.9930232558139664
2.451908701285757,2.0069767441860336
2.452905412139938,4.006976744186034
2.453902122994119,6.006976744186034
2.4548988338483,9.006976744186034
2.4558955447024817,9.006976744186034
2.456892255556663,8.006976744186034
2.457888966410844,6.006976744186034
2.4588856772650254,6.006976744186034
2.4598823881192065,8.006976744186034
2.4608790989733875,6.006976744186034
2.4618758098275686,0.006976744186033557
2.46287252068175,-2.9930232558139664
2.463869231535931,-3.9930232558139664
2.4648659423901123,-6.993023255813966
2.4658626532442938,-10.993023255813966
2.466859364098475,-8.993023255813966
2.467856074952656,-7.993023255813966
2.4688527858068374,-4.993023255813966
2.4698494966610185,-2.9930232558139664
2.4708462075151996,-0.9930232558139664
2.4718429183693806,0.006976744186033557
2.472839629223562,3.0069767441860336
2.4738363400777432,5.006976744186034
2.4748330509319243,7.006976744186034
2.475829761786106,7.006976744186034
2.476826472640287,11.006976744186034
2.477823183494468,11.006976744186034
2.478819894348649,5.006976744186034
2.4798166052028305,4.006976744186034
2.4808133160570116,0.006976744186033557
2.4818100269111927,1.0069767441860336
2.482806737765374,-0.9930232558139664
2.4838034486195553,-7.993023255813966
2.4848001594737363,-6.993023255813966
2.485796870327918,-10.993023255813966
2.486793581182099,-9.993023255813966
2.48779029203628,-9.993023255813966
2.488787002890461,-5.993023255813966
2.4897837137446426,-2.9930232558139664
2.4907804245988237,-1.9930232558139664
2.4917771354530047,2.0069767441860336
2.4927738463071862,4.006976744186034
2.4937705571613673,5.006976744186034
2.4947672680155484,8.006976744186034
2.4957639788697294,7.006976744186034
2.496760689723911,7.006976744186034
2.497757400578092,8.006976744186034
2.498754111432273,6.006976744186034
2.4997508222864546,7.006976744186034
2.5007475331406357,1.0069767441860336
2.5017442439948168,-1.9930232558139664
2.5027409548489983,-3.9930232558139664
2.5037376657031793,-4.993023255813966
2.5047343765573604,-9.993023255813966
2.5057310874115415,-7.993023255813966
2.506727798265723,-9.993023255813966
2.507724509119904,-7.993023255813966
2.508721219974085,-4.993023255813966
2.5097179308282667,-2.9930232558139664
2.5107146416824477,-1.9930232558139664
2.511711352536629,2.0069767441860336
2.51270806339081,3.0069767441860336
2.5137047742449914,5.006976744186034
2.5147014850991725,6.006976744186034
2.5156981959533535,11.006976744186034
2.516694906807535,8.006976744186034
2.517691617661716,8.006976744186034
2.518688328515897,5.006976744186034
2.5196850393700787,7.006976744186034
2.5206817502242598,2.0069767441860336
2.521678461078441,-1.9930232558139664
2.522675171932622,-3.9930232558139664
2.5236718827868034,-5.993023255813966
2.5246685936409845,-7.993023255813966
2.5256653044951656,-10.993023255813966
2.526662015349347,-9.993023255813966
2.527658726203528,-8.993023255813966
2.5286554370577092,-4.993023255813966
2.5296521479118907,-2.9930232558139664
2.530648858766072,-0.9930232558139664
2.531645569620253,1.0069767441860336
2.532642280474434,2.0069767441860336
2.5336389913286155,4.006976744186034
2.5346357021827965,8.006976744186034
2.5356324130369776,7.006976744186034
2.536629123891159,8.006976744186034
2.53762583474534,8.006976744186034
2.5386225455995213,8.006976744186034
2.5396192564537023,4.006976744186034
2.540615967307884,2.0069767441860336
2.541612678162065,-3.9930232558139664
2.542609389016246,-2.9930232558139664
2.5436060998704275,-3.9930232558139664
2.5446028107246086,-5.993023255813966
2.5455995215787897,-10.993023255813966
2.546596232432971,-8.993023255813966
2.5475929432871522,-6.993023255813966
2.5485896541413333,-4.993023255813966
2.5495863649955144,-4.993023255813966
2.550583075849696,-4.993023255813966
2.551579786703877,3.0069767441860336
2.552576497558058,4.006976744186034
2.5535732084122396,4.006976744186034
2.5545699192664206,9.006976744186034
2.5555666301206017,8.006976744186034
2.5565633409747828,7.006976744186034
2.5575600518289643,7.006976744186034
2.5585567626831454,6.006976744186034
2.5595534735373264,5.006976744186034
2.560550184391508,4.006976744186034
2.561546895245689,0.006976744186033557
2.56254360609987,-2.9930232558139664
2.5635403169540516,-4.993023255813966
2.5645370278082327,-9.993023255813966
2.5655337386624137,-8.993023255813966
2.566530449516595,-8.993023255813966
2.5675271603707763,-8.993023255813966
2.5685238712249574,-4.993023255813966
2.5695205820791385,-5.993023255813966
2.57051729293332,-1.9930232558139664
2.571514003787501,1.0069767441860336
2.572510714641682,3.0069767441860336
2.573507425495863,5.006976744186034
2.5745041363500447,9.006976744186034
2.575500847204226,6.006976744186034
2.576497558058407,7.006976744186034
2.5774942689125884,8.006976744186034
2.5784909797667694,9.006976744186034
2.5794876906209505,5.006976744186034
2.580484401475132,2.0069767441860336
2.581481112329313,-1.9930232558139664
2.582477823183494,-3.9930232558139664
2.5834745340376752,-5.993023255813966
2.5844712448918568,-9.993023255813966
2.585467955746038,-8.993023255813966
2.586464666600219,-8.993023255813966
2.5874613774544004,-7.993023255813966
2.5884580883085815,-6.993023255813966
2.5894547991627626,-3.9930232558139664
2.590451510016944,-3.9930232558139664
2.591448220871125,3.0069767441860336
2.592444931725306,4.006976744186034
2.5934416425794873,5.006976744186034
2.594438353433669,8.006976744186034
2.59543506428785,10.006976744186034
2.596431775142031,10.006976744186034
2.5974284859962125,8.006976744186034
2.5984251968503935,7.006976744186034
2.5994219077045746,7.006976744186034
2.6004186185587557,4.006976744186034
2.601415329412937,-2.9930232558139664
2.6024120402671183,-1.9930232558139664
2.6034087511212993,-3.9930232558139664
2.604405461975481,-8.993023255813966
2.605402172829662,-6.993023255813966
2.606398883683843,-8.993023255813966
2.6073955945380245,-10.993023255813966
2.6083923053922056,-7.993023255813966
2.6093890162463866,-3.9930232558139664
2.6103857271005677,-0.9930232558139664
2.6113824379547492,2.0069767441860336
2.6123791488089303,2.0069767441860336
2.6133758596631114,4.006976744186034
2.614372570517293,7.006976744186034
2.615369281371474,6.006976744186034
2.616365992225655,9.006976744186034
2.617362703079836,9.006976744186034
2.6183594139340176,7.006976744186034
2.6193561247881987,6.006976744186034
2.6203528356423798,3.0069767441860336
2.6213495464965613,0.006976744186033557
2.6223462573507423,-0.9930232558139664
2.6233429682049234,-2.9930232558139664
2.624339679059105,-7.993023255813966
2.625336389913286,-9.993023255813966
2.626333100767467,-11.993023255813966
2.627329811621648,-9.993023255813966
2.6283265224758297,-6.993023255813966
2.6293232333300107,-4.993023255813966
2.630319944184192,-2.9930232558139664
2.6313166550383733,2.0069767441860336
2.6323133658925544,3.0069767441860336
2.6333100767467355,6.006976744186034
2.6343067876009165,7.006976744186034
2.635303498455098,8.006976744186034
2.636300209309279,9.006976744186034
2.63729692016346,8.006976744186034
2.6382936310176417,7.006976744186034
2.6392903418718228,5.006976744186034
2.640287052726004,1.0069767441860336
2.6412837635801854,-0.9930232558139664
2.6422804744343664,-4.993023255813966
2.6432771852885475,-2.9930232558139664
2.6442738961427286,-6.993023255813966
2.64527060699691,-10.993023255813966
2.646267317851091,-8.993023255813966
2.647264028705272,-8.993023255813966
2.6482607395594537,-6.993023255813966
2.649257450413635,-3.9930232558139664
2.650254161267816,0.006976744186033557
2.651250872121997,2.0069767441860336
2.6522475829761785,5.006976744186034
2.6532442938303595,5.006976744186034
2.6542410046845406,6.006976744186034
2.655237715538722,11.006976744186034
2.656234426392903,9.006976744186034
2.6572311372470843,9.006976744186034
2.6582278481012658,8.006976744186034
2.659224558955447,4.006976744186034
2.660221269809628,3.0069767441860336
2.661217980663809,0.006976744186033557
2.6622146915179905,-5.993023255813966
2.6632114023721716,-5.993023255813966
2.6642081132263526,-7.993023255813966
2.665204824080534,-10.993023255813966
2.6662015349347152,-9.993023255813966
2.6671982457888963,-9.993023255813966
2.668194956643078,-6.993023255813966
2.669191667497259,-2.9930232558139664
2.67018837835144,-1.9930232558139664
2.671185089205621,2.0069767441860336
2.6721818000598025,3.0069767441860336
2.6731785109139836,6.006976744186034
2.6741752217681647,7.006976744186034
2.675171932622346,8.006976744186034
2.6761686434765273,9.006976744186034
2.6771653543307083,8.006976744186034
2.6781620651848894,5.006976744186034
2.679158776039071,6.006976744186034
2.680155486893252,2.0069767441860336
2.681152197747433,1.0069767441860336
2.6821489086016146,-4.993023255813966
2.6831456194557957,-6.993023255813966
2.6841423303099767,-7.993023255813966
2.6851390411641582,-7.993023255813966
2.6861357520183393,-7.993023255813966
2.6871324628725204,-10.993023255813966
2.6881291737267015,-7.993023255813966
2.689125884580883,-3.9930232558139664
2.690122595435064,1.0069767441860336
2.691119306289245,3.0069767441860336
2.6921160171434266,2.0069767441860336
2.6931127279976077,3.0069767441860336
2.6941094388517888,6.006976744186034
2.69510614970597,7.006976744186034
2.6961028605601514,9.006976744186034
2.6970995714143324,10.006976744186034
2.6980962822685135,8.006976744186034
2.699092993122695,5.006976744186034
2.700089703976876,3.0069767441860336
2.701086414831057,0.006976744186033557
2.7020831256852387,-3.9930232558139664
2.7030798365394197,-6.993023255813966
2.704076547393601,-8.993023255813966
2.705073258247782,-9.993023255813966
2.7060699691019634,-8.993023255813966
2.7070666799561445,-9.993023255813966
2.7080633908103255,-8.993023255813966
2.709060101664507,-4.993023255813966
2.710056812518688,0.006976744186033557
2.711053523372869,3.0069767441860336
2.7120502342270503,2.0069767441860336
2.713046945081232,5.006976744186034
2.714043655935413,9.006976744186034
2.715040366789594,8.006976744186034
2.7160370776437754,7.006976744186034
2.7170337884979565,7.006976744186034
2.7180304993521376,7.006976744186034
2.719027210206319,7.006976744186034
2.7200239210605,4.006976744186034
2.7210206319146812,1.0069767441860336
2.7220173427688623,-2.9930232558139664
2.723014053623044,-4.993023255813966
2.724010764477225,-7.993023255813966
2.725007475331406,-9.993023255813966
2.7260041861855875,-10.993023255813966
2.7270008970397686,-9.993023255813966
2.7279976078939496,-6.993023255813966
2.7289943187481307,-4.993023255813966
2.729991029602312,-1.9930232558139664
2.7309877404564933,1.0069767441860336
2.7319844513106744,3.0069767441860336
2.732981162164856,4.006976744186034
2.733977873019037,8.006976744186034
2.734974583873218,6.006976744186034
2.7359712947273995,9.006976744186034
2.7369680055815806,10.006976744186034
2.7379647164357617,10.006976744186034
2.7389614272899427,7.006976744186034
2.7399581381441243,4.006976744186034
2.7409548489983053,-1.9930232558139664
2.7419515598524864,-2.9930232558139664
2.742948270706668,-5.993023255813966
2.743944981560849,-4.993023255813966
2.74494169241503,-10.993023255813966
2.7459384032692116,-6.993023255813966
2.7469351141233926,-10.993023255813966
2.7479318249775737,-7.993023255813966
2.748928535831755,-2.9930232558139664
2.7499252466859363,-3.9930232558139664
2.7509219575401174,1.0069767441860336
2.7519186683942984,2.0069767441860336
2.75291537924848,6.006976744186034
2.753912090102661,11.006976744186034
2.754908800956842,8.006976744186034
2.755905511811023,9.006976744186034
2.7569022226652047,11.006976744186034
2.7578989335193858,8.006976744186034
2.758895644373567,8.006976744186034
2.7598923552277483,2.0069767441860336
2.7608890660819294,-0.9930232558139664
2.7618857769361105,-5.993023255813966
2.762882487790292,-4.993023255813966
2.763879198644473,-6.993023255813966
2.764875909498654,-10.993023255813966
2.765872620352835,-9.993023255813966
2.7668693312070167,-9.993023255813966
2.767866042061198,-7.993023255813966
2.768862752915379,-5.993023255813966
2.7698594637695604,-2.9930232558139664
2.7708561746237415,1.0069767441860336
2.7718528854779225,3.0069767441860336
2.7728495963321036,6.006976744186034
2.773846307186285,10.006976744186034
2.774843018040466,8.006976744186034
2.7758397288946473,10.006976744186034
2.7768364397488288,9.006976744186034
2.77783315060301,8.006976744186034
2.778829861457191,4.006976744186034
2.7798265723113724,1.0069767441860336
2.7808232831655535,-1.9930232558139664
2.7818199940197346,-4.993023255813966
2.7828167048739156,-4.993023255813966
2.783813415728097,-9.993023255813966
2.7848101265822782,-9.993023255813966
2.7858068374364593,-7.993023255813966
2.786803548290641,-7.993023255813966
2.787800259144822,-7.993023255813966
2.788796969999003,-5.993023255813966
2.789793680853184,-2.9930232558139664
2.7907903917073655,1.0069767441860336
2.7917871025615466,4.006976744186034
2.7927838134157277,4.006976744186034
2.793780524269909,11.006976744186034
2.7947772351240903,8.006976744186034
2.7957739459782713,9.006976744186034
2.796770656832453,11.006976744186034
2.797767367686634,8.006976744186034
2.798764078540815,6.006976744186034
2.799760789394996,3.0069767441860336
2.8007575002491776,-0.9930232558139664
2.8017542111033586,-3.9930232558139664
2.8027509219575397,-6.993023255813966
2.8037476328117212,-8.993023255813966
2.8047443436659023,-10.993023255813966
2.8057410545200834,-9.993023255813966
2.8067377653742644,-9.993023255813966
2.807734476228446,-7.993023255813966
2.808731187082627,-2.9930232558139664
2.809727897936808,-1.9930232558139664
2.8107246087909896,3.0069767441860336
2.8117213196451707,1.0069767441860336
2.8127180304993518,6.006976744186034
2.8137147413535333,7.006976744186034
2.8147114522077143,7.006976744186034
2.8157081630618954,10.006976744186034
2.8167048739160765,10.006976744186034
2.817701584770258,8.006976744186034
2.818698295624439,7.006976744186034
2.81969500647862,1.0069767441860336
2.8206917173328017,-2.9930232558139664
2.8216884281869827,-2.9930232558139664
2.822685139041164,-4.993023255813966
2.8236818498953453,-8.993023255813966
2.8246785607495264,-10.993023255813966
2.8256752716037075,-7.993023255813966
2.8266719824578885,-8.993023255813966
2.82766869331207,-5.993023255813966
2.828665404166251,-4.993023255813966
2.829662115020432,0.006976744186033557
2.8306588258746137,1.0069767441860336
2.8316555367287948,1.0069767441860336
2.832652247582976,3.0069767441860336
2.833648958437157,6.006976744186034
2.8346456692913384,7.006976744186034
2.8356423801455195,9.006976744186034
2.8366390909997006,9.006976744186034
2.837635801853882,10.006976744186034
2.838632512708063,6.006976744186034
2.8396292235622442,2.0069767441860336
2.8406259344164257,0.006976744186033557
2.841622645270607,-2.9930232558139664
2.842619356124788,-5.993023255813966
2.843616066978969,-6.993023255813966
2.8446127778331505,-11.993023255813966
2.8456094886873315,-9.993023255813966
2.8466061995415126,-10.993023255813966
2.847602910395694,-10.993023255813966
2.848599621249875,-5.993023255813966
2.8495963321040563,-2.9930232558139664
2.8505930429582373,-1.9930232558139664
2.851589753812419,2.0069767441860336
2.8525864646666,4.006976744186034
2.853583175520781,7.006976744186034
2.8545798863749625,9.006976744186034
2.8555765972291436,12.006976744186034
2.8565733080833247,9.006976744186034
2.857570018937506,7.006976744186034
2.8585667297916872,5.006976744186034
2.8595634406458683,3.0069767441860336
2.8605601515000494,1.0069767441860336
2.861556862354231,-2.9930232558139664
2.862553573208412,-2.9930232558139664
2.863550284062593,-8.993023255813966
2.8645469949167746,-7.993023255813966
2.8655437057709556,-7.993023255813966
2.8665404166251367,-8.993023255813966
2.8675371274793178,-7.993023255813966
2.8685338383334993,-1.9930232558139664
2.8695305491876804,-1.9930232558139664
2.8705272600418614,2.0069767441860336
2.871523970896043,3.0069767441860336
2.872520681750224,4.006976744186034
2.873517392604405,7.006976744186034
2.8745141034585866,8.006976744186034
2.8755108143127677,8.006976744186034
2.8765075251669487,8.006976744186034
2.87750423602113,6.006976744186034
2.8785009468753113,7.006976744186034
2.8794976577294924,5.006976744186034
2.8804943685836735,-0.9930232558139664
2.881491079437855,-2.9930232558139664
2.882487790292036,-5.993023255813966
2.883484501146217,-9.993023255813966
2.8844812120003986,-7.993023255813966
2.8854779228545797,-7.993023255813966
2.886474633708761,-7.993023255813966
2.887471344562942,-7.993023255813966
2.8884680554171234,-3.9930232558139664
2.8894647662713044,-1.9930232558139664
2.8904614771254855,3.0069767441860336
2.891458187979667,2.0069767441860336
2.892454898833848,5.006976744186034
2.893451609688029,8.006976744186034
2.8944483205422102,6.006976744186034
2.8954450313963918,9.006976744186034
2.896441742250573,8.006976744186034
2.897438453104754,6.006976744186034
2.8984351639589354,8.006976744186034
2.8994318748131165,4.006976744186034
2.9004285856672976,-0.9930232558139664
2.901425296521479,-4.993023255813966
2.90242200737566,-4.993023255813966
2.903418718229841,-9.993023255813966
2.9044154290840223,-11.993023255813966
2.905412139938204,-11.993023255813966
2.906408850792385,-6.993023255813966
2.907405561646566,-4.993023255813966
2.9084022725007475,-4.993023255813966
2.9093989833549285,0.006976744186033557
2.9103956942091096,2.0069767441860336
2.9113924050632907,2.0069767441860336
2.912389115917472,4.006976744186034
2.9133858267716533,9.006976744186034
2.9143825376258343,9.006976744186034
2.915379248480016,9.006976744186034
2.916375959334197,8.006976744186034
2.917372670188378,8.006976744186034
2.9183693810425595,5.006976744186034
2.9193660918967406,1.0069767441860336
2.9203628027509216,1.0069767441860336
2.9213595136051027,-3.9930232558139664
2.9223562244592842,-4.993023255813966
2.9233529353134653,-9.993023255813966
2.9243496461676464,-8.993023255813966
2.925346357021828,-8.993023255813966
2.926343067876009,-8.993023255813966
2.92733977873019,-5.993023255813966
2.928336489584371,-4.993023255813966
2.9293332004385526,-2.9930232558139664
2.9303299112927337,3.0069767441860336
2.9313266221469148,5.006976744186034
2.9323233330010963,5.006976744186034
2.9333200438552773,6.006976744186034
2.9343167547094584,10.006976744186034
2.93531346556364,9.006976744186034
2.936310176417821,10.006976744186034
2.937306887272002,9.006976744186034
2.938303598126183,4.006976744186034
2.9393003089803647,2.0069767441860336
2.9402970198345457,-0.9930232558139664
2.941293730688727,-2.9930232558139664
2.9422904415429083,-7.993023255813966
2.9432871523970894,-8.993023255813966
2.9442838632512704,-8.993023255813966
2.9452805741054515,-10.993023255813966
2.946277284959633,-9.993023255813966
2.947273995813814,-3.9930232558139664
2.948270706667995,-4.993023255813966
2.9492674175221767,-0.9930232558139664
2.9502641283763578,1.0069767441860336
2.951260839230539,5.006976744186034
2.9522575500847204,4.006976744186034
2.9532542609389014,9.006976744186034
2.9542509717930825,9.006976744186034
2.9552476826472636,9.006976744186034
2.956244393501445,8.006976744186034
2.957241104355626,5.006976744186034
2.958237815209807,7.006976744186034
2.9592345260639887,3.0069767441860336
2.96023123691817,2.0069767441860336
2.961227947772351,-2.9930232558139664
2.9622246586265324,-5.993023255813966
2.9632213694807135,-8.993023255813966
2.9642180803348945,-8.993023255813966
2.9652147911890756,-10.993023255813966
2.966211502043257,-9.993023255813966
2.967208212897438,-7.993023255813966
2.9682049237516193,-4.993023255813966
2.9692016346058008,-0.9930232558139664
2.970198345459982,-0.9930232558139664
2.971195056314163,3.0069767441860336
2.972191767168344,3.0069767441860336
2.9731884780225255,8.006976744186034
2.9741851888767066,8.006976744186034
2.9751818997308876,8.006976744186034
2.976178610585069,9.006976744186034
2.9771753214392502,6.006976744186034
2.9781720322934313,5.006976744186034
2.979168743147613,4.006976744186034
2.980165454001794,0.006976744186033557
2.981162164855975,-3.9930232558139664
2.982158875710156,-6.993023255813966
2.9831555865643375,-5.993023255813966
2.9841522974185186,-10.993023255813966
2.9851490082726997,-9.993023255813966
2.986145719126881,-7.993023255813966
2.9871424299810623,-6.993023255813966
2.9881391408352433,-2.9930232558139664
2.9891358516894244,-1.9930232558139664
2.990132562543606,4.006976744186034
2.991129273397787,3.0069767441860336
2.992125984251968,4.006976744186034
2.9931226951061496,8.006976744186034
2.9941194059603307,7.006976744186034
2.9951161168145117,6.006976744186034
2.9961128276686932,9.006976744186034
2.9971095385228743,7.006976744186034
2.9981062493770554,8.006976744186034
2.9991029602312365,2.0069767441860336
3.000099671085418,-1.9930232558139664
3.001096381939599,-2.9930232558139664
3.00209309279378,-4.993023255813966
3.0030898036479616,-8.993023255813966
3.0040865145021427,-7.993023255813966
3.0050832253563238,-10.993023255813966
3.006079936210505,-7.993023255813966
3.0070766470646864,-5.993023255813966
3.0080733579188674,-3.9930232558139664
3.0090700687730485,-2.9930232558139664
3.01006677962723,4.006976744186034
3.011063490481411,5.006976744186034
3.012060201335592,5.006976744186034
3.0130569121897737,7.006976744186034
3.0140536230439547,8.006976744186034
3.015050333898136,7.006976744186034
3.016047044752317,10.006976744186034
3.0170437556064984,8.006976744186034
3.0180404664606795,5.006976744186034
3.0190371773148605,2.0069767441860336
3.020033888169042,-3.9930232558139664
3.021030599023223,-4.993023255813966
3.022027309877404,-5.993023255813966
3.0230240207315853,-8.993023255813966
3.024020731585767,-9.993023255813966
3.025017442439948,-8.993023255813966
3.026014153294129,-9.993023255813966
3.0270108641483104,-6.993023255813966
3.0280075750024915,-4.993023255813966
3.0290042858566726,1.0069767441860336
3.030000996710854,0.006976744186033557
3.030997707565035,3.0069767441860336
3.0319944184192162,4.006976744186034
3.0329911292733973,9.006976744186034
3.033987840127579,8.006976744186034
3.03498455098176,10.006976744186034
3.035981261835941,7.006976744186034
3.0369779726901225,7.006976744186034
3.0379746835443036,4.006976744186034
3.0389713943984846,2.0069767441860336
3.039968105252666,1.0069767441860336
3.040964816106847,-0.9930232558139664
3.0419615269610283,-4.993023255813966
3.0429582378152094,-6.993023255813966
3.043954948669391,-8.993023255813966
3.044951659523572,-10.993023255813966
3.045948370377753,-8.993023255813966
3.0469450812319345,-4.993023255813966
3.0479417920861156,-3.9930232558139664
3.0489385029402967,-2.9930232558139664
3.0499352137944777,2.0069767441860336
3.0509319246486593,2.0069767441860336
3.0519286355028403,4.006976744186034
3.0529253463570214,7.006976744186034
3.053922057211203,10.006976744186034
3.054918768065384,8.006976744186034
3.055915478919565,10.006976744186034
3.0569121897737466,8.006976744186034
3.0579089006279276,5.006976744186034
3.0589056114821087,2.0069767441860336
3.05990232233629,-0.9930232558139664
3.0608990331904713,-3.9930232558139664
3.0618957440446524,-3.9930232558139664
3.0628924548988334,-9.993023255813966
3.063889165753015,-9.993023255813966
3.064885876607196,-7.993023255813966
3.065882587461377,-7.993023255813966
3.066879298315558,-6.993023255813966
3.0678760091697397,-2.9930232558139664
3.0688727200239208,1.0069767441860336
3.069869430878102,3.0069767441860336
3.0708661417322833,3.0069767441860336
3.0718628525864644,4.006976744186034
3.0728595634406455,8.006976744186034
3.073856274294827,8.006976744186034
3.074852985149008,6.006976744186034
3.075849696003189,9.006976744186034
3.07684640685737,6.006976744186034
3.0778431177115517,5.006976744186034
3.078839828565733,5.006976744186034
3.079836539419914,1.0069767441860336
3.0808332502740954,-2.9930232558139664
3.0818299611282765,-5.993023255813966
3.0828266719824575,-9.993023255813966
3.0838233828366386,-9.993023255813966
3.08482009369082,-9.993023255813966
3.085816804545001,-8.993023255813966
3.0868135153991823,-6.993023255813966
3.0878102262533638,-1.9930232558139664
3.088806937107545,-2.9930232558139664
3.089803647961726,1.0069767441860336
3.0908003588159074,4.006976744186034
3.0917970696700885,4.006976744186034
3.0927937805242696,8.006976744186034
3.0937904913784506,10.006976744186034
3.094787202232632,7.006976744186034
3.095783913086813,8.006976744186034
3.0967806239409943,6.006976744186034
3.097777334795176,5.006976744186034
3.098774045649357,2.0069767441860336
3.099770756503538,-1.9930232558139664
3.1007674673577195,-1.9930232558139664
3.1017641782119005,-2.9930232558139664
3.1027608890660816,-6.993023255813966
3.1037575999202627,-7.993023255813966
3.104754310774444,-7.993023255813966
3.1057510216286253,-10.993023255813966
3.1067477324828063,-6.993023255813966
3.107744443336988,-4.993023255813966
3.108741154191169,-1.9930232558139664
3.10973786504535,-0.9930232558139664
3.110734575899531,3.0069767441860336
3.1117312867537126,6.006976744186034
3.1127279976078936,6.006976744186034
3.1137247084620747,8.006976744186034
3.1147214193162562,8.006976744186034
3.1157181301704373,10.006976744186034
3.1167148410246184,8.006976744186034
3.1177115518788,3.0069767441860336
3.118708262732981,2.0069767441860336
3.119704973587162,0.006976744186033557
3.120701684441343,-4.993023255813966
3.1216983952955246,-3.9930232558139664
3.1226951061497057,-9.993023255813966
3.1236918170038868,-9.993023255813966
3.1246885278580683,-11.993023255813966
3.1256852387122493,-4.993023255813966
3.1266819495664304,-4.993023255813966
3.1276786604206115,-2.9930232558139664
3.128675371274793,-1.9930232558139664
3.129672082128974,1.0069767441860336
3.130668792983155,3.0069767441860336
3.1316655038373367,5.006976744186034
3.1326622146915177,8.006976744186034
3.133658925545699,8.006976744186034
3.1346556363998803,8.006976744186034
3.1356523472540614,6.006976744186034
3.1366490581082425,8.006976744186034
3.1376457689624235,6.006976744186034
3.138642479816605,3.0069767441860336
3.139639190670786,-1.9930232558139664
3.140635901524967,-2.9930232558139664
3.1416326123791487,-6.993023255813966
3.1426293232333298,-8.993023255813966
3.143626034087511,-8.993023255813966
3.144622744941692,-9.993023255813966
3.1456194557958734,-8.993023255813966
3.1466161666500545,-7.993023255813966
3.1476128775042356,-1.9930232558139664
3.148609588358417,-2.9930232558139664
3.149606299212598,3.0069767441860336
3.1506030100667792,4.006976744186034
3.1515997209209607,6.006976744186034
3.152596431775142,8.006976744186034
3.153593142629323,9.006976744186034
3.154589853483504,11.006976744186034
3.1555865643376855,8.006976744186034
3.1565832751918665,7.006976744186034
3.1575799860460476,3.0069767441860336
3.158576696900229,1.0069767441860336
3.15957340775441,-2.9930232558139664
