Time,EMG
0.0,21.008139534883696
0.000996710854181202,14.008139534883696
0.001993421708362404,6.008139534883696
0.002990132562543606,-4.991860465116304
0.003986843416724808,-10.991860465116304
0.00498355427090601,-20.991860465116304
0.005980265125087212,-31.991860465116304
0.006976975979268414,-32.991860465116304
0.007973686833449616,-29.991860465116304
0.008970397687630818,-23.991860465116304
0.00996710854181202,-20.991860465116304
0.01096381939599322,-11.991860465116304
0.011960530250174423,-3.9918604651163037
0.012957241104355626,5.008139534883696
0.013953951958536827,13.008139534883696
0.014950662812718028,20.008139534883696
0.01594737366689923,24.008139534883696
0.016944084521080434,25.008139534883696
0.017940795375261637,28.008139534883696
0.018937506229442836,26.008139534883696
0.01993421708362404,24.008139534883696
0.02093092793780524,16.008139534883696
0.02192763879198644,5.008139534883696
0.022924349646167644,-4.991860465116304
0.023921060500348847,-10.991860465116304
0.02491777135453005,-23.991860465116304
0.025914482208711252,-27.991860465116304
0.02691119306289245,-31.991860465116304
0.027907903917073654,-28.991860465116304
0.028904614771254857,-24.991860465116304
0.029901325625436057,-16.991860465116304
0.03089803647961726,-10.991860465116304
0.03189474733379846,-2.9918604651163037
0.032891458187979665,5.008139534883696
0.03388816904216087,10.008139534883696
0.03488487989634207,19.008139534883696
0.03588159075052327,25.008139534883696
0.03687830160470447,24.008139534883696
0.03787501245888567,27.008139534883696
0.038871723313066875,28.008139534883696
0.03986843416724808,24.008139534883696
0.04086514502142928,14.008139534883696
0.04186185587561048,4.008139534883696
0.042858566729791686,-4.991860465116304
0.04385527758397288,-8.991860465116304
0.044851988438154085,-20.991860465116304
0.04584869929233529,-26.991860465116304
0.04684541014651649,-28.991860465116304
0.04784212100069769,-28.991860465116304
0.048838831854878896,-23.991860465116304
0.0498355427090601,-17.991860465116304
0.0508322535632413,-10.991860465116304
0.051828964417422504,-2.9918604651163037
0.0528256752716037,6.008139534883696
0.0538223861257849,11.008139534883696
0.054819096979966106,22.008139534883696
0.05581580783414731,26.008139534883696
0.05681251868832851,24.008139534883696
0.057809229542509714,26.008139534883696
0.05880594039669092,29.008139534883696
0.05980265125087211,23.008139534883696
0.060799362105053316,13.008139534883696
0.06179607295923452,5.008139534883696
0.06279278381341573,-3.9918604651163037
0.06378949466759692,-10.991860465116304
0.06478620552177812,-21.991860465116304
0.06578291637595933,-26.991860465116304
0.06677962723014053,-31.991860465116304
0.06777633808432174,-30.991860465116304
0.06877304893850293,-25.991860465116304
0.06976975979268414,-16.991860465116304
0.07076647064686534,-10.991860465116304
0.07176318150104655,-0.9918604651163037
0.07275989235522774,5.008139534883696
0.07375660320940894,11.008139534883696
0.07475331406359015,20.008139534883696
0.07575002491777134,22.008139534883696
0.07674673577195255,24.008139534883696
0.07774344662613375,25.008139534883696
0.07874015748031496,29.008139534883696
0.07973686833449616,21.008139534883696
0.08073357918867735,13.008139534883696
0.08173029004285856,6.008139534883696
0.08272700089703976,-3.9918604651163037
0.08372371175122097,-7.991860465116304
0.08472042260540216,-19.991860465116304
0.08571713345958337,-27.991860465116304
0.08671384431376457,-30.991860465116304
0.08771055516794576,-29.991860465116304
0.08870726602212697,-27.991860465116304
0.08970397687630817,-18.991860465116304
0.09070068773048938,-11.991860465116304
0.09169739858467058,-2.9918604651163037
0.09269410943885178,7.008139534883696
0.09369082029303298,9.008139534883696
0.09468753114721419,21.008139534883696
0.09568424200139539,24.008139534883696
0.09668095285557658,27.008139534883696
0.09767766370975779,27.008139534883696
0.09867437456393899,27.008139534883696
0.0996710854181202,23.008139534883696
0.1006677962723014,15.008139534883696
0.1016645071264826,3.0081395348836963
0.1026612179806638,-3.9918604651163037
0.10365792883484501,-9.991860465116304
0.1046546396890262,-18.991860465116304
0.1056513505432074,-26.991860465116304
0.10664806139738861,-28.991860465116304
0.1076447722515698,-26.991860465116304
0.10864148310575102,-24.991860465116304
0.10963819395993221,-16.991860465116304
0.11063490481411342,-9.991860465116304
0.11163161566829462,-1.9918604651163037
0.11262832652247581,5.008139534883696
0.11362503737665702,11.008139534883696
0.11462174823083822,19.008139534883696
0.11561845908501943,22.008139534883696
0.11661516993920062,27.008139534883696
0.11761188079338183,22.008139534883696
0.11860859164756303,24.008139534883696
0.11960530250174423,22.008139534883696
0.12060201335592544,14.008139534883696
0.12159872421010663,6.008139534883696
0.12259543506428784,-3.9918604651163037
0.12359214591846904,-8.991860465116304
0.12458885677265025,-20.991860465116304
0.12558556762683146,-26.991860465116304
0.12658227848101264,-32.991860465116304
0.12757898933519385,-29.991860465116304
0.12857570018937506,-25.991860465116304
0.12957241104355624,-17.991860465116304
0.13056912189773745,-9.991860465116304
0.13156583275191866,-1.9918604651163037
0.13256254360609987,6.008139534883696
0.13355925446028105,11.008139534883696
0.13455596531446226,20.008139534883696
0.13555267616864347,22.008139534883696
0.13654938702282465,23.008139534883696
0.13754609787700586,26.008139534883696
0.13854280873118707,27.008139534883696
0.13953951958536828,22.008139534883696
0.14053623043954946,15.008139534883696
0.14153294129373067,5.008139534883696
0.14252965214791188,-2.9918604651163037
0.1435263630020931,-10.991860465116304
0.14452307385627428,-22.991860465116304
0.14551978471045549,-27.991860465116304
0.1465164955646367,-30.991860465116304
0.14751320641881788,-30.991860465116304
0.1485099172729991,-24.991860465116304
0.1495066281271803,-15.991860465116304
0.1505033389813615,-10.991860465116304
0.1515000498355427,-0.9918604651163037
0.1524967606897239,7.008139534883696
0.1534934715439051,12.008139534883696
0.1544901823980863,18.008139534883696
0.1554868932522675,23.008139534883696
0.1564836041064487,28.008139534883696
0.15748031496062992,29.008139534883696
0.1584770258148111,25.008139534883696
0.1594737366689923,23.008139534883696
0.16047044752317352,12.008139534883696
0.1614671583773547,4.008139534883696
0.1624638692315359,-5.991860465116304
0.16346058008571712,-10.991860465116304
0.16445729093989833,-19.991860465116304
0.1654540017940795,-26.991860465116304
0.16645071264826072,-29.991860465116304
0.16744742350244193,-29.991860465116304
0.16844413435662312,-25.991860465116304
0.16944084521080433,-17.991860465116304
0.17043755606498553,-10.991860465116304
0.17143426691916674,-3.9918604651163037
0.17243097777334793,9.008139534883696
0.17342768862752914,9.008139534883696
0.17442439948171035,19.008139534883696
0.17542111033589153,24.008139534883696
0.17641782119007274,25.008139534883696
0.17741453204425395,29.008139534883696
0.17841124289843516,29.008139534883696
0.17940795375261634,23.008139534883696
0.18040466460679755,14.008139534883696
0.18140137546097876,6.008139534883696
0.18239808631515997,-3.9918604651163037
0.18339479716934115,-8.991860465116304
0.18439150802352236,-17.991860465116304
0.18538821887770357,-27.991860465116304
0.18638492973188475,-31.991860465116304
0.18738164058606596,-29.991860465116304
0.18837835144024717,-23.991860465116304
0.18937506229442838,-17.991860465116304
0.19037177314860956,-11.991860465116304
0.19136848400279077,-2.9918604651163037
0.19236519485697198,5.008139534883696
0.19336190571115316,9.008139534883696
0.19435861656533437,21.008139534883696
0.19535532741951558,23.008139534883696
0.1963520382736968,28.008139534883696
0.19734874912787798,28.008139534883696
0.19834545998205919,29.008139534883696
0.1993421708362404,22.008139534883696
0.20033888169042158,14.008139534883696
0.2013355925446028,4.008139534883696
0.202332303398784,-2.9918604651163037
0.2033290142529652,-9.991860465116304
0.2043257251071464,-21.991860465116304
0.2053224359613276,-26.991860465116304
0.2063191468155088,-32.991860465116304
0.20731585766969002,-29.991860465116304
0.2083125685238712,-26.991860465116304
0.2093092793780524,-15.991860465116304
0.21030599023223362,-12.991860465116304
0.2113027010864148,-0.9918604651163037
0.212299411940596,7.008139534883696
0.21329612279477722,7.008139534883696
0.21429283364895843,19.008139534883696
0.2152895445031396,22.008139534883696
0.21628625535732082,24.008139534883696
0.21728296621150203,26.008139534883696
0.21827967706568321,27.008139534883696
0.21927638791986442,22.008139534883696
0.22027309877404563,17.008139534883696
0.22126980962822684,6.008139534883696
0.22226652048240803,-4.991860465116304
0.22326323133658924,-11.991860465116304
0.22425994219077044,-18.991860465116304
0.22525665304495163,-25.991860465116304
0.22625336389913284,-28.991860465116304
0.22725007475331405,-28.991860465116304
0.22824678560749526,-25.991860465116304
0.22924349646167644,-14.991860465116304
0.23024020731585765,-11.991860465116304
0.23123691817003886,-0.9918604651163037
0.23223362902422004,5.008139534883696
0.23323033987840125,11.008139534883696
0.23422705073258246,20.008139534883696
0.23522376158676367,23.008139534883696
0.23622047244094485,25.008139534883696
0.23721718329512606,25.008139534883696
0.23821389414930727,27.008139534883696
0.23921060500348845,23.008139534883696
0.24020731585766966,13.008139534883696
0.24120402671185087,5.008139534883696
0.24220073756603208,-4.991860465116304
0.24319744842021326,-10.991860465116304
0.24419415927439447,-20.991860465116304
0.24519087012857568,-27.991860465116304
0.2461875809827569,-30.991860465116304
0.24718429183693807,-28.991860465116304
0.24818100269111928,-24.991860465116304
0.2491777135453005,-18.991860465116304
0.2501744243994817,-8.991860465116304
0.2511711352536629,-1.9918604651163037
0.2521678461078441,8.008139534883696
0.2531645569620253,8.008139534883696
0.2541612678162065,20.008139534883696
0.2551579786703877,23.008139534883696
0.2561546895245689,24.008139534883696
0.2571514003787501,28.008139534883696
0.2581481112329313,26.008139534883696
0.2591448220871125,22.008139534883696
0.2601415329412937,13.008139534883696
0.2611382437954749,3.0081395348836963
0.26213495464965614,-2.9918604651163037
0.2631316655038373,-10.991860465116304
0.2641283763580185,-23.991860465116304
0.26512508721219974,-29.991860465116304
0.2661217980663809,-34.991860465116304
0.2671185089205621,-29.991860465116304
0.26811521977474334,-25.991860465116304
0.2691119306289245,-17.991860465116304
0.2701086414831057,-9.991860465116304
0.27110535233728694,0.008139534883696342
0.2721020631914681,6.008139534883696
0.2730987740456493,9.008139534883696
0.27409548489983054,20.008139534883696
0.2750921957540117,23.008139534883696
0.27608890660819296,25.008139534883696
0.27708561746237415,25.008139534883696
0.2780823283165553,27.008139534883696
0.27907903917073656,24.008139534883696
0.28007575002491775,17.008139534883696
0.28107246087909893,7.008139534883696
0.28206917173328017,-3.9918604651163037
0.28306588258746135,-10.991860465116304
0.28406259344164253,-21.991860465116304
0.28505930429582377,-26.991860465116304
0.28605601515000495,-31.991860465116304
0.2870527260041862,-30.991860465116304
0.28804943685836737,-23.991860465116304
0.28904614771254855,-15.991860465116304
0.2900428585667298,-9.991860465116304
0.29103956942091097,-3.9918604651163037
0.29203628027509215,6.008139534883696
0.2930329911292734,11.008139534883696
0.29402970198345457,21.008139534883696
0.29502641283763575,25.008139534883696
0.296023123691817,27.008139534883696
0.2970198345459982,27.008139534883696
0.29801654540017936,26.008139534883696
0.2990132562543606,20.008139534883696
0.3000099671085418,14.008139534883696
0.301006677962723,3.0081395348836963
0.3020033888169042,-4.991860465116304
0.3030000996710854,-9.991860465116304
0.3039968105252666,-19.991860465116304
0.3049935213794478,-26.991860465116304
0.305990232233629,-30.991860465116304
0.3069869430878102,-29.991860465116304
0.3079836539419914,-27.991860465116304
0.3089803647961726,-18.991860465116304
0.3099770756503538,-10.991860465116304
0.310973786504535,-1.9918604651163037
0.3119704973587162,5.008139534883696
0.3129672082128974,7.008139534883696
0.3139639190670786,17.008139534883696
0.31496062992125984,22.008139534883696
0.315957340775441,24.008139534883696
0.3169540516296222,26.008139534883696
0.31795076248380344,26.008139534883696
0.3189474733379846,20.008139534883696
0.3199441841921658,14.008139534883696
0.32094089504634704,6.008139534883696
0.3219376059005282,-3.9918604651163037
0.3229343167547094,-8.991860465116304
0.32393102760889064,-19.991860465116304
0.3249277384630718,-27.991860465116304
0.32592444931725306,-30.991860465116304
0.32692116017143424,-28.991860465116304
0.3279178710256154,-26.991860465116304
0.32891458187979666,-16.991860465116304
0.32991129273397785,-10.991860465116304
0.330908003588159,-0.9918604651163037
0.33190471444234027,5.008139534883696
0.33290142529652145,8.008139534883696
0.33389813615070263,19.008139534883696
0.33489484700488387,22.008139534883696
0.33589155785906505,26.008139534883696
0.33688826871324623,28.008139534883696
0.33788497956742747,24.008139534883696
0.33888169042160865,22.008139534883696
0.3398784012757899,17.008139534883696
0.34087511212997107,11.008139534883696
0.34187182298415225,-0.9918604651163037
0.3428685338383335,-10.991860465116304
0.34386524469251467,-21.991860465116304
0.34486195554669585,-30.991860465116304
0.3458586664008771,-30.991860465116304
0.3468553772550583,-28.991860465116304
0.34785208810923945,-26.991860465116304
0.3488487989634207,-18.991860465116304
0.3498455098176019,-11.991860465116304
0.35084222067178306,-2.9918604651163037
0.3518389315259643,4.008139534883696
0.3528356423801455,9.008139534883696
0.3538323532343267,16.008139534883696
0.3548290640885079,25.008139534883696
0.3558257749426891,26.008139534883696
0.3568224857968703,26.008139534883696
0.3578191966510515,28.008139534883696
0.3588159075052327,24.008139534883696
0.3598126183594139,17.008139534883696
0.3608093292135951,6.008139534883696
0.3618060400677763,-0.9918604651163037
0.3628027509219575,-7.991860465116304
0.3637994617761387,-18.991860465116304
0.36479617263031994,-24.991860465116304
0.3657928834845011,-28.991860465116304
0.3667895943386823,-30.991860465116304
0.36778630519286354,-26.991860465116304
0.3687830160470447,-15.991860465116304
0.3697797269012259,-10.991860465116304
0.37077643775540714,-2.9918604651163037
0.3717731486095883,6.008139534883696
0.3727698594637695,14.008139534883696
0.37376657031795074,19.008139534883696
0.3747632811721319,24.008139534883696
0.3757599920263131,26.008139534883696
0.37675670288049434,28.008139534883696
0.3777534137346755,29.008139534883696
0.37875012458885676,23.008139534883696
0.37974683544303794,16.008139534883696
0.3807435462972191,8.008139534883696
0.38174025715140036,-2.9918604651163037
0.38273696800558155,-9.991860465116304
0.38373367885976273,-20.991860465116304
0.38473038971394397,-29.991860465116304
0.38572710056812515,-31.991860465116304
0.38672381142230633,-33.991860465116304
0.38772052227648757,-29.991860465116304
0.38871723313066875,-17.991860465116304
0.38971394398485,-12.991860465116304
0.39071065483903117,-2.9918604651163037
0.39170736569321235,7.008139534883696
0.3927040765473936,10.008139534883696
0.39370078740157477,20.008139534883696
0.39469749825575595,25.008139534883696
0.3956942091099372,26.008139534883696
0.39669091996411837,28.008139534883696
0.39768763081829955,27.008139534883696
0.3986843416724808,20.008139534883696
0.399681052526662,13.008139534883696
0.40067776338084315,5.008139534883696
0.4016744742350244,-2.9918604651163037
0.4026711850892056,-9.991860465116304
0.4036678959433868,-20.991860465116304
0.404664606797568,-27.991860465116304
0.4056613176517492,-33.991860465116304
0.4066580285059304,-30.991860465116304
0.4076547393601116,-28.991860465116304
0.4086514502142928,-15.991860465116304
0.409648161068474,-12.991860465116304
0.4106448719226552,-2.9918604651163037
0.4116415827768364,5.008139534883696
0.4126382936310176,11.008139534883696
0.4136350044851988,20.008139534883696
0.41463171533938004,25.008139534883696
0.4156284261935612,22.008139534883696
0.4166251370477424,27.008139534883696
0.41762184790192364,29.008139534883696
0.4186185587561048,21.008139534883696
0.419615269610286,16.008139534883696
0.42061198046446724,5.008139534883696
0.4216086913186484,-0.9918604651163037
0.4226054021728296,-8.991860465116304
0.42360211302701084,-20.991860465116304
0.424598823881192,-27.991860465116304
0.4255955347353732,-30.991860465116304
0.42659224558955444,-30.991860465116304
0.4275889564437356,-27.991860465116304
0.42858566729791686,-21.991860465116304
0.42958237815209804,-12.991860465116304
0.4305790890062792,-2.9918604651163037
0.43157579986046046,5.008139534883696
0.43257251071464164,8.008139534883696
0.4335692215688228,19.008139534883696
0.43456593242300406,25.008139534883696
0.43556264327718525,26.008139534883696
0.43655935413136643,26.008139534883696
0.43755606498554767,28.008139534883696
0.43855277583972885,23.008139534883696
0.43954948669391003,18.008139534883696
0.44054619754809127,6.008139534883696
0.44154290840227245,-1.9918604651163037
0.4425396192564537,-8.991860465116304
0.44353633011063487,-20.991860465116304
0.44453304096481605,-28.991860465116304
0.4455297518189973,-31.991860465116304
0.44652646267317847,-31.991860465116304
0.44752317352735965,-28.991860465116304
0.4485198843815409,-18.991860465116304
0.44951659523572207,-14.991860465116304
0.45051330608990325,-3.9918604651163037
0.4515100169440845,7.008139534883696
0.4525067277982657,9.008139534883696
0.4535034386524469,18.008139534883696
0.4545001495066281,24.008139534883696
0.4554968603608093,25.008139534883696
0.4564935712149905,27.008139534883696
0.4574902820691717,30.008139534883696
0.4584869929233529,23.008139534883696
0.4594837037775341,16.008139534883696
0.4604804146317153,7.008139534883696
0.4614771254858965,-3.9918604651163037
0.4624738363400777,-9.991860465116304
0.4634705471942589,-20.991860465116304
0.4644672580484401,-28.991860465116304
0.4654639689026213,-30.991860465116304
0.4664606797568025,-28.991860465116304
0.46745739061098374,-25.991860465116304
0.4684541014651649,-18.991860465116304
0.4694508123193461,-10.991860465116304
0.47044752317352734,1.0081395348836963
0.4714442340277085,7.008139534883696
0.4724409448818897,9.008139534883696
0.47343765573607094,19.008139534883696
0.4744343665902521,24.008139534883696
0.4754310774444333,25.008139534883696
0.47642778829861454,25.008139534883696
0.4774244991527957,27.008139534883696
0.4784212100069769,19.008139534883696
0.47941792086115814,16.008139534883696
0.4804146317153393,4.008139534883696
0.48141134256952056,-3.9918604651163037
0.48240805342370174,-9.991860465116304
0.4834047642778829,-19.991860465116304
0.48440147513206416,-25.991860465116304
0.48539818598624535,-28.991860465116304
0.4863948968404265,-30.991860465116304
0.48739160769460776,-26.991860465116304
0.48838831854878895,-17.991860465116304
0.48938502940297013,-10.991860465116304
0.49038174025715137,-2.9918604651163037
0.49137845111133255,5.008139534883696
0.4923751619655138,12.008139534883696
0.49337187281969497,19.008139534883696
0.49436858367387615,27.008139534883696
0.4953652945280574,30.008139534883696
0.49636200538223857,29.008139534883696
0.49735871623641975,28.008139534883696
0.498355427090601,23.008139534883696
0.49935213794478217,15.008139534883696
0.5003488487989634,4.008139534883696
0.5013455596531445,-3.9918604651163037
0.5023422705073258,-9.991860465116304
0.503338981361507,-17.991860465116304
0.5043356922156882,-24.991860465116304
0.5053324030698694,-31.991860465116304
0.5063291139240506,-29.991860465116304
0.5073258247782317,-26.991860465116304
0.508322535632413,-19.991860465116304
0.5093192464865942,-11.991860465116304
0.5103159573407754,-4.991860465116304
0.5113126681949566,6.008139534883696
0.5123093790491378,9.008139534883696
0.513306089903319,21.008139534883696
0.5143028007575002,23.008139534883696
0.5152995116116814,29.008139534883696
0.5162962224658626,29.008139534883696
0.5172929333200438,30.008139534883696
0.518289644174225,24.008139534883696
0.5192863550284063,15.008139534883696
0.5202830658825874,6.008139534883696
0.5212797767367686,-2.9918604651163037
0.5222764875909498,-8.991860465116304
0.523273198445131,-20.991860465116304
0.5242699092993123,-27.991860465116304
0.5252666201534935,-30.991860465116304
0.5262633310076746,-28.991860465116304
0.5272600418618558,-27.991860465116304
0.528256752716037,-17.991860465116304
0.5292534635702182,-10.991860465116304
0.5302501744243995,-3.9918604651163037
0.5312468852785807,5.008139534883696
0.5322435961327618,7.008139534883696
0.533240306986943,18.008139534883696
0.5342370178411242,23.008139534883696
0.5352337286953054,26.008139534883696
0.5362304395494867,27.008139534883696
0.5372271504036679,27.008139534883696
0.538223861257849,22.008139534883696
0.5392205721120302,14.008139534883696
0.5402172829662114,5.008139534883696
0.5412139938203927,-3.9918604651163037
0.5422107046745739,-7.991860465116304
0.5432074155287551,-22.991860465116304
0.5442041263829362,-29.991860465116304
0.5452008372371174,-34.991860465116304
0.5461975480912986,-30.991860465116304
0.5471942589454799,-28.991860465116304
0.5481909697996611,-18.991860465116304
0.5491876806538423,-13.991860465116304
0.5501843915080235,-5.991860465116304
0.5511811023622046,6.008139534883696
0.5521778132163859,9.008139534883696
0.5531745240705671,19.008139534883696
0.5541712349247483,26.008139534883696
0.5551679457789295,29.008139534883696
0.5561646566331107,28.008139534883696
0.5571613674872918,28.008139534883696
0.5581580783414731,21.008139534883696
0.5591547891956543,15.008139534883696
0.5601515000498355,7.008139534883696
0.5611482109040167,-3.9918604651163037
0.5621449217581979,-10.991860465116304
0.5631416326123792,-20.991860465116304
0.5641383434665603,-29.991860465116304
0.5651350543207415,-31.991860465116304
0.5661317651749227,-31.991860465116304
0.5671284760291039,-26.991860465116304
0.5681251868832851,-19.991860465116304
0.5691218977374664,-11.991860465116304
0.5701186085916475,-4.991860465116304
0.5711153194458287,2.0081395348836963
0.5721120303000099,7.008139534883696
0.5731087411541911,16.008139534883696
0.5741054520083724,24.008139534883696
0.5751021628625536,25.008139534883696
0.5760988737167347,24.008139534883696
0.5770955845709159,26.008139534883696
0.5780922954250971,25.008139534883696
0.5790890062792783,17.008139534883696
0.5800857171334596,6.008139534883696
0.5810824279876408,-2.9918604651163037
0.5820791388418219,-9.991860465116304
0.5830758496960031,-18.991860465116304
0.5840725605501843,-27.991860465116304
0.5850692714043655,-30.991860465116304
0.5860659822585468,-30.991860465116304
0.587062693112728,-26.991860465116304
0.5880594039669091,-17.991860465116304
0.5890561148210903,-9.991860465116304
0.5900528256752715,-1.9918604651163037
0.5910495365294528,5.008139534883696
0.592046247383634,13.008139534883696
0.5930429582378152,23.008139534883696
0.5940396690919963,26.008139534883696
0.5950363799461775,27.008139534883696
0.5960330908003587,29.008139534883696
0.59702980165454,32.008139534883696
0.5980265125087212,23.008139534883696
0.5990232233629024,16.008139534883696
0.6000199342170836,9.008139534883696
0.6010166450712647,-2.9918604651163037
0.602013355925446,-8.991860465116304
0.6030100667796272,-19.991860465116304
0.6040067776338084,-28.991860465116304
0.6050034884879896,-29.991860465116304
0.6060001993421708,-28.991860465116304
0.6069969101963519,-25.991860465116304
0.6079936210505332,-19.991860465116304
0.6089903319047144,-14.991860465116304
0.6099870427588956,-2.9918604651163037
0.6109837536130768,4.008139534883696
0.611980464467258,8.008139534883696
0.6129771753214392,20.008139534883696
0.6139738861756204,25.008139534883696
0.6149705970298016,28.008139534883696
0.6159673078839828,29.008139534883696
0.616964018738164,29.008139534883696
0.6179607295923452,24.008139534883696
0.6189574404465265,17.008139534883696
0.6199541513007076,8.008139534883696
0.6209508621548888,-1.9918604651163037
0.62194757300907,-8.991860465116304
0.6229442838632512,-20.991860465116304
0.6239409947174324,-25.991860465116304
0.6249377055716137,-28.991860465116304
0.6259344164257948,-28.991860465116304
0.626931127279976,-27.991860465116304
0.6279278381341572,-18.991860465116304
0.6289245489883384,-11.991860465116304
0.6299212598425197,-2.9918604651163037
0.6309179706967009,4.008139534883696
0.631914681550882,9.008139534883696
0.6329113924050632,19.008139534883696
0.6339081032592444,24.008139534883696
0.6349048141134256,22.008139534883696
0.6359015249676069,27.008139534883696
0.6368982358217881,29.008139534883696
0.6378949466759692,23.008139534883696
0.6388916575301504,15.008139534883696
0.6398883683843316,7.008139534883696
0.6408850792385129,-4.991860465116304
0.6418817900926941,-10.991860465116304
0.6428785009468753,-21.991860465116304
0.6438752118010564,-29.991860465116304
0.6448719226552376,-30.991860465116304
0.6458686335094188,-27.991860465116304
0.6468653443636001,-26.991860465116304
0.6478620552177813,-21.991860465116304
0.6488587660719625,-12.991860465116304
0.6498554769261436,-4.991860465116304
0.6508521877803248,3.0081395348836963
0.6518488986345061,10.008139534883696
0.6528456094886873,20.008139534883696
0.6538423203428685,23.008139534883696
0.6548390311970497,27.008139534883696
0.6558357420512309,28.008139534883696
0.656832452905412,27.008139534883696
0.6578291637595933,22.008139534883696
0.6588258746137745,15.008139534883696
0.6598225854679557,7.008139534883696
0.6608192963221369,-2.9918604651163037
0.661816007176318,-8.991860465116304
0.6628127180304992,-16.991860465116304
0.6638094288846805,-27.991860465116304
0.6648061397388617,-29.991860465116304
0.6658028505930429,-28.991860465116304
0.6667995614472241,-26.991860465116304
0.6677962723014053,-19.991860465116304
0.6687929831555866,-11.991860465116304
0.6697896940097677,-3.9918604651163037
0.6707864048639489,4.008139534883696
0.6717831157181301,9.008139534883696
0.6727798265723113,19.008139534883696
0.6737765374264925,24.008139534883696
0.6747732482806738,25.008139534883696
0.6757699591348549,26.008139534883696
0.6767666699890361,25.008139534883696
0.6777633808432173,22.008139534883696
0.6787600916973985,15.008139534883696
0.6797568025515798,4.008139534883696
0.680753513405761,-2.9918604651163037
0.6817502242599421,-7.991860465116304
0.6827469351141233,-18.991860465116304
0.6837436459683045,-28.991860465116304
0.6847403568224857,-31.991860465116304
0.685737067676667,-30.991860465116304
0.6867337785308482,-28.991860465116304
0.6877304893850293,-19.991860465116304
0.6887272002392105,-10.991860465116304
0.6897239110933917,-5.991860465116304
0.690720621947573,5.008139534883696
0.6917173328017542,9.008139534883696
0.6927140436559354,21.008139534883696
0.6937107545101165,26.008139534883696
0.6947074653642977,27.008139534883696
0.6957041762184789,26.008139534883696
0.6967008870726602,30.008139534883696
0.6976975979268414,21.008139534883696
0.6986943087810226,18.008139534883696
0.6996910196352037,11.008139534883696
0.7006877304893849,-0.9918604651163037
0.7016844413435661,-7.991860465116304
0.7026811521977474,-18.991860465116304
0.7036778630519286,-26.991860465116304
0.7046745739061098,-31.991860465116304
0.705671284760291,-29.991860465116304
0.7066679956144721,-26.991860465116304
0.7076647064686534,-19.991860465116304
0.7086614173228346,-9.991860465116304
0.7096581281770158,-2.9918604651163037
0.710654839031197,5.008139534883696
0.7116515498853782,8.008139534883696
0.7126482607395593,18.008139534883696
0.7136449715937406,25.008139534883696
0.7146416824479218,26.008139534883696
0.715638393302103,27.008139534883696
0.7166351041562842,28.008139534883696
0.7176318150104654,20.008139534883696
0.7186285258646467,14.008139534883696
0.7196252367188278,4.008139534883696
0.720621947573009,-3.9918604651163037
0.7216186584271902,-9.991860465116304
0.7226153692813714,-20.991860465116304
0.7236120801355526,-28.991860465116304
0.7246087909897339,-31.991860465116304
0.725605501843915,-28.991860465116304
0.7266022126980962,-25.991860465116304
0.7275989235522774,-16.991860465116304
0.7285956344064586,-9.991860465116304
0.7295923452606399,3.0081395348836963
0.7305890561148211,8.008139534883696
0.7315857669690022,12.008139534883696
0.7325824778231834,19.008139534883696
0.7335791886773646,24.008139534883696
0.7345758995315458,26.008139534883696
0.7355726103857271,24.008139534883696
0.7365693212399083,25.008139534883696
0.7375660320940894,21.008139534883696
0.7385627429482706,16.008139534883696
0.7395594538024518,3.0081395348836963
0.7405561646566331,-4.991860465116304
0.7415528755108143,-8.991860465116304
0.7425495863649955,-14.991860465116304
0.7435462972191766,-20.991860465116304
0.7445430080733578,-28.991860465116304
0.745539718927539,-35.991860465116304
0.7465364297817203,-33.991860465116304
0.7475331406359015,-22.991860465116304
0.7485298514900827,-10.991860465116304
0.7495265623442638,-4.991860465116304
0.750523273198445,3.0081395348836963
0.7515199840526262,9.008139534883696
0.7525166949068075,18.008139534883696
0.7535134057609887,24.008139534883696
0.7545101166151699,25.008139534883696
0.755506827469351,25.008139534883696
0.7565035383235322,26.008139534883696
0.7575002491777135,22.008139534883696
0.7584969600318947,16.008139534883696
0.7594936708860759,7.008139534883696
0.7604903817402571,-1.9918604651163037
0.7614870925944383,-7.991860465116304
0.7624838034486194,-23.991860465116304
0.7634805143028007,-29.991860465116304
0.7644772251569819,-30.991860465116304
0.7654739360111631,-30.991860465116304
0.7664706468653443,-29.991860465116304
0.7674673577195255,-19.991860465116304
0.7684640685737067,-12.991860465116304
0.7694607794278879,-2.9918604651163037
0.7704574902820691,8.008139534883696
0.7714542011362503,12.008139534883696
0.7724509119904315,19.008139534883696
0.7734476228446127,21.008139534883696
0.774444333698794,24.008139534883696
0.7754410445529751,28.008139534883696
0.7764377554071563,27.008139534883696
0.7774344662613375,21.008139534883696
0.7784311771155187,16.008139534883696
0.7794278879697,7.008139534883696
0.7804245988238812,0.008139534883696342
0.7814213096780623,-7.991860465116304
0.7824180205322435,-17.991860465116304
0.7834147313864247,-26.991860465116304
0.7844114422406059,-33.991860465116304
0.7854081530947872,-31.991860465116304
0.7864048639489684,-31.991860465116304
0.7874015748031495,-21.991860465116304
0.7883982856573307,-12.991860465116304
0.7893949965115119,-3.9918604651163037
0.7903917073656931,5.008139534883696
0.7913884182198744,9.008139534883696
0.7923851290740556,17.008139534883696
0.7933818399282367,21.008139534883696
0.7943785507824179,24.008139534883696
0.7953752616365991,25.008139534883696
0.7963719724907804,29.008139534883696
0.7973686833449616,27.008139534883696
0.7983653941991428,14.008139534883696
0.799362105053324,4.008139534883696
0.8003588159075051,-9.991860465116304
0.8013555267616863,-17.991860465116304
0.8023522376158676,-24.991860465116304
0.8033489484700488,-28.991860465116304
0.80434565932423,-30.991860465116304
0.8053423701784111,-26.991860465116304
0.8063390810325923,-27.991860465116304
0.8073357918867736,-5.991860465116304
0.8083325027409548,11.008139534883696
0.809329213595136,18.008139534883696
0.8103259244493172,24.008139534883696
0.8113226353034984,21.008139534883696
0.8123193461576795,22.008139534883696
0.8133160570118608,29.008139534883696
0.814312767866042,30.008139534883696
0.8153094787202232,27.008139534883696
0.8163061895744044,22.008139534883696
0.8173029004285856,13.008139534883696
0.8182996112827668,6.008139534883696
0.819296322136948,-1.9918604651163037
0.8202930329911292,-10.991860465116304
0.8212897438453104,-16.991860465116304
0.8222864546994916,-23.991860465116304
0.8232831655536728,-30.991860465116304
0.824279876407854,-33.991860465116304
0.8252765872620352,-33.991860465116304
0.8262732981162164,-30.991860465116304
0.8272700089703976,-20.991860465116304
0.8282667198245788,-12.991860465116304
0.8292634306787601,-3.9918604651163037
0.8302601415329413,5.008139534883696
0.8312568523871224,9.008139534883696
0.8322535632413036,18.008139534883696
0.8332502740954848,23.008139534883696
0.834246984949666,24.008139534883696
0.8352436958038473,24.008139534883696
0.8362404066580285,25.008139534883696
0.8372371175122096,22.008139534883696
0.8382338283663908,16.008139534883696
0.839230539220572,6.008139534883696
0.8402272500747532,-3.9918604651163037
0.8412239609289345,-7.991860465116304
0.8422206717831157,-18.991860465116304
0.8432173826372968,-26.991860465116304
0.844214093491478,-30.991860465116304
0.8452108043456592,-30.991860465116304
0.8462075151998405,-28.991860465116304
0.8472042260540217,-21.991860465116304
0.8482009369082029,-14.991860465116304
0.849197647762384,-9.991860465116304
0.8501943586165652,0.008139534883696342
0.8511910694707464,3.0081395348836963
0.8521877803249277,11.008139534883696
0.8531844911791089,19.008139534883696
0.8541812020332901,22.008139534883696
0.8551779128874712,20.008139534883696
0.8561746237416524,17.008139534883696
0.8571713345958337,19.008139534883696
0.8581680454500149,19.008139534883696
0.8591647563041961,14.008139534883696
0.8601614671583773,0.008139534883696342
0.8611581780125585,-4.991860465116304
0.8621548888667396,0.008139534883696342
0.8631515997209209,-10.991860465116304
0.8641483105751021,-18.991860465116304
0.8651450214292833,-23.991860465116304
0.8661417322834645,-23.991860465116304
0.8671384431376457,-17.991860465116304
0.868135153991827,-2.9918604651163037
0.8691318648460081,12.008139534883696
0.8701285757001893,18.008139534883696
0.8711252865543705,13.008139534883696
0.8721219974085517,19.008139534883696
0.8731187082627329,17.008139534883696
0.8741154191169141,19.008139534883696
0.8751121299710953,22.008139534883696
0.8761088408252765,21.008139534883696
0.8771055516794577,14.008139534883696
0.8781022625336389,4.008139534883696
0.8790989733878201,-3.9918604651163037
0.8800956842420014,0.008139534883696342
0.8810923950961825,-7.991860465116304
0.8820891059503637,-25.991860465116304
0.8830858168045449,-36.991860465116304
0.8840825276587261,-40.991860465116304
0.8850792385129074,-43.991860465116304
0.8860759493670886,-32.991860465116304
0.8870726602212697,-24.991860465116304
0.8880693710754509,-19.991860465116304
0.8890660819296321,-10.991860465116304
0.8900627927838133,11.008139534883696
0.8910595036379946,14.008139534883696
0.8920562144921758,28.008139534883696
0.8930529253463569,34.008139534883696
0.8940496362005381,37.008139534883696
0.8950463470547193,30.008139534883696
0.8960430579089006,31.008139534883696
0.8970397687630818,21.008139534883696
0.898036479617263,13.008139534883696
0.8990331904714441,7.008139534883696
0.9000299013256253,-2.9918604651163037
0.9010266121798065,-8.991860465116304
0.9020233230339878,-23.991860465116304
0.903020033888169,-30.991860465116304
0.9040167447423502,-40.991860465116304
0.9050134555965313,-43.991860465116304
0.9060101664507125,-48.991860465116304
0.9070068773048938,-44.991860465116304
0.908003588159075,-48.991860465116304
0.9090002990132562,-36.991860465116304
0.9099970098674374,-17.991860465116304
0.9109937207216185,-12.991860465116304
0.9119904315757997,6.008139534883696
0.912987142429981,20.008139534883696
0.9139838532841622,30.008139534883696
0.9149805641383434,53.008139534883696
0.9159772749925246,69.0081395348837
0.9169739858467058,62.008139534883696
0.9179706967008869,64.0081395348837
0.9189674075550682,84.0081395348837
0.9199641184092494,69.0081395348837
0.9209608292634306,44.008139534883696
0.9219575401176118,14.008139534883696
0.922954250971793,-25.991860465116304
0.9239509618259742,-73.9918604651163
0.9249476726801554,-74.9918604651163
0.9259443835343366,-75.9918604651163
0.9269410943885178,-83.9918604651163
0.927937805242699,-81.9918604651163
0.9289345160968802,-65.9918604651163
0.9299312269510615,-37.991860465116304
0.9309279378052426,-22.991860465116304
0.9319246486594238,-11.991860465116304
0.932921359513605,-4.991860465116304
0.9339180703677862,27.008139534883696
0.9349147812219675,64.0081395348837
0.9359114920761487,56.008139534883696
0.9369082029303298,40.008139534883696
0.937904913784511,54.008139534883696
0.9389016246386922,86.0081395348837
0.9398983354928734,93.0081395348837
0.9408950463470547,84.0081395348837
0.9418917572012359,52.008139534883696
0.942888468055417,0.008139534883696342
0.9438851789095982,-10.991860465116304
0.9448818897637794,-4.991860465116304
0.9458786006179607,-18.991860465116304
0.9468753114721419,-33.991860465116304
0.9478720223263231,-24.991860465116304
0.9488687331805042,-45.991860465116304
0.9498654440346854,-87.9918604651163
0.9508621548888666,-99.9918604651163
0.9518588657430479,-81.9918604651163
0.9528555765972291,-57.991860465116304
0.9538522874514103,-27.991860465116304
0.9548489983055914,18.008139534883696
0.9558457091597726,58.008139534883696
0.9568424200139538,66.0081395348837
0.9578391308681351,80.0081395348837
0.9588358417223163,80.0081395348837
0.9598325525764975,16.008139534883696
0.9608292634306786,-9.991860465116304
0.9618259742848598,12.008139534883696
0.9628226851390411,7.008139534883696
0.9638193959932223,3.0081395348836963
0.9648161068474035,-13.991860465116304
0.9658128177015847,-48.991860465116304
0.9668095285557659,-45.991860465116304
0.967806239409947,-47.991860465116304
0.9688029502641283,-39.991860465116304
0.9697996611183095,-34.991860465116304
0.9707963719724907,-10.991860465116304
0.9717930828266719,21.008139534883696
0.972789793680853,45.008139534883696
0.9737865045350343,29.008139534883696
0.9747832153892155,3.0081395348836963
0.9757799262433967,42.008139534883696
0.9767766370975779,40.008139534883696
0.9777733479517591,44.008139534883696
0.9787700588059403,44.008139534883696
0.9797667696601216,14.008139534883696
0.9807634805143027,-36.991860465116304
0.9817601913684839,-78.9918604651163
0.9827569022226651,-75.9918604651163
0.9837536130768463,-53.991860465116304
0.9847503239310276,-4.991860465116304
0.9857470347852088,19.008139534883696
0.9867437456393899,-2.9918604651163037
0.9877404564935711,-12.991860465116304
0.9887371673477523,-16.991860465116304
0.9897338782019335,-22.991860465116304
0.9907305890561148,-17.991860465116304
0.991727299910296,6.008139534883696
0.9927240107644771,0.008139534883696342
0.9937207216186583,-43.991860465116304
0.9947174324728395,-66.9918604651163
0.9957141433270208,-44.991860465116304
0.996710854181202,-28.991860465116304
0.9977075650353832,-19.991860465116304
0.9987042758895643,-42.991860465116304
0.9997009867437455,-48.991860465116304
1.0006976975979267,-10.991860465116304
1.001694408452108,29.008139534883696
1.002691119306289,29.008139534883696
1.0036878301604704,29.008139534883696
1.0046845410146517,-4.991860465116304
1.0056812518688327,-49.991860465116304
1.006677962723014,-66.9918604651163
1.007674673577195,-56.991860465116304
1.0086713844313764,-41.991860465116304
1.0096680952855577,-23.991860465116304
1.0106648061397387,-13.991860465116304
1.01166151699392,-9.991860465116304
1.0126582278481011,19.008139534883696
1.0136549387022824,49.008139534883696
1.0146516495564635,52.008139534883696
1.0156483604106448,26.008139534883696
1.016645071264826,22.008139534883696
1.0176417821190071,27.008139534883696
1.0186384929731884,21.008139534883696
1.0196352038273695,-0.9918604651163037
1.0206319146815508,-5.991860465116304
1.021628625535732,-34.991860465116304
1.0226253363899132,-40.991860465116304
1.0236220472440944,-34.991860465116304
1.0246187580982755,-23.991860465116304
1.0256154689524568,-2.9918604651163037
1.026612179806638,5.008139534883696
1.0276088906608192,-7.991860465116304
1.0286056015150005,-42.991860465116304
1.0296023123691815,-51.991860465116304
1.0305990232233628,-47.991860465116304
1.031595734077544,-3.9918604651163037
1.0325924449317252,67.0081395348837
1.0335891557859065,105.0081395348837
1.0345858666400876,77.0081395348837
1.0355825774942689,34.008139534883696
1.03657928834845,-14.991860465116304
1.0375759992026312,-29.991860465116304
1.0385727100568125,6.008139534883696
1.0395694209109936,-1.9918604651163037
1.0405661317651749,24.008139534883696
1.041562842619356,98.0081395348837
1.0425595534735372,108.0081395348837
1.0435562643277185,71.0081395348837
1.0445529751818996,14.008139534883696
1.045549686036081,-55.991860465116304
1.046546396890262,-134.9918604651163
1.0475431077444433,-142.9918604651163
1.0485398185986246,-105.9918604651163
1.0495365294528056,-37.991860465116304
1.050533240306987,31.008139534883696
1.051529951161168,72.0081395348837
1.0525266620153493,84.0081395348837
1.0535233728695304,80.0081395348837
1.0545200837237116,51.008139534883696
1.055516794577893,35.008139534883696
1.056513505432074,5.008139534883696
1.0575102162862553,19.008139534883696
1.0585069271404364,32.008139534883696
1.0595036379946177,12.008139534883696
1.060500348848799,-38.991860465116304
1.06149705970298,-57.991860465116304
1.0624937705571613,-28.991860465116304
1.0634904814113424,7.008139534883696
1.0644871922655237,33.008139534883696
1.065483903119705,11.008139534883696
1.066480613973886,-0.9918604651163037
1.0674773248280673,-4.991860465116304
1.0684740356822484,-33.991860465116304
1.0694707465364297,-10.991860465116304
1.0704674573906108,14.008139534883696
1.071464168244792,1.0081395348836963
1.0724608790989734,11.008139534883696
1.0734575899531544,14.008139534883696
1.0744543008073357,38.008139534883696
1.0754510116615168,65.0081395348837
1.076447722515698,61.008139534883696
1.0774444333698794,39.008139534883696
1.0784411442240605,24.008139534883696
1.0794378550782417,-7.991860465116304
1.0804345659324228,-21.991860465116304
1.0814312767866041,-28.991860465116304
1.0824279876407854,-36.991860465116304
1.0834246984949665,23.008139534883696
1.0844214093491478,7.008139534883696
1.0854181202033288,-57.991860465116304
1.0864148310575101,-102.9918604651163
1.0874115419116914,-119.9918604651163
1.0884082527658725,-103.9918604651163
1.0894049636200538,-47.991860465116304
1.0904016744742349,37.008139534883696
1.0913983853284162,75.0081395348837
1.0923950961825972,129.0081395348837
1.0933918070367785,212.0081395348837
1.0943885178909598,161.0081395348837
1.0953852287451409,109.0081395348837
1.0963819395993222,77.0081395348837
1.0973786504535032,15.008139534883696
1.0983753613076845,-45.991860465116304
1.0993720721618658,-83.9918604651163
1.100368783016047,-75.9918604651163
1.1013654938702282,-84.9918604651163
1.1023622047244093,-84.9918604651163
1.1033589155785906,-65.9918604651163
1.1043556264327719,-54.991860465116304
1.105352337286953,-66.9918604651163
1.1063490481411342,-71.9918604651163
1.1073457589953153,-76.9918604651163
1.1083424698494966,-50.991860465116304
1.1093391807036777,39.008139534883696
1.110335891557859,117.0081395348837
1.1113326024120402,113.0081395348837
1.1123293132662213,74.0081395348837
1.1133260241204026,56.008139534883696
1.1143227349745837,61.008139534883696
1.115319445828765,52.008139534883696
1.1163161566829463,-2.9918604651163037
1.1173128675371273,16.008139534883696
1.1183095783913086,-23.991860465116304
1.1193062892454897,-71.9918604651163
1.120303000099671,-83.9918604651163
1.1212997109538523,-59.991860465116304
1.1222964218080334,4.008139534883696
1.1232931326622146,12.008139534883696
1.1242898435163957,26.008139534883696
1.125286554370577,50.008139534883696
1.1262832652247583,91.0081395348837
1.1272799760789394,97.0081395348837
1.1282766869331207,30.008139534883696
1.1292733977873017,-22.991860465116304
1.130270108641483,-21.991860465116304
1.131266819495664,-49.991860465116304
1.1322635303498454,-34.991860465116304
1.1332602412040267,-24.991860465116304
1.1342569520582078,-18.991860465116304
1.135253662912389,35.008139534883696
1.1362503737665701,19.008139534883696
1.1372470846207514,-12.991860465116304
1.1382437954749327,-14.991860465116304
1.1392405063291138,7.008139534883696
1.140237217183295,53.008139534883696
1.1412339280374761,42.008139534883696
1.1422306388916574,1.0081395348836963
1.1432273497458387,-27.991860465116304
1.1442240606000198,-26.991860465116304
1.145220771454201,-47.991860465116304
1.1462174823083822,-94.9918604651163
1.1472141931625635,-55.991860465116304
1.1482109040167447,0.008139534883696342
1.1492076148709258,31.008139534883696
1.1502043257251071,39.008139534883696
1.1512010365792882,19.008139534883696
1.1521977474334695,29.008139534883696
1.1531944582876505,37.008139534883696
1.1541911691418318,70.0081395348837
1.1551878799960131,71.0081395348837
1.1561845908501942,78.0081395348837
1.1571813017043755,91.0081395348837
1.1581780125585566,33.008139534883696
1.1591747234127379,-78.9918604651163
1.1601714342669192,-125.9918604651163
1.1611681451211002,-83.9918604651163
1.1621648559752815,-26.991860465116304
1.1631615668294626,-20.991860465116304
1.1641582776836439,-4.991860465116304
1.1651549885378252,-26.991860465116304
1.1661516993920062,-33.991860465116304
1.1671484102461875,4.008139534883696
1.1681451211003686,44.008139534883696
1.16914183195455,29.008139534883696
1.170138542808731,18.008139534883696
1.1711352536629123,4.008139534883696
1.1721319645170936,-19.991860465116304
1.1731286753712746,-16.991860465116304
1.174125386225456,10.008139534883696
1.175122097079637,34.008139534883696
1.1761188079338183,24.008139534883696
1.1771155187879996,7.008139534883696
1.1781122296421807,9.008139534883696
1.179108940496362,15.008139534883696
1.180105651350543,-19.991860465116304
1.1811023622047243,-71.9918604651163
1.1820990730589056,-78.9918604651163
1.1830957839130867,-63.991860465116304
1.184092494767268,-18.991860465116304
1.185089205621449,49.008139534883696
1.1860859164756303,119.0081395348837
1.1870826273298116,145.0081395348837
1.1880793381839927,72.0081395348837
1.189076049038174,19.008139534883696
1.190072759892355,-36.991860465116304
1.1910694707465364,-93.9918604651163
1.1920661816007174,-78.9918604651163
1.1930628924548987,-38.991860465116304
1.19405960330908,-21.991860465116304
1.195056314163261,28.008139534883696
1.1960530250174424,72.0081395348837
1.1970497358716234,70.0081395348837
1.1980464467258047,37.008139534883696
1.199043157579986,17.008139534883696
1.200039868434167,-14.991860465116304
1.2010365792883484,-48.991860465116304
1.2020332901425295,-65.9918604651163
1.2030300009967108,-63.991860465116304
1.204026711850892,-55.991860465116304
1.2050234227050731,-34.991860465116304
1.2060201335592544,-9.991860465116304
1.2070168444134355,8.008139534883696
1.2080135552676168,25.008139534883696
1.2090102661217978,26.008139534883696
1.2100069769759791,36.008139534883696
1.2110036878301604,33.008139534883696
1.2120003986843415,29.008139534883696
1.2129971095385228,24.008139534883696
1.2139938203927039,33.008139534883696
1.2149905312468852,45.008139534883696
1.2159872421010665,44.008139534883696
1.2169839529552475,39.008139534883696
1.2179806638094288,12.008139534883696
1.21897737466361,-1.9918604651163037
1.2199740855177912,-5.991860465116304
1.2209707963719725,-19.991860465116304
1.2219675072261535,-26.991860465116304
1.2229642180803348,-46.991860465116304
1.223960928934516,-41.991860465116304
1.2249576397886972,-29.991860465116304
1.2259543506428785,-30.991860465116304
1.2269510614970596,-20.991860465116304
1.2279477723512409,22.008139534883696
1.228944483205422,44.008139534883696
1.2299411940596032,30.008139534883696
1.2309379049137843,6.008139534883696
1.2319346157679656,5.008139534883696
1.2329313266221469,12.008139534883696
1.233928037476328,21.008139534883696
1.2349247483305092,26.008139534883696
1.2359214591846903,16.008139534883696
1.2369181700388716,19.008139534883696
1.237914880893053,6.008139534883696
1.238911591747234,5.008139534883696
1.2399083026014153,4.008139534883696
1.2409050134555963,15.008139534883696
1.2419017243097776,4.008139534883696
1.242898435163959,-17.991860465116304
1.24389514601814,-36.991860465116304
1.2448918568723213,-45.991860465116304
1.2458885677265024,-39.991860465116304
1.2468852785806837,-31.991860465116304
1.2478819894348647,-15.991860465116304
1.248878700289046,-0.9918604651163037
1.2498754111432273,4.008139534883696
1.2508721219974084,16.008139534883696
1.2518688328515897,34.008139534883696
1.2528655437057707,48.008139534883696
1.253862254559952,36.008139534883696
1.2548589654141333,30.008139534883696
1.2558556762683144,15.008139534883696
1.2568523871224957,4.008139534883696
1.2578490979766768,-2.9918604651163037
1.258845808830858,-1.9918604651163037
1.2598425196850394,-12.991860465116304
1.2608392305392204,-25.991860465116304
1.2618359413934017,-22.991860465116304
1.2628326522475828,-27.991860465116304
1.263829363101764,-29.991860465116304
1.2648260739559454,-25.991860465116304
1.2658227848101264,-18.991860465116304
1.2668194956643077,-15.991860465116304
1.2678162065184888,-2.9918604651163037
1.26881291737267,8.008139534883696
1.2698096282268512,16.008139534883696
1.2708063390810325,13.008139534883696
1.2718030499352138,19.008139534883696
1.2727997607893948,25.008139534883696
1.2737964716435761,27.008139534883696
1.2747931824977572,25.008139534883696
1.2757898933519385,25.008139534883696
1.2767866042061198,14.008139534883696
1.2777833150603009,3.0081395348836963
1.2787800259144821,2.0081395348836963
1.2797767367686632,-3.9918604651163037
1.2807734476228445,-9.991860465116304
1.2817701584770258,-43.991860465116304
1.2827668693312069,-55.991860465116304
1.2837635801853882,-38.991860465116304
1.2847602910395692,-33.991860465116304
1.2857570018937505,-24.991860465116304
1.2867537127479316,-7.991860465116304
1.287750423602113,12.008139534883696
1.2887471344562942,11.008139534883696
1.2897438453104753,21.008139534883696
1.2907405561646565,23.008139534883696
1.2917372670188376,14.008139534883696
1.292733977873019,15.008139534883696
1.2937306887272002,21.008139534883696
1.2947273995813813,42.008139534883696
1.2957241104355626,38.008139534883696
1.2967208212897436,31.008139534883696
1.297717532143925,19.008139534883696
1.2987142429981062,-2.9918604651163037
1.2997109538522873,-19.991860465116304
1.3007076647064686,-25.991860465116304
1.3017043755606497,-22.991860465116304
1.302701086414831,-22.991860465116304
1.3036977972690122,-34.991860465116304
1.3046945081231933,-26.991860465116304
1.3056912189773746,-36.991860465116304
1.3066879298315557,-21.991860465116304
1.307684640685737,-26.991860465116304
1.308681351539918,-4.991860465116304
1.3096780623940993,19.008139534883696
1.3106747732482806,32.008139534883696
1.3116714841024617,25.008139534883696
1.312668194956643,19.008139534883696
1.313664905810824,19.008139534883696
1.3146616166650054,19.008139534883696
1.3156583275191867,17.008139534883696
1.3166550383733677,7.008139534883696
1.317651749227549,5.008139534883696
1.31864846008173,-1.9918604651163037
1.3196451709359114,-14.991860465116304
1.3206418817900927,-20.991860465116304
1.3216385926442737,-23.991860465116304
1.322635303498455,-17.991860465116304
1.323632014352636,-28.991860465116304
1.3246287252068174,-30.991860465116304
1.3256254360609985,-10.991860465116304
1.3266221469151798,17.008139534883696
1.327618857769361,12.008139534883696
1.3286155686235421,12.008139534883696
1.3296122794777234,9.008139534883696
1.3306089903319045,13.008139534883696
1.3316057011860858,8.008139534883696
1.332602412040267,11.008139534883696
1.3335991228944482,19.008139534883696
1.3345958337486294,24.008139534883696
1.3355925446028105,22.008139534883696
1.3365892554569918,15.008139534883696
1.337585966311173,9.008139534883696
1.3385826771653542,6.008139534883696
1.3395793880195355,-6.991860465116304
1.3405760988737165,-15.991860465116304
1.3415728097278978,-27.991860465116304
1.3425695205820791,-31.991860465116304
1.3435662314362602,-28.991860465116304
1.3445629422904415,-25.991860465116304
1.3455596531446226,-17.991860465116304
1.3465563639988039,-12.991860465116304
1.347553074852985,-9.991860465116304
1.3485497857071662,-0.9918604651163037
1.3495464965613475,3.0081395348836963
1.3505432074155286,18.008139534883696
1.3515399182697099,28.008139534883696
1.352536629123891,21.008139534883696
1.3535333399780722,22.008139534883696
1.3545300508322535,32.008139534883696
1.3555267616864346,38.008139534883696
1.356523472540616,58.008139534883696
1.357520183394797,52.008139534883696
1.3585168942489783,5.008139534883696
1.3595136051031596,-25.991860465116304
1.3605103159573406,-24.991860465116304
1.361507026811522,-29.991860465116304
1.362503737665703,-33.991860465116304
1.3635004485198843,-35.991860465116304
1.3644971593740653,-38.991860465116304
1.3654938702282466,-34.991860465116304
1.366490581082428,-27.991860465116304
1.367487291936609,-25.991860465116304
1.3684840027907903,-15.991860465116304
1.3694807136449714,4.008139534883696
1.3704774244991527,35.008139534883696
1.371474135353334,42.008139534883696
1.372470846207515,37.008139534883696
1.3734675570616963,27.008139534883696
1.3744642679158774,21.008139534883696
1.3754609787700587,13.008139534883696
1.37645768962424,13.008139534883696
1.377454400478421,11.008139534883696
1.3784511113326023,-2.9918604651163037
1.3794478221867834,0.008139534883696342
1.3804445330409647,-7.991860465116304
1.381441243895146,-19.991860465116304
1.382437954749327,-26.991860465116304
1.3834346656035084,-24.991860465116304
1.3844313764576894,-25.991860465116304
1.3854280873118707,-19.991860465116304
1.3864247981660518,-8.991860465116304
1.387421509020233,23.008139534883696
1.3884182198744144,6.008139534883696
1.3894149307285955,-14.991860465116304
1.3904116415827767,-6.991860465116304
1.3914083524369578,9.008139534883696
1.3924050632911391,19.008139534883696
1.3934017741453204,22.008139534883696
1.3943984849995015,23.008139534883696
1.3953951958536828,22.008139534883696
1.3963919067078638,19.008139534883696
1.3973886175620451,10.008139534883696
1.3983853284162264,0.008139534883696342
1.3993820392704075,-4.991860465116304
1.4003787501245888,-12.991860465116304
1.4013754609787699,-20.991860465116304
1.4023721718329512,-25.991860465116304
1.4033688826871322,-28.991860465116304
1.4043655935413135,-23.991860465116304
1.4053623043954948,-21.991860465116304
1.4063590152496759,-16.991860465116304
1.4073557261038572,-12.991860465116304
1.4083524369580382,-2.9918604651163037
1.4093491478122195,15.008139534883696
1.4103458586664008,20.008139534883696
1.411342569520582,25.008139534883696
1.4123392803747632,27.008139534883696
1.4133359912289443,24.008139534883696
1.4143327020831256,28.008139534883696
1.4153294129373069,25.008139534883696
1.416326123791488,20.008139534883696
1.4173228346456692,12.008139534883696
1.4183195454998503,-7.991860465116304
1.4193162563540316,-21.991860465116304
1.4203129672082129,-28.991860465116304
1.421309678062394,-31.991860465116304
1.4223063889165752,-34.991860465116304
1.4233030997707563,-31.991860465116304
1.4242998106249376,-10.991860465116304
1.4252965214791187,-10.991860465116304
1.4262932323333,-1.9918604651163037
1.4272899431874813,9.008139534883696
1.4282866540416623,16.008139534883696
1.4292833648958436,12.008139534883696
1.4302800757500247,17.008139534883696
1.431276786604206,24.008139534883696
1.4322734974583873,24.008139534883696
1.4332702083125684,23.008139534883696
1.4342669191667496,27.008139534883696
1.4352636300209307,18.008139534883696
1.436260340875112,8.008139534883696
1.4372570517292933,6.008139534883696
1.4382537625834744,-2.9918604651163037
1.4392504734376557,-8.991860465116304
1.4402471842918367,-17.991860465116304
1.441243895146018,-27.991860465116304
1.4422406060001993,-26.991860465116304
1.4432373168543804,-26.991860465116304
1.4442340277085617,-26.991860465116304
1.4452307385627428,-18.991860465116304
1.446227449416924,-10.991860465116304
1.4472241602711051,-2.9918604651163037
1.4482208711252864,3.0081395348836963
1.4492175819794677,8.008139534883696
1.4502142928336488,12.008139534883696
1.45121100368783,25.008139534883696
1.4522077145420111,34.008139534883696
1.4532044253961924,30.008139534883696
1.4542011362503737,31.008139534883696
1.4551978471045548,28.008139534883696
1.456194557958736,19.008139534883696
1.4571912688129172,8.008139534883696
1.4581879796670985,6.008139534883696
1.4591846905212797,1.0081395348836963
1.4601814013754608,-10.991860465116304
1.4611781122296421,-19.991860465116304
1.4621748230838232,-26.991860465116304
1.4631715339380045,-34.991860465116304
1.4641682447921855,-33.991860465116304
1.4651649556463668,-21.991860465116304
1.4661616665005481,-17.991860465116304
1.4671583773547292,-10.991860465116304
1.4681550882089105,-2.9918604651163037
1.4691517990630916,8.008139534883696
1.4701485099172729,29.008139534883696
1.4711452207714542,30.008139534883696
1.4721419316256352,27.008139534883696
1.4731386424798165,34.008139534883696
1.4741353533339976,31.008139534883696
1.4751320641881789,13.008139534883696
1.4761287750423602,4.008139534883696
1.4771254858965412,2.0081395348836963
1.4781221967507225,-11.991860465116304
1.4791189076049036,-9.991860465116304
1.480115618459085,-7.991860465116304
1.4811123293132662,-29.991860465116304
1.4821090401674473,-28.991860465116304
1.4831057510216286,-30.991860465116304
1.4841024618758096,-28.991860465116304
1.485099172729991,-12.991860465116304
1.486095883584172,-1.9918604651163037
1.4870925944383533,2.0081395348836963
1.4880893052925346,5.008139534883696
1.4890860161467157,5.008139534883696
1.490082727000897,13.008139534883696
1.491079437855078,21.008139534883696
1.4920761487092593,28.008139534883696
1.4930728595634406,27.008139534883696
1.4940695704176217,29.008139534883696
1.495066281271803,25.008139534883696
1.496062992125984,18.008139534883696
1.4970597029801653,12.008139534883696
1.4980564138343466,-2.9918604651163037
1.4990531246885277,-6.991860465116304
1.500049835542709,-15.991860465116304
1.50104654639689,-23.991860465116304
1.5020432572510714,-26.991860465116304
1.5030399681052524,-26.991860465116304
1.5040366789594337,-30.991860465116304
1.505033389813615,-22.991860465116304
1.506030100667796,-13.991860465116304
1.5070268115219774,-6.991860465116304
1.5080235223761584,4.008139534883696
1.5090202332303397,15.008139534883696
1.510016944084521,22.008139534883696
1.511013654938702,26.008139534883696
1.5120103657928834,26.008139534883696
1.5130070766470645,29.008139534883696
1.5140037875012458,29.008139534883696
1.515000498355427,28.008139534883696
1.5159972092096081,22.008139534883696
1.5169939200637894,13.008139534883696
1.5179906309179705,2.0081395348836963
1.5189873417721518,-4.991860465116304
1.519984052626333,-15.991860465116304
1.5209807634805141,-26.991860465116304
1.5219774743346954,-33.991860465116304
1.5229741851888765,-37.991860465116304
1.5239708960430578,-37.991860465116304
1.5249676068972389,-28.991860465116304
1.5259643177514202,-21.991860465116304
1.5269610286056015,4.008139534883696
1.5279577394597825,28.008139534883696
1.5289544503139638,29.008139534883696
1.529951161168145,28.008139534883696
1.5309478720223262,22.008139534883696
1.5319445828765075,23.008139534883696
1.5329412937306885,27.008139534883696
1.5339380045848698,33.008139534883696
1.534934715439051,25.008139534883696
1.5359314262932322,14.008139534883696
1.5369281371474135,7.008139534883696
1.5379248480015946,-0.9918604651163037
1.5389215588557759,-9.991860465116304
1.539918269709957,-18.991860465116304
1.5409149805641382,-27.991860465116304
1.5419116914183193,-30.991860465116304
1.5429084022725006,-27.991860465116304
1.5439051131266819,-26.991860465116304
1.544901823980863,-19.991860465116304
1.5458985348350442,-13.991860465116304
1.5468952456892253,-7.991860465116304
1.5478919565434066,5.008139534883696
1.548888667397588,13.008139534883696
1.549885378251769,19.008139534883696
1.5508820891059503,24.008139534883696
1.5518787999601313,26.008139534883696
1.5528755108143126,30.008139534883696
1.553872221668494,36.008139534883696
1.554868932522675,31.008139534883696
1.5558656433768563,18.008139534883696
1.5568623542310374,8.008139534883696
1.5578590650852187,0.008139534883696342
1.5588557759394,2.0081395348836963
1.559852486793581,-4.991860465116304
1.5608491976477623,-26.991860465116304
1.5618459085019434,-29.991860465116304
1.5628426193561247,-31.991860465116304
1.5638393302103057,-32.991860465116304
1.564836041064487,-21.991860465116304
1.5658327519186683,-13.991860465116304
1.5668294627728494,-1.9918604651163037
1.5678261736270307,6.008139534883696
1.5688228844812118,12.008139534883696
1.569819595335393,14.008139534883696
1.5708163061895744,24.008139534883696
1.5718130170437554,27.008139534883696
1.5728097278979367,25.008139534883696
1.5738064387521178,27.008139534883696
1.574803149606299,24.008139534883696
1.5757998604604804,25.008139534883696
1.5767965713146614,19.008139534883696
1.5777932821688427,8.008139534883696
1.5787899930230238,-3.9918604651163037
1.579786703877205,-11.991860465116304
1.5807834147313862,-21.991860465116304
1.5817801255855675,-34.991860465116304
1.5827768364397488,-34.991860465116304
1.5837735472939298,-32.991860465116304
1.5847702581481111,-23.991860465116304
1.5857669690022922,-15.991860465116304
1.5867636798564735,-6.991860465116304
1.5877603907106548,3.0081395348836963
1.5887571015648358,10.008139534883696
1.5897538124190171,19.008139534883696
1.5907505232731982,24.008139534883696
1.5917472341273795,26.008139534883696
1.5927439449815608,25.008139534883696
1.5937406558357419,30.008139534883696
1.5947373666899232,24.008139534883696
1.5957340775441042,15.008139534883696
1.5967307883982855,6.008139534883696
1.5977274992524668,-2.9918604651163037
1.598724210106648,-13.991860465116304
1.5997209209608292,-22.991860465116304
1.6007176318150103,-32.991860465116304
1.6017143426691915,-23.991860465116304
1.6027110535233726,-10.991860465116304
1.603707764377554,-5.991860465116304
1.6047044752317352,-3.9918604651163037
1.6057011860859163,-20.991860465116304
1.6066978969400976,-18.991860465116304
1.6076946077942786,-4.991860465116304
1.60869131864846,5.008139534883696
1.6096880295026412,14.008139534883696
1.6106847403568223,20.008139534883696
1.6116814512110036,25.008139534883696
1.6126781620651847,27.008139534883696
1.613674872919366,29.008139534883696
1.6146715837735472,24.008139534883696
1.6156682946277283,17.008139534883696
1.6166650054819096,10.008139534883696
1.6176617163360907,0.008139534883696342
1.618658427190272,-4.991860465116304
1.619655138044453,-14.991860465116304
1.6206518488986343,-26.991860465116304
1.6216485597528156,-28.991860465116304
1.6226452706069967,-29.991860465116304
1.623641981461178,-29.991860465116304
1.624638692315359,-19.991860465116304
1.6256354031695404,-14.991860465116304
1.6266321140237217,-5.991860465116304
1.6276288248779027,4.008139534883696
1.628625535732084,12.008139534883696
1.629622246586265,21.008139534883696
1.6306189574404464,30.008139534883696
1.6316156682946277,30.008139534883696
1.6326123791488087,24.008139534883696
1.63360909000299,25.008139534883696
1.634605800857171,25.008139534883696
1.6356025117113524,17.008139534883696
1.6365992225655337,10.008139534883696
1.6375959334197148,-2.9918604651163037
1.638592644273896,-7.991860465116304
1.6395893551280771,-14.991860465116304
1.6405860659822584,-25.991860465116304
1.6415827768364395,-33.991860465116304
1.6425794876906208,-33.991860465116304
1.643576198544802,-33.991860465116304
1.6445729093989832,-24.991860465116304
1.6455696202531644,-19.991860465116304
1.6465663311073455,-15.991860465116304
1.6475630419615268,1.0081395348836963
1.648559752815708,5.008139534883696
1.6495564636698892,4.008139534883696
1.6505531745240705,17.008139534883696
1.6515498853782515,24.008139534883696
1.6525465962324328,27.008139534883696
1.6535433070866141,49.008139534883696
1.6545400179407952,52.008139534883696
1.6555367287949765,31.008139534883696
1.6565334396491576,4.008139534883696
1.6575301505033389,-6.991860465116304
1.6585268613575201,-9.991860465116304
1.6595235722117012,-15.991860465116304
1.6605202830658825,-32.991860465116304
1.6615169939200636,-38.991860465116304
1.6625137047742449,-38.991860465116304
1.663510415628426,-33.991860465116304
1.6645071264826072,-26.991860465116304
1.6655038373367885,-19.991860465116304
1.6665005481909696,-7.991860465116304
1.667497259045151,1.0081395348836963
1.668493969899332,8.008139534883696
1.6694906807535133,16.008139534883696
1.6704873916076945,22.008139534883696
1.6714841024618756,28.008139534883696
1.672480813316057,30.008139534883696
1.673477524170238,29.008139534883696
1.6744742350244193,20.008139534883696
1.6754709458786006,16.008139534883696
1.6764676567327816,11.008139534883696
1.677464367586963,3.0081395348836963
1.678461078441144,-6.991860465116304
1.6794577892953253,-18.991860465116304
1.6804545001495064,-26.991860465116304
1.6814512110036877,-29.991860465116304
1.682447921857869,-29.991860465116304
1.68344463271205,-34.991860465116304
1.6844413435662313,-24.991860465116304
1.6854380544204124,-15.991860465116304
1.6864347652745937,-7.991860465116304
1.687431476128775,3.0081395348836963
1.688428186982956,6.008139534883696
1.6894248978371373,13.008139534883696
1.6904216086913184,22.008139534883696
1.6914183195454997,24.008139534883696
1.692415030399681,26.008139534883696
1.693411741253862,26.008139534883696
1.6944084521080434,24.008139534883696
1.6954051629622244,20.008139534883696
1.6964018738164057,12.008139534883696
1.697398584670587,5.008139534883696
1.698395295524768,-7.991860465116304
1.6993920063789494,-15.991860465116304
1.7003887172331305,-27.991860465116304
1.7013854280873117,-31.991860465116304
1.7023821389414928,-31.991860465116304
1.703378849795674,-28.991860465116304
1.7043755606498554,-20.991860465116304
1.7053722715040365,-11.991860465116304
1.7063689823582178,-5.991860465116304
1.7073656932123988,1.0081395348836963
1.7083624040665801,5.008139534883696
1.7093591149207614,12.008139534883696
1.7103558257749425,20.008139534883696
1.7113525366291238,24.008139534883696
1.7123492474833049,24.008139534883696
1.7133459583374862,29.008139534883696
1.7143426691916674,24.008139534883696
1.7153393800458485,16.008139534883696
1.7163360909000298,7.008139534883696
1.7173328017542109,-2.9918604651163037
1.7183295126083922,-7.991860465116304
1.7193262234625732,-15.991860465116304
1.7203229343167545,-27.991860465116304
1.7213196451709358,-31.991860465116304
1.722316356025117,-30.991860465116304
1.7233130668792982,-28.991860465116304
1.7243097777334793,-23.991860465116304
1.7253064885876606,-13.991860465116304
1.7263031994418419,-6.991860465116304
1.727299910296023,6.008139534883696
1.7282966211502042,8.008139534883696
1.7292933320043853,14.008139534883696
1.7302900428585666,20.008139534883696
1.7312867537127479,24.008139534883696
1.732283464566929,25.008139534883696
1.7332801754211102,28.008139534883696
1.7342768862752913,22.008139534883696
1.7352735971294726,17.008139534883696
1.736270307983654,9.008139534883696
1.737267018837835,-1.9918604651163037
1.7382637296920163,-7.991860465116304
1.7392604405461973,-17.991860465116304
1.7402571514003786,-26.991860465116304
1.7412538622545597,-28.991860465116304
1.742250573108741,-29.991860465116304
1.7432472839629223,-34.991860465116304
1.7442439948171033,-25.991860465116304
1.7452407056712846,-15.991860465116304
1.7462374165254657,-8.991860465116304
1.747234127379647,3.0081395348836963
1.7482308382338283,6.008139534883696
1.7492275490880094,14.008139534883696
1.7502242599421907,23.008139534883696
1.7512209707963717,24.008139534883696
1.752217681650553,26.008139534883696
1.7532143925047343,27.008139534883696
1.7542111033589154,23.008139534883696
1.7552078142130967,19.008139534883696
1.7562045250672778,11.008139534883696
1.757201235921459,1.0081395348836963
1.7581979467756401,-9.991860465116304
1.7591946576298214,-15.991860465116304
1.7601913684840027,-27.991860465116304
1.7611880793381838,-34.991860465116304
1.762184790192365,-32.991860465116304
1.7631815010465461,-30.991860465116304
1.7641782119007274,-22.991860465116304
1.7651749227549087,-14.991860465116304
1.7661716336090898,-10.991860465116304
1.767168344463271,1.0081395348836963
1.7681650553174522,6.008139534883696
1.7691617661716335,13.008139534883696
1.7701584770258147,20.008139534883696
1.7711551878799958,22.008139534883696
1.7721518987341771,23.008139534883696
1.7731486095883582,30.008139534883696
1.7741453204425395,26.008139534883696
1.7751420312967208,15.008139534883696
1.7761387421509018,8.008139534883696
1.7771354530050831,4.008139534883696
1.7781321638592642,-4.991860465116304
1.7791288747134455,-15.991860465116304
1.7801255855676266,-29.991860465116304
1.7811222964218079,-30.991860465116304
1.7821190072759892,-29.991860465116304
1.7831157181301702,-28.991860465116304
1.7841124289843515,-22.991860465116304
1.7851091398385326,-16.991860465116304
1.7861058506927139,-8.991860465116304
1.7871025615468952,4.008139534883696
1.7880992724010762,8.008139534883696
1.7890959832552575,14.008139534883696
1.7900926941094386,19.008139534883696
1.79108940496362,26.008139534883696
1.7920861158178012,24.008139534883696
1.7930828266719823,27.008139534883696
1.7940795375261636,20.008139534883696
1.7950762483803446,17.008139534883696
1.796072959234526,9.008139534883696
1.797069670088707,-0.9918604651163037
1.7980663809428883,-7.991860465116304
1.7990630917970696,-16.991860465116304
1.8000598026512507,-25.991860465116304
1.801056513505432,-30.991860465116304
1.802053224359613,-31.991860465116304
1.8030499352137943,-30.991860465116304
1.8040466460679756,-20.991860465116304
1.8050433569221567,-13.991860465116304
1.806040067776338,-4.991860465116304
1.807036778630519,1.0081395348836963
1.8080334894847003,6.008139534883696
1.8090302003388816,13.008139534883696
1.8100269111930627,27.008139534883696
1.811023622047244,26.008139534883696
1.812020332901425,24.008139534883696
1.8130170437556064,28.008139534883696
1.8140137546097876,25.008139534883696
1.8150104654639687,21.008139534883696
1.81600717631815,14.008139534883696
1.817003887172331,1.0081395348836963
1.8180005980265124,-5.991860465116304
1.8189973088806934,-12.991860465116304
1.8199940197348747,-23.991860465116304
1.820990730589056,-30.991860465116304
1.821987441443237,-29.991860465116304
1.8229841522974184,-25.991860465116304
1.8239808631515995,-18.991860465116304
1.8249775740057808,-13.991860465116304
1.825974284859962,-7.991860465116304
1.8269709957141431,5.008139534883696
1.8279677065683244,7.008139534883696
1.8289644174225055,15.008139534883696
1.8299611282766868,20.008139534883696
1.830957839130868,21.008139534883696
1.8319545499850491,26.008139534883696
1.8329512608392304,32.008139534883696
1.8339479716934115,23.008139534883696
1.8349446825475928,17.008139534883696
1.8359413934017739,10.008139534883696
1.8369381042559552,1.0081395348836963
1.8379348151101365,-7.991860465116304
1.8389315259643175,-16.991860465116304
1.8399282368184988,-31.991860465116304
1.84092494767268,-30.991860465116304
1.8419216585268612,-27.991860465116304
1.8429183693810425,-26.991860465116304
1.8439150802352235,-21.991860465116304
1.8449117910894048,-16.991860465116304
1.845908501943586,-7.991860465116304
1.8469052127977672,2.0081395348836963
1.8479019236519485,6.008139534883696
1.8488986345061296,13.008139534883696
1.8498953453603109,20.008139534883696
1.850892056214492,22.008139534883696
1.8518887670686732,23.008139534883696
1.8528854779228545,25.008139534883696
1.8538821887770356,20.008139534883696
1.8548788996312169,13.008139534883696
1.855875610485398,8.008139534883696
1.8568723213395792,1.0081395348836963
1.8578690321937603,-7.991860465116304
1.8588657430479416,-16.991860465116304
1.859862453902123,-28.991860465116304
1.860859164756304,-30.991860465116304
1.8618558756104853,-31.991860465116304
1.8628525864646663,-33.991860465116304
1.8638492973188476,-21.991860465116304
1.864846008173029,-14.991860465116304
1.86584271902721,-5.991860465116304
1.8668394298813913,3.0081395348836963
1.8678361407355724,9.008139534883696
1.8688328515897537,13.008139534883696
1.869829562443935,22.008139534883696
1.870826273298116,24.008139534883696
1.8718229841522973,26.008139534883696
1.8728196950064784,26.008139534883696
1.8738164058606597,22.008139534883696
1.8748131167148407,17.008139534883696
1.875809827569022,12.008139534883696
1.8768065384232033,2.0081395348836963
1.8778032492773844,-6.991860465116304
1.8787999601315657,-14.991860465116304
1.8797966709857468,-25.991860465116304
1.880793381839928,-29.991860465116304
1.8817900926941094,-30.991860465116304
1.8827868035482904,-26.991860465116304
1.8837835144024717,-19.991860465116304
1.8847802252566528,-12.991860465116304
1.885776936110834,-6.991860465116304
1.8867736469650154,3.0081395348836963
1.8877703578191964,10.008139534883696
1.8887670686733777,17.008139534883696
1.8897637795275588,23.008139534883696
1.89076049038174,25.008139534883696
1.8917572012359214,25.008139534883696
1.8927539120901025,30.008139534883696
1.8937506229442838,25.008139534883696
1.8947473337984648,16.008139534883696
1.8957440446526461,9.008139534883696
1.8967407555068272,1.0081395348836963
1.8977374663610085,-7.991860465116304
1.8987341772151898,-13.991860465116304
1.8997308880693708,-23.991860465116304
1.9007275989235521,-29.991860465116304
1.9017243097777332,-28.991860465116304
1.9027210206319145,-26.991860465116304
1.9037177314860958,-21.991860465116304
1.9047144423402769,-17.991860465116304
1.9057111531944582,-6.991860465116304
1.9067078640486392,3.0081395348836963
1.9077045749028205,9.008139534883696
1.9087012857570018,15.008139534883696
1.909697996611183,20.008139534883696
1.9106947074653642,26.008139534883696
1.9116914183195453,26.008139534883696
1.9126881291737265,27.008139534883696
1.9136848400279076,25.008139534883696
1.914681550882089,15.008139534883696
1.9156782617362702,9.008139534883696
1.9166749725904513,-2.9918604651163037
1.9176716834446326,-10.991860465116304
1.9186683942988136,-14.991860465116304
1.919665105152995,-25.991860465116304
1.9206618160071762,-29.991860465116304
1.9216585268613573,-30.991860465116304
1.9226552377155386,-30.991860465116304
1.9236519485697197,-19.991860465116304
1.924648659423901,-10.991860465116304
1.9256453702780822,-4.991860465116304
1.9266420811322633,4.008139534883696
1.9276387919864446,9.008139534883696
1.9286355028406257,14.008139534883696
1.929632213694807,24.008139534883696
1.9306289245489883,25.008139534883696
1.9316256354031693,24.008139534883696
1.9326223462573506,25.008139534883696
1.9336190571115317,23.008139534883696
1.934615767965713,20.008139534883696
1.935612478819894,11.008139534883696
1.9366091896740754,0.008139534883696342
1.9376059005282567,-9.991860465116304
1.9386026113824377,-15.991860465116304
1.939599322236619,-24.991860465116304
1.9405960330908,-30.991860465116304
1.9415927439449814,-29.991860465116304
1.9425894547991627,-27.991860465116304
1.9435861656533437,-17.991860465116304
1.944582876507525,-10.991860465116304
1.945579587361706,-3.9918604651163037
1.9465762982158874,1.0081395348836963
1.9475730090700687,6.008139534883696
1.9485697199242498,15.008139534883696
1.949566430778431,24.008139534883696
1.9505631416326121,21.008139534883696
1.9515598524867934,27.008139534883696
1.9525565633409747,27.008139534883696
1.9535532741951558,23.008139534883696
1.954549985049337,16.008139534883696
1.9555466959035182,8.008139534883696
1.9565434067576994,2.0081395348836963
1.9575401176118805,-4.991860465116304
1.9585368284660618,-11.991860465116304
1.959533539320243,-24.991860465116304
1.9605302501744242,-27.991860465116304
1.9615269610286055,-26.991860465116304
1.9625236718827865,-26.991860465116304
1.9635203827369678,-20.991860465116304
1.9645170935911491,-16.991860465116304
1.9655138044453302,-4.991860465116304
1.9665105152995115,5.008139534883696
1.9675072261536926,8.008139534883696
1.9685039370078738,12.008139534883696
1.9695006478620551,21.008139534883696
1.9704973587162362,23.008139534883696
1.9714940695704175,25.008139534883696
1.9724907804245986,28.008139534883696
1.9734874912787799,21.008139534883696
1.974484202132961,18.008139534883696
1.9754809129871422,13.008139534883696
1.9764776238413235,1.0081395348836963
1.9774743346955046,-4.991860465116304
1.978471045549686,-13.991860465116304
1.979467756403867,-23.991860465116304
1.9804644672580483,-26.991860465116304
1.9814611781122295,-28.991860465116304
1.9824578889664106,-32.991860465116304
1.983454599820592,-21.991860465116304
1.984451310674773,-14.991860465116304
1.9854480215289543,-6.991860465116304
1.9864447323831356,2.0081395348836963
1.9874414432373166,7.008139534883696
1.988438154091498,13.008139534883696
1.989434864945679,21.008139534883696
1.9904315757998603,28.008139534883696
1.9914282866540416,25.008139534883696
1.9924249975082227,27.008139534883696
1.993421708362404,25.008139534883696
1.994418419216585,19.008139534883696
1.9954151300707663,10.008139534883696
1.9964118409249474,0.008139534883696342
1.9974085517791287,-6.991860465116304
1.99840526263331,-14.991860465116304
1.999401973487491,-24.991860465116304
2.0003986843416723,-32.991860465116304
2.0013953951958534,-31.991860465116304
2.0023921060500345,-25.991860465116304
2.003388816904216,-19.991860465116304
2.004385527758397,-12.991860465116304
2.005382238612578,-7.991860465116304
2.0063789494667597,0.008139534883696342
2.0073756603209407,6.008139534883696
2.008372371175122,12.008139534883696
2.0093690820293033,22.008139534883696
2.0103657928834844,20.008139534883696
2.0113625037376655,22.008139534883696
2.0123592145918465,30.008139534883696
2.013355925446028,24.008139534883696
2.014352636300209,16.008139534883696
2.01534934715439,9.008139534883696
2.0163460580085717,1.0081395348836963
2.0173427688627528,-6.991860465116304
2.018339479716934,-14.991860465116304
2.0193361905711154,-23.991860465116304
2.0203329014252964,-28.991860465116304
2.0213296122794775,-29.991860465116304
2.0223263231336586,-25.991860465116304
2.02332303398784,-17.991860465116304
2.024319744842021,-12.991860465116304
2.0253164556962022,-4.991860465116304
2.0263131665503837,5.008139534883696
2.027309877404565,8.008139534883696
2.028306588258746,12.008139534883696
2.029303299112927,20.008139534883696
2.0303000099671085,24.008139534883696
2.0312967208212895,24.008139534883696
2.0322934316754706,26.008139534883696
2.033290142529652,23.008139534883696
2.034286853383833,17.008139534883696
2.0352835642380143,12.008139534883696
2.036280275092196,2.0081395348836963
2.037276985946377,-6.991860465116304
2.038273696800558,-10.991860465116304
2.039270407654739,-25.991860465116304
2.0402671185089205,-26.991860465116304
2.0412638293631016,-26.991860465116304
2.0422605402172826,-28.991860465116304
2.043257251071464,-21.991860465116304
2.0442539619256452,-12.991860465116304
2.0452506727798263,-4.991860465116304
2.0462473836340074,1.0081395348836963
2.047244094488189,4.008139534883696
2.04824080534237,12.008139534883696
2.049237516196551,25.008139534883696
2.0502342270507325,25.008139534883696
2.0512309379049136,26.008139534883696
2.0522276487590947,27.008139534883696
2.053224359613276,22.008139534883696
2.0542210704674573,18.008139534883696
2.0552177813216383,10.008139534883696
2.0562144921758194,1.0081395348836963
2.057211203030001,-7.991860465116304
2.058207913884182,-15.991860465116304
2.059204624738363,-23.991860465116304
2.0602013355925446,-31.991860465116304
2.0611980464467257,-30.991860465116304
2.0621947573009067,-28.991860465116304
2.063191468155088,-21.991860465116304
2.0641881790092693,-13.991860465116304
2.0651848898634504,-7.991860465116304
2.0661816007176315,-0.9918604651163037
2.067178311571813,8.008139534883696
2.068175022425994,14.008139534883696
2.069171733280175,21.008139534883696
2.0701684441343566,24.008139534883696
2.0711651549885377,26.008139534883696
2.0721618658427188,29.008139534883696
2.0731585766969,25.008139534883696
2.0741552875510814,19.008139534883696
2.0751519984052624,8.008139534883696
2.0761487092594435,1.0081395348836963
2.077145420113625,-4.991860465116304
2.078142130967806,-12.991860465116304
2.079138841821987,-26.991860465116304
2.0801355526761687,-28.991860465116304
2.0811322635303497,-27.991860465116304
2.082128974384531,-28.991860465116304
2.083125685238712,-21.991860465116304
2.0841223960928934,-14.991860465116304
2.0851191069470745,-7.991860465116304
2.0861158178012555,1.0081395348836963
2.087112528655437,8.008139534883696
2.088109239509618,16.008139534883696
2.089105950363799,21.008139534883696
2.0901026612179803,25.008139534883696
2.091099372072162,25.008139534883696
2.092096082926343,27.008139534883696
2.093092793780524,21.008139534883696
2.0940895046347054,16.008139534883696
2.0950862154888865,11.008139534883696
2.0960829263430676,2.0081395348836963
2.097079637197249,-5.991860465116304
2.09807634805143,-14.991860465116304
2.0990730589056112,-24.991860465116304
2.1000697697597923,-28.991860465116304
2.101066480613974,-30.991860465116304
2.102063191468155,-31.991860465116304
2.103059902322336,-24.991860465116304
2.1040566131765175,-15.991860465116304
2.1050533240306986,-7.991860465116304
2.1060500348848796,2.0081395348836963
2.1070467457390607,7.008139534883696
2.108043456593242,12.008139534883696
2.1090401674474233,23.008139534883696
2.1100368783016044,25.008139534883696
2.111033589155786,25.008139534883696
2.112030300009967,25.008139534883696
2.113027010864148,24.008139534883696
2.1140237217183295,21.008139534883696
2.1150204325725106,12.008139534883696
2.1160171434266917,1.0081395348836963
2.1170138542808727,-7.991860465116304
2.1180105651350543,-13.991860465116304
2.1190072759892353,-23.991860465116304
2.1200039868434164,-29.991860465116304
2.121000697697598,-30.991860465116304
2.121997408551779,-29.991860465116304
2.12299411940596,-18.991860465116304
2.123990830260141,-12.991860465116304
2.1249875411143226,-5.991860465116304
2.1259842519685037,3.0081395348836963
2.126980962822685,7.008139534883696
2.1279776736768663,14.008139534883696
2.1289743845310474,24.008139534883696
2.1299710953852284,22.008139534883696
2.13096780623941,24.008139534883696
2.131964517093591,30.008139534883696
2.132961227947772,24.008139534883696
2.133957938801953,18.008139534883696
2.1349546496561347,9.008139534883696
2.1359513605103158,1.0081395348836963
2.136948071364497,-8.991860465116304
2.1379447822186783,-13.991860465116304
2.1389414930728594,-26.991860465116304
2.1399382039270405,-30.991860465116304
2.1409349147812216,-25.991860465116304
2.141931625635403,-28.991860465116304
2.142928336489584,-20.991860465116304
2.143925047343765,-15.991860465116304
2.1449217581979467,-6.991860465116304
2.145918469052128,2.0081395348836963
2.146915179906309,6.008139534883696
2.1479118907604904,14.008139534883696
2.1489086016146715,22.008139534883696
2.1499053124688525,24.008139534883696
2.1509020233230336,25.008139534883696
2.151898734177215,28.008139534883696
2.152895445031396,22.008139534883696
2.1538921558855773,19.008139534883696
2.1548888667397588,12.008139534883696
2.15588557759394,1.0081395348836963
2.156882288448121,-7.991860465116304
2.1578789993023024,-14.991860465116304
2.1588757101564835,-26.991860465116304
2.1598724210106646,-26.991860465116304
2.1608691318648456,-27.991860465116304
2.161865842719027,-30.991860465116304
2.1628625535732082,-20.991860465116304
2.1638592644273893,-13.991860465116304
2.164855975281571,-7.991860465116304
2.165852686135752,1.0081395348836963
2.166849396989933,7.008139534883696
2.167846107844114,14.008139534883696
2.1688428186982955,23.008139534883696
2.1698395295524766,24.008139534883696
2.1708362404066577,23.008139534883696
2.171832951260839,28.008139534883696
2.1728296621150203,25.008139534883696
2.1738263729692013,20.008139534883696
2.174823083823383,13.008139534883696
2.175819794677564,0.008139534883696342
2.176816505531745,-5.991860465116304
2.177813216385926,-11.991860465116304
2.1788099272401076,-23.991860465116304
2.1798066380942887,-30.991860465116304
2.1808033489484697,-30.991860465116304
2.1818000598026512,-27.991860465116304
2.1827967706568323,-19.991860465116304
2.1837934815110134,-15.991860465116304
2.1847901923651945,-8.991860465116304
2.185786903219376,0.008139534883696342
2.186783614073557,6.008139534883696
2.187780324927738,14.008139534883696
2.1887770357819196,24.008139534883696
2.1897737466361007,24.008139534883696
2.1907704574902818,26.008139534883696
2.1917671683444633,30.008139534883696
2.1927638791986444,27.008139534883696
2.1937605900528254,18.008139534883696
2.1947573009070065,11.008139534883696
2.195754011761188,1.0081395348836963
2.196750722615369,-5.991860465116304
2.19774743346955,-13.991860465116304
2.1987441443237317,-27.991860465116304
2.1997408551779127,-31.991860465116304
2.200737566032094,-27.991860465116304
2.201734276886275,-27.991860465116304
2.2027309877404564,-23.991860465116304
2.2037276985946375,-17.991860465116304
2.2047244094488185,-7.991860465116304
2.205721120303,1.0081395348836963
2.206717831157181,6.008139534883696
2.207714542011362,13.008139534883696
2.2087112528655437,20.008139534883696
2.2097079637197248,27.008139534883696
2.210704674573906,28.008139534883696
2.211701385428087,30.008139534883696
2.2126980962822684,23.008139534883696
2.2136948071364495,20.008139534883696
2.2146915179906306,13.008139534883696
2.215688228844812,2.0081395348836963
2.216684939698993,-5.991860465116304
2.2176816505531742,-14.991860465116304
2.2186783614073553,-27.991860465116304
2.219675072261537,-29.991860465116304
2.220671783115718,-30.991860465116304
2.221668493969899,-30.991860465116304
2.2226652048240805,-20.991860465116304
2.2236619156782615,-13.991860465116304
2.2246586265324426,-6.991860465116304
2.225655337386624,1.0081395348836963
2.226652048240805,6.008139534883696
2.2276487590949863,11.008139534883696
2.2286454699491673,23.008139534883696
2.229642180803349,27.008139534883696
2.23063889165753,27.008139534883696
2.231635602511711,28.008139534883696
2.2326323133658925,25.008139534883696
2.2336290242200736,21.008139534883696
2.2346257350742547,11.008139534883696
2.235622445928436,0.008139534883696342
2.2366191567826172,-9.991860465116304
2.2376158676367983,-14.991860465116304
2.2386125784909794,-22.991860465116304
2.239609289345161,-29.991860465116304
2.240606000199342,-32.991860465116304
2.241602711053523,-30.991860465116304
2.2425994219077046,-22.991860465116304
2.2435961327618856,-15.991860465116304
2.2445928436160667,-7.991860465116304
2.2455895544702478,2.0081395348836963
2.2465862653244293,7.008139534883696
2.2475829761786104,16.008139534883696
2.2485796870327914,23.008139534883696
2.249576397886973,27.008139534883696
2.250573108741154,27.008139534883696
2.251569819595335,31.008139534883696
2.2525665304495166,26.008139534883696
2.2535632413036977,18.008139534883696
2.2545599521578787,9.008139534883696
2.25555666301206,2.0081395348836963
2.2565533738662413,-6.991860465116304
2.2575500847204224,-12.991860465116304
2.2585467955746035,-24.991860465116304
2.259543506428785,-30.991860465116304
2.260540217282966,-29.991860465116304
2.261536928137147,-27.991860465116304
2.262533638991328,-21.991860465116304
2.2635303498455097,-15.991860465116304
2.264527060699691,-7.991860465116304
2.265523771553872,1.0081395348836963
2.2665204824080534,8.008139534883696
2.2675171932622344,11.008139534883696
2.2685139041164155,20.008139534883696
2.269510614970597,25.008139534883696
2.270507325824778,24.008139534883696
2.271504036678959,28.008139534883696
2.2725007475331402,24.008139534883696
2.2734974583873218,19.008139534883696
2.274494169241503,14.008139534883696
2.275490880095684,2.0081395348836963
2.2764875909498654,-5.991860465116304
2.2774843018040465,-13.991860465116304
2.2784810126582276,-25.991860465116304
2.2794777235124086,-31.991860465116304
2.28047443436659,-30.991860465116304
2.281471145220771,-29.991860465116304
2.2824678560749523,-19.991860465116304
2.283464566929134,-13.991860465116304
2.284461277783315,-5.991860465116304
2.285457988637496,3.0081395348836963
2.2864546994916775,6.008139534883696
2.2874514103458585,13.008139534883696
2.2884481212000396,20.008139534883696
2.2894448320542207,24.008139534883696
2.290441542908402,24.008139534883696
2.2914382537625833,27.008139534883696
2.2924349646167643,26.008139534883696
2.293431675470946,22.008139534883696
2.294428386325127,12.008139534883696
2.295425097179308,0.008139534883696342
2.2964218080334895,-8.991860465116304
2.2974185188876706,-14.991860465116304
2.2984152297418516,-24.991860465116304
2.2994119405960327,-32.991860465116304
2.3004086514502142,-33.991860465116304
2.3014053623043953,-28.991860465116304
2.3024020731585764,-20.991860465116304
2.303398784012758,-12.991860465116304
2.304395494866939,-6.991860465116304
2.30539220572112,0.008139534883696342
2.306388916575301,8.008139534883696
2.3073856274294826,13.008139534883696
2.3083823382836637,24.008139534883696
2.3093790491378448,24.008139534883696
2.3103757599920263,27.008139534883696
2.3113724708462073,29.008139534883696
2.3123691817003884,26.008139534883696
2.31336589255457,19.008139534883696
2.314362603408751,10.008139534883696
2.315359314262932,1.0081395348836963
2.316356025117113,-5.991860465116304
2.3173527359712947,-12.991860465116304
2.3183494468254757,-26.991860465116304
2.319346157679657,-32.991860465116304
2.3203428685338383,-27.991860465116304
2.3213395793880194,-28.991860465116304
2.3223362902422005,-23.991860465116304
2.3233330010963815,-15.991860465116304
2.324329711950563,-6.991860465116304
2.325326422804744,3.0081395348836963
2.326323133658925,9.008139534883696
2.3273198445131067,14.008139534883696
2.3283165553672878,21.008139534883696
2.329313266221469,28.008139534883696
2.3303099770756504,29.008139534883696
2.3313066879298314,28.008139534883696
2.3323033987840125,23.008139534883696
2.3333001096381936,19.008139534883696
2.334296820492375,12.008139534883696
2.335293531346556,3.0081395348836963
2.336290242200737,-7.991860465116304
2.3372869530549187,-13.991860465116304
2.3382836639091,-26.991860465116304
2.339280374763281,-26.991860465116304
2.340277085617462,-28.991860465116304
2.3412737964716435,-30.991860465116304
2.3422705073258245,-23.991860465116304
2.3432672181800056,-15.991860465116304
2.344263929034187,-7.991860465116304
2.345260639888368,3.0081395348836963
2.3462573507425493,8.008139534883696
2.347254061596731,12.008139534883696
2.348250772450912,20.008139534883696
2.349247483305093,26.008139534883696
2.350244194159274,23.008139534883696
2.3512409050134555,27.008139534883696
2.3522376158676366,24.008139534883696
2.3532343267218176,20.008139534883696
2.354231037575999,13.008139534883696
2.3552277484301802,1.0081395348836963
2.3562244592843613,-8.991860465116304
2.3572211701385424,-14.991860465116304
2.358217880992724,-25.991860465116304
2.359214591846905,-29.991860465116304
2.360211302701086,-30.991860465116304
2.3612080135552675,-27.991860465116304
2.3622047244094486,-20.991860465116304
2.3632014352636297,-13.991860465116304
2.364198146117811,-9.991860465116304
2.3651948569719923,0.008139534883696342
2.3661915678261733,7.008139534883696
2.3671882786803544,10.008139534883696
2.368184989534536,21.008139534883696
2.369181700388717,21.008139534883696
2.370178411242898,25.008139534883696
2.3711751220970796,29.008139534883696
2.3721718329512607,28.008139534883696
2.3731685438054417,17.008139534883696
2.3741652546596232,10.008139534883696
2.3751619655138043,3.0081395348836963
2.3761586763679854,-5.991860465116304
2.3771553872221665,-14.991860465116304
2.378152098076348,-25.991860465116304
2.379148808930529,-29.991860465116304
2.38014551978471,-27.991860465116304
2.3811422306388916,-27.991860465116304
2.3821389414930727,-20.991860465116304
2.3831356523472538,-15.991860465116304
2.384132363201435,-4.991860465116304
2.3851290740556164,3.0081395348836963
2.3861257849097974,8.008139534883696
2.3871224957639785,16.008139534883696
2.38811920661816,21.008139534883696
2.389115917472341,28.008139534883696
2.390112628326522,29.008139534883696
2.3911093391807037,29.008139534883696
2.3921060500348847,24.008139534883696
2.393102760889066,19.008139534883696
2.394099471743247,14.008139534883696
2.3950961825974284,1.0081395348836963
2.3960928934516095,-7.991860465116304
2.3970896043057905,-12.991860465116304
2.398086315159972,-25.991860465116304
2.399083026014153,-28.991860465116304
2.400079736868334,-32.991860465116304
2.4010764477225153,-31.991860465116304
2.402073158576697,-23.991860465116304
2.403069869430878,-13.991860465116304
2.404066580285059,-4.991860465116304
2.4050632911392404,1.0081395348836963
2.4060600019934215,5.008139534883696
2.4070567128476026,11.008139534883696
2.408053423701784,20.008139534883696
2.409050134555965,24.008139534883696
2.4100468454101462,25.008139534883696
2.4110435562643273,27.008139534883696
2.412040267118509,27.008139534883696
2.41303697797269,20.008139534883696
2.414033688826871,13.008139534883696
2.4150303996810525,2.0081395348836963
2.4160271105352336,-5.991860465116304
2.4170238213894146,-13.991860465116304
2.4180205322435957,-21.991860465116304
2.419017243097777,-30.991860465116304
2.4200139539519583,-30.991860465116304
2.4210106648061394,-29.991860465116304
2.422007375660321,-19.991860465116304
2.423004086514502,-13.991860465116304
2.424000797368683,-8.991860465116304
2.4249975082228645,0.008139534883696342
2.4259942190770456,6.008139534883696
2.4269909299312267,13.008139534883696
2.4279876407854077,22.008139534883696
2.4289843516395893,24.008139534883696
2.4299810624937703,24.008139534883696
2.4309777733479514,30.008139534883696
2.431974484202133,27.008139534883696
2.432971195056314,17.008139534883696
2.433967905910495,9.008139534883696
2.434964616764676,3.0081395348836963
2.4359613276188576,-5.991860465116304
2.4369580384730387,-11.991860465116304
2.43795474932722,-25.991860465116304
2.4389514601814013,-29.991860465116304
2.4399481710355824,-28.991860465116304
2.4409448818897634,-26.991860465116304
2.441941592743945,-24.991860465116304
2.442938303598126,-16.991860465116304
2.443935014452307,-9.991860465116304
2.444931725306488,1.0081395348836963
2.4459284361606697,7.008139534883696
2.4469251470148508,15.008139534883696
2.447921857869032,18.008139534883696
2.4489185687232133,26.008139534883696
2.4499152795773944,27.008139534883696
2.4509119904315755,27.008139534883696
2.451908701285757,23.008139534883696
2.452905412139938,18.008139534883696
2.453902122994119,11.008139534883696
2.4548988338483,3.0081395348836963
2.4558955447024817,-4.991860465116304
2.456892255556663,-14.991860465116304
2.457888966410844,-25.991860465116304
2.4588856772650254,-27.991860465116304
2.4598823881192065,-31.991860465116304
2.4608790989733875,-30.991860465116304
2.4618758098275686,-22.991860465116304
2.46287252068175,-18.991860465116304
2.463869231535931,-5.991860465116304
2.4648659423901123,4.008139534883696
2.4658626532442938,8.008139534883696
2.466859364098475,14.008139534883696
2.467856074952656,22.008139534883696
2.4688527858068374,23.008139534883696
2.4698494966610185,24.008139534883696
2.4708462075151996,23.008139534883696
2.4718429183693806,24.008139534883696
2.472839629223562,22.008139534883696
2.4738363400777432,14.008139534883696
2.4748330509319243,3.0081395348836963
2.475829761786106,-6.991860465116304
2.476826472640287,-10.991860465116304
2.477823183494468,-22.991860465116304
2.478819894348649,-28.991860465116304
2.4798166052028305,-30.991860465116304
2.4808133160570116,-30.991860465116304
2.4818100269111927,-19.991860465116304
2.482806737765374,-14.991860465116304
2.4838034486195553,-9.991860465116304
2.4848001594737363,2.0081395348836963
2.485796870327918,6.008139534883696
2.486793581182099,12.008139534883696
2.48779029203628,22.008139534883696
2.488787002890461,23.008139534883696
2.4897837137446426,23.008139534883696
2.4907804245988237,28.008139534883696
2.4917771354530047,27.008139534883696
2.4927738463071862,18.008139534883696
2.4937705571613673,10.008139534883696
2.4947672680155484,0.008139534883696342
2.4957639788697294,-5.991860465116304
2.496760689723911,-13.991860465116304
2.497757400578092,-25.991860465116304
2.498754111432273,-27.991860465116304
2.4997508222864546,-28.991860465116304
2.5007475331406357,-25.991860465116304
2.5017442439948168,-22.991860465116304
2.5027409548489983,-15.991860465116304
2.5037376657031793,-6.991860465116304
2.5047343765573604,1.0081395348836963
2.5057310874115415,9.008139534883696
2.506727798265723,16.008139534883696
2.507724509119904,19.008139534883696
2.508721219974085,26.008139534883696
2.5097179308282667,25.008139534883696
2.5107146416824477,26.008139534883696
2.511711352536629,22.008139534883696
2.51270806339081,17.008139534883696
2.5137047742449914,13.008139534883696
2.5147014850991725,5.008139534883696
2.5156981959533535,-5.991860465116304
2.516694906807535,-10.991860465116304
2.517691617661716,-24.991860465116304
2.518688328515897,-28.991860465116304
2.5196850393700787,-28.991860465116304
2.5206817502242598,-31.991860465116304
2.521678461078441,-20.991860465116304
2.522675171932622,-14.991860465116304
2.5236718827868034,-5.991860465116304
2.5246685936409845,4.008139534883696
2.5256653044951656,6.008139534883696
2.526662015349347,12.008139534883696
2.527658726203528,20.008139534883696
2.5286554370577092,23.008139534883696
2.5296521479118907,24.008139534883696
2.530648858766072,23.008139534883696
2.531645569620253,26.008139534883696
2.532642280474434,22.008139534883696
2.5336389913286155,12.008139534883696
2.5346357021827965,0.008139534883696342
2.5356324130369776,-6.991860465116304
2.536629123891159,-12.991860465116304
2.53762583474534,-22.991860465116304
2.5386225455995213,-29.991860465116304
2.5396192564537023,-30.991860465116304
2.540615967307884,-27.991860465116304
2.541612678162065,-19.991860465116304
2.542609389016246,-14.991860465116304
2.5436060998704275,-9.991860465116304
2.5446028107246086,1.0081395348836963
2.5455995215787897,7.008139534883696
2.546596232432971,14.008139534883696
2.5475929432871522,21.008139534883696
2.5485896541413333,22.008139534883696
2.5495863649955144,25.008139534883696
2.550583075849696,29.008139534883696
2.551579786703877,27.008139534883696
2.552576497558058,19.008139534883696
2.5535732084122396,10.008139534883696
2.5545699192664206,3.0081395348836963
2.5555666301206017,-6.991860465116304
2.5565633409747828,-11.991860465116304
2.5575600518289643,-25.991860465116304
2.5585567626831454,-30.991860465116304
2.5595534735373264,-28.991860465116304
2.560550184391508,-28.991860465116304
2.561546895245689,-22.991860465116304
2.56254360609987,-14.991860465116304
2.5635403169540516,-10.991860465116304
2.5645370278082327,0.008139534883696342
2.5655337386624137,4.008139534883696
2.566530449516595,9.008139534883696
2.5675271603707763,22.008139534883696
2.5685238712249574,28.008139534883696
2.5695205820791385,29.008139534883696
2.57051729293332,28.008139534883696
2.571514003787501,26.008139534883696
2.572510714641682,22.008139534883696
2.573507425495863,14.008139534883696
2.5745041363500447,5.008139534883696
2.575500847204226,-2.9918604651163037
2.576497558058407,-11.991860465116304
2.5774942689125884,-26.991860465116304
2.5784909797667694,-29.991860465116304
2.5794876906209505,-29.991860465116304
2.580484401475132,-29.991860465116304
2.581481112329313,-22.991860465116304
2.582477823183494,-15.991860465116304
2.5834745340376752,-9.991860465116304
2.5844712448918568,1.0081395348836963
2.585467955746038,7.008139534883696
2.586464666600219,13.008139534883696
2.5874613774544004,21.008139534883696
2.5884580883085815,25.008139534883696
2.5894547991627626,25.008139534883696
2.590451510016944,25.008139534883696
2.591448220871125,24.008139534883696
2.592444931725306,21.008139534883696
2.5934416425794873,12.008139534883696
2.594438353433669,1.0081395348836963
2.59543506428785,-4.991860465116304
2.596431775142031,-10.991860465116304
2.5974284859962125,-21.991860465116304
2.5984251968503935,-32.991860465116304
2.5994219077045746,-31.991860465116304
2.6004186185587557,-28.991860465116304
2.601415329412937,-20.991860465116304
2.6024120402671183,-13.991860465116304
2.6034087511212993,-8.991860465116304
2.604405461975481,1.0081395348836963
2.605402172829662,6.008139534883696
2.606398883683843,11.008139534883696
2.6073955945380245,20.008139534883696
2.6083923053922056,21.008139534883696
2.6093890162463866,25.008139534883696
2.6103857271005677,27.008139534883696
2.6113824379547492,28.008139534883696
2.6123791488089303,18.008139534883696
2.6133758596631114,9.008139534883696
2.614372570517293,2.0081395348836963
2.615369281371474,-5.991860465116304
2.616365992225655,-10.991860465116304
2.617362703079836,-24.991860465116304
2.6183594139340176,-28.991860465116304
2.6193561247881987,-28.991860465116304
2.6203528356423798,-25.991860465116304
2.6213495464965613,-20.991860465116304
2.6223462573507423,-15.991860465116304
2.6233429682049234,-9.991860465116304
2.624339679059105,1.0081395348836963
2.625336389913286,6.008139534883696
2.626333100767467,12.008139534883696
2.627329811621648,20.008139534883696
2.6283265224758297,24.008139534883696
2.6293232333300107,25.008139534883696
2.630319944184192,26.008139534883696
2.6313166550383733,22.008139534883696
2.6323133658925544,16.008139534883696
2.6333100767467355,15.008139534883696
2.6343067876009165,4.008139534883696
2.635303498455098,-5.991860465116304
2.636300209309279,-10.991860465116304
2.63729692016346,-23.991860465116304
2.6382936310176417,-25.991860465116304
2.6392903418718228,-30.991860465116304
2.640287052726004,-30.991860465116304
2.6412837635801854,-21.991860465116304
2.6422804744343664,-16.991860465116304
2.6432771852885475,-7.991860465116304
2.6442738961427286,1.0081395348836963
2.64527060699691,6.008139534883696
2.646267317851091,13.008139534883696
2.647264028705272,20.008139534883696
2.6482607395594537,25.008139534883696
2.649257450413635,25.008139534883696
2.650254161267816,27.008139534883696
2.651250872121997,27.008139534883696
2.6522475829761785,22.008139534883696
2.6532442938303595,12.008139534883696
2.6542410046845406,1.0081395348836963
2.655237715538722,-4.991860465116304
2.656234426392903,-13.991860465116304
2.6572311372470843,-22.991860465116304
2.6582278481012658,-30.991860465116304
2.659224558955447,-28.991860465116304
2.660221269809628,-28.991860465116304
2.661217980663809,-20.991860465116304
2.6622146915179905,-13.991860465116304
2.6632114023721716,-7.991860465116304
2.6642081132263526,3.0081395348836963
2.665204824080534,9.008139534883696
2.6662015349347152,12.008139534883696
2.6671982457888963,20.008139534883696
2.668194956643078,20.008139534883696
2.669191667497259,24.008139534883696
2.67018837835144,29.008139534883696
2.671185089205621,27.008139534883696
2.6721818000598025,21.008139534883696
2.6731785109139836,10.008139534883696
2.6741752217681647,1.0081395348836963
2.675171932622346,-5.991860465116304
2.6761686434765273,-10.991860465116304
2.6771653543307083,-23.991860465116304
2.6781620651848894,-30.991860465116304
2.679158776039071,-28.991860465116304
2.680155486893252,-28.991860465116304
2.681152197747433,-24.991860465116304
2.6821489086016146,-15.991860465116304
2.6831456194557957,-8.991860465116304
2.6841423303099767,0.008139534883696342
2.6851390411641582,8.008139534883696
2.6861357520183393,14.008139534883696
2.6871324628725204,20.008139534883696
2.6881291737267015,25.008139534883696
2.689125884580883,25.008139534883696
2.690122595435064,26.008139534883696
2.691119306289245,24.008139534883696
2.6921160171434266,19.008139534883696
2.6931127279976077,13.008139534883696
2.6941094388517888,4.008139534883696
2.69510614970597,-5.991860465116304
2.6961028605601514,-12.991860465116304
2.6970995714143324,-24.991860465116304
2.6980962822685135,-27.991860465116304
2.699092993122695,-28.991860465116304
2.700089703976876,-30.991860465116304
2.701086414831057,-22.991860465116304
2.7020831256852387,-13.991860465116304
2.7030798365394197,-5.991860465116304
2.704076547393601,1.0081395348836963
2.705073258247782,5.008139534883696
2.7060699691019634,13.008139534883696
2.7070666799561445,22.008139534883696
2.7080633908103255,24.008139534883696
2.709060101664507,21.008139534883696
2.710056812518688,25.008139534883696
2.711053523372869,27.008139534883696
2.7120502342270503,20.008139534883696
2.713046945081232,11.008139534883696
2.714043655935413,3.0081395348836963
2.715040366789594,-7.991860465116304
2.7160370776437754,-10.991860465116304
2.7170337884979565,-24.991860465116304
2.7180304993521376,-31.991860465116304
2.719027210206319,-31.991860465116304
2.7200239210605,-26.991860465116304
2.7210206319146812,-19.991860465116304
2.7220173427688623,-15.991860465116304
2.723014053623044,-10.991860465116304
2.724010764477225,0.008139534883696342
2.725007475331406,5.008139534883696
2.7260041861855875,12.008139534883696
2.7270008970397686,21.008139534883696
2.7279976078939496,22.008139534883696
2.7289943187481307,25.008139534883696
2.729991029602312,29.008139534883696
2.7309877404564933,25.008139534883696
2.7319844513106744,20.008139534883696
2.732981162164856,12.008139534883696
2.733977873019037,2.0081395348836963
2.734974583873218,-6.991860465116304
2.7359712947273995,-11.991860465116304
2.7369680055815806,-24.991860465116304
2.7379647164357617,-29.991860465116304
2.7389614272899427,-30.991860465116304
2.7399581381441243,-27.991860465116304
2.7409548489983053,-22.991860465116304
2.7419515598524864,-17.991860465116304
2.742948270706668,-9.991860465116304
2.743944981560849,1.0081395348836963
2.74494169241503,4.008139534883696
2.7459384032692116,12.008139534883696
2.7469351141233926,21.008139534883696
2.7479318249775737,24.008139534883696
2.748928535831755,26.008139534883696
2.7499252466859363,25.008139534883696
2.7509219575401174,22.008139534883696
2.7519186683942984,19.008139534883696
2.75291537924848,13.008139534883696
2.753912090102661,3.0081395348836963
2.754908800956842,-5.991860465116304
2.755905511811023,-12.991860465116304
2.7569022226652047,-25.991860465116304
2.7578989335193858,-26.991860465116304
2.758895644373567,-28.991860465116304
2.7598923552277483,-30.991860465116304
2.7608890660819294,-23.991860465116304
2.7618857769361105,-15.991860465116304
2.762882487790292,-12.991860465116304
2.763879198644473,0.008139534883696342
2.764875909498654,6.008139534883696
2.765872620352835,8.008139534883696
2.7668693312070167,19.008139534883696
2.767866042061198,28.008139534883696
2.768862752915379,28.008139534883696
2.7698594637695604,29.008139534883696
2.7708561746237415,29.008139534883696
2.7718528854779225,22.008139534883696
2.7728495963321036,17.008139534883696
2.773846307186285,9.008139534883696
2.774843018040466,6.008139534883696
2.7758397288946473,-7.991860465116304
2.7768364397488288,-31.991860465116304
2.77783315060301,-40.991860465116304
2.778829861457191,-40.991860465116304
2.7798265723113724,-41.991860465116304
2.7808232831655535,-33.991860465116304
2.7818199940197346,-26.991860465116304
2.7828167048739156,-20.991860465116304
2.783813415728097,-16.991860465116304
2.7848101265822782,-2.9918604651163037
2.7858068374364593,12.008139534883696
2.786803548290641,12.008139534883696
2.787800259144822,22.008139534883696
2.788796969999003,43.008139534883696
2.789793680853184,56.008139534883696
2.7907903917073655,51.008139534883696
2.7917871025615466,36.008139534883696
2.7927838134157277,45.008139534883696
2.793780524269909,47.008139534883696
2.7947772351240903,17.008139534883696
2.7957739459782713,-10.991860465116304
2.796770656832453,-31.991860465116304
2.797767367686634,-46.991860465116304
2.798764078540815,-47.991860465116304
2.799760789394996,-48.991860465116304
2.8007575002491776,-35.991860465116304
2.8017542111033586,-30.991860465116304
2.8027509219575397,-34.991860465116304
2.8037476328117212,-27.991860465116304
2.8047443436659023,-16.991860465116304
2.8057410545200834,-14.991860465116304
2.8067377653742644,-22.991860465116304
2.807734476228446,-10.991860465116304
2.808731187082627,14.008139534883696
2.809727897936808,51.008139534883696
2.8107246087909896,67.0081395348837
2.8117213196451707,44.008139534883696
2.8127180304993518,23.008139534883696
2.8137147413535333,12.008139534883696
2.8147114522077143,38.008139534883696
2.8157081630618954,36.008139534883696
2.8167048739160765,39.008139534883696
2.817701584770258,17.008139534883696
2.818698295624439,-19.991860465116304
2.81969500647862,-43.991860465116304
2.8206917173328017,-91.9918604651163
2.8216884281869827,-97.9918604651163
2.822685139041164,-77.9918604651163
2.8236818498953453,-20.991860465116304
2.8246785607495264,46.008139534883696
2.8256752716037075,89.0081395348837
2.8266719824578885,80.0081395348837
2.82766869331207,38.008139534883696
2.828665404166251,50.008139534883696
2.829662115020432,44.008139534883696
2.8306588258746137,44.008139534883696
2.8316555367287948,51.008139534883696
2.832652247582976,51.008139534883696
2.833648958437157,20.008139534883696
2.8346456692913384,-22.991860465116304
2.8356423801455195,-68.9918604651163
2.8366390909997006,-104.9918604651163
2.837635801853882,-109.9918604651163
2.838632512708063,-108.9918604651163
2.8396292235622442,-91.9918604651163
2.8406259344164257,-78.9918604651163
2.841622645270607,-74.9918604651163
2.842619356124788,-30.991860465116304
2.843616066978969,10.008139534883696
2.8446127778331505,22.008139534883696
2.8456094886873315,57.008139534883696
2.8466061995415126,72.0081395348837
2.847602910395694,44.008139534883696
2.848599621249875,67.0081395348837
2.8495963321040563,93.0081395348837
2.8505930429582373,59.008139534883696
2.851589753812419,47.008139534883696
2.8525864646666,20.008139534883696
2.853583175520781,20.008139534883696
2.8545798863749625,12.008139534883696
2.8555765972291436,-7.991860465116304
2.8565733080833247,-57.991860465116304
2.857570018937506,-60.991860465116304
2.8585667297916872,-31.991860465116304
2.8595634406458683,-23.991860465116304
2.8605601515000494,-21.991860465116304
2.861556862354231,-19.991860465116304
2.862553573208412,-41.991860465116304
2.863550284062593,-61.991860465116304
2.8645469949167746,-54.991860465116304
2.8655437057709556,-32.991860465116304
2.8665404166251367,16.008139534883696
2.8675371274793178,26.008139534883696
2.8685338383334993,65.0081395348837
2.8695305491876804,92.0081395348837
2.8705272600418614,121.0081395348837
2.871523970896043,85.0081395348837
2.872520681750224,1.0081395348836963
2.873517392604405,-47.991860465116304
2.8745141034585866,-55.991860465116304
2.8755108143127677,-46.991860465116304
2.8765075251669487,-43.991860465116304
2.87750423602113,-40.991860465116304
2.8785009468753113,-37.991860465116304
2.8794976577294924,-49.991860465116304
2.8804943685836735,-22.991860465116304
2.881491079437855,-13.991860465116304
2.882487790292036,4.008139534883696
2.883484501146217,-3.9918604651163037
2.8844812120003986,0.008139534883696342
2.8854779228545797,-11.991860465116304
2.886474633708761,-26.991860465116304
2.887471344562942,-52.991860465116304
2.8884680554171234,-52.991860465116304
2.8894647662713044,-39.991860465116304
2.8904614771254855,-31.991860465116304
2.891458187979667,-30.991860465116304
2.892454898833848,-33.991860465116304
2.893451609688029,-58.991860465116304
2.8944483205422102,-31.991860465116304
2.8954450313963918,11.008139534883696
2.896441742250573,33.008139534883696
2.897438453104754,44.008139534883696
2.8984351639589354,65.0081395348837
2.8994318748131165,50.008139534883696
2.9004285856672976,-21.991860465116304
2.901425296521479,-84.9918604651163
2.90242200737566,-70.9918604651163
2.903418718229841,-41.991860465116304
2.9044154290840223,-46.991860465116304
2.905412139938204,-31.991860465116304
2.906408850792385,25.008139534883696
2.907405561646566,54.008139534883696
2.9084022725007475,36.008139534883696
2.9093989833549285,52.008139534883696
2.9103956942091096,32.008139534883696
2.9113924050632907,-20.991860465116304
2.912389115917472,-67.9918604651163
2.9133858267716533,-74.9918604651163
2.9143825376258343,-81.9918604651163
2.915379248480016,-74.9918604651163
2.916375959334197,-13.991860465116304
2.917372670188378,46.008139534883696
2.9183693810425595,47.008139534883696
2.9193660918967406,105.0081395348837
2.9203628027509216,131.0081395348837
2.9213595136051027,93.0081395348837
2.9223562244592842,4.008139534883696
2.9233529353134653,-81.9918604651163
2.9243496461676464,-100.9918604651163
2.925346357021828,-105.9918604651163
2.926343067876009,-114.9918604651163
2.92733977873019,-63.991860465116304
2.928336489584371,27.008139534883696
2.9293332004385526,75.0081395348837
2.9303299112927337,98.0081395348837
2.9313266221469148,85.0081395348837
2.9323233330010963,94.0081395348837
2.9333200438552773,152.0081395348837
2.9343167547094584,101.0081395348837
2.93531346556364,22.008139534883696
2.936310176417821,-70.9918604651163
2.937306887272002,-91.9918604651163
2.938303598126183,-46.991860465116304
2.9393003089803647,-40.991860465116304
2.9402970198345457,-50.991860465116304
2.941293730688727,-51.991860465116304
2.9422904415429083,9.008139534883696
2.9432871523970894,51.008139534883696
2.9442838632512704,27.008139534883696
2.9452805741054515,-7.991860465116304
2.946277284959633,-42.991860465116304
2.947273995813814,-10.991860465116304
2.948270706667995,61.008139534883696
2.9492674175221767,76.0081395348837
2.9502641283763578,40.008139534883696
2.951260839230539,-1.9918604651163037
2.9522575500847204,15.008139534883696
2.9532542609389014,47.008139534883696
2.9542509717930825,56.008139534883696
2.9552476826472636,70.0081395348837
2.956244393501445,12.008139534883696
2.957241104355626,-50.991860465116304
2.958237815209807,-48.991860465116304
2.9592345260639887,-66.9918604651163
2.96023123691817,-35.991860465116304
2.961227947772351,62.008139534883696
2.9622246586265324,87.0081395348837
2.9632213694807135,28.008139534883696
2.9642180803348945,-11.991860465116304
2.9652147911890756,-21.991860465116304
2.966211502043257,-10.991860465116304
2.967208212897438,-47.991860465116304
2.9682049237516193,-21.991860465116304
2.9692016346058008,65.0081395348837
2.970198345459982,105.0081395348837
2.971195056314163,93.0081395348837
2.972191767168344,96.0081395348837
2.9731884780225255,61.008139534883696
2.9741851888767066,22.008139534883696
2.9751818997308876,16.008139534883696
2.976178610585069,-39.991860465116304
2.9771753214392502,-94.9918604651163
2.9781720322934313,-81.9918604651163
2.979168743147613,-103.9918604651163
2.980165454001794,-115.9918604651163
2.981162164855975,-96.9918604651163
2.982158875710156,-110.9918604651163
2.9831555865643375,-24.991860465116304
2.9841522974185186,108.0081395348837
2.9851490082726997,193.0081395348837
2.986145719126881,183.0081395348837
2.9871424299810623,91.0081395348837
2.9881391408352433,-0.9918604651163037
2.9891358516894244,-63.991860465116304
2.990132562543606,-63.991860465116304
2.991129273397787,-78.9918604651163
2.992125984251968,-28.991860465116304
2.9931226951061496,-31.991860465116304
2.9941194059603307,24.008139534883696
2.9951161168145117,23.008139534883696
2.9961128276686932,49.008139534883696
2.9971095385228743,132.0081395348837
2.9981062493770554,83.0081395348837
2.9991029602312365,4.008139534883696
3.000099671085418,-48.991860465116304
3.001096381939599,-91.9918604651163
3.00209309279378,-78.9918604651163
3.0030898036479616,-46.991860465116304
3.0040865145021427,-4.991860465116304
3.0050832253563238,33.008139534883696
3.006079936210505,25.008139534883696
3.0070766470646864,-27.991860465116304
3.0080733579188674,-22.991860465116304
3.0090700687730485,57.008139534883696
3.01006677962723,11.008139534883696
3.011063490481411,12.008139534883696
3.012060201335592,2.0081395348836963
3.0130569121897737,-6.991860465116304
3.0140536230439547,37.008139534883696
3.015050333898136,71.0081395348837
3.016047044752317,3.0081395348836963
3.0170437556064984,-68.9918604651163
3.0180404664606795,-100.9918604651163
3.0190371773148605,-34.991860465116304
3.020033888169042,88.0081395348837
3.021030599023223,72.0081395348837
3.022027309877404,15.008139534883696
3.0230240207315853,42.008139534883696
3.024020731585767,10.008139534883696
3.025017442439948,-45.991860465116304
3.026014153294129,-66.9918604651163
3.0270108641483104,-51.991860465116304
3.0280075750024915,-49.991860465116304
3.0290042858566726,-9.991860465116304
3.030000996710854,100.0081395348837
3.030997707565035,129.0081395348837
3.0319944184192162,83.0081395348837
3.0329911292733973,29.008139534883696
3.033987840127579,20.008139534883696
3.03498455098176,9.008139534883696
3.035981261835941,6.008139534883696
3.0369779726901225,-3.9918604651163037
3.0379746835443036,-29.991860465116304
3.0389713943984846,-63.991860465116304
3.039968105252666,-83.9918604651163
3.040964816106847,-50.991860465116304
3.0419615269610283,-27.991860465116304
3.0429582378152094,-30.991860465116304
3.043954948669391,-10.991860465116304
3.044951659523572,1.0081395348836963
3.045948370377753,43.008139534883696
3.0469450812319345,76.0081395348837
3.0479417920861156,83.0081395348837
3.0489385029402967,102.0081395348837
3.0499352137944777,62.008139534883696
3.0509319246486593,-15.991860465116304
3.0519286355028403,-50.991860465116304
3.0529253463570214,-23.991860465116304
3.053922057211203,-22.991860465116304
3.054918768065384,-68.9918604651163
3.055915478919565,-91.9918604651163
3.0569121897737466,12.008139534883696
3.0579089006279276,34.008139534883696
3.0589056114821087,9.008139534883696
3.05990232233629,-2.9918604651163037
3.0608990331904713,30.008139534883696
3.0618957440446524,37.008139534883696
3.0628924548988334,-15.991860465116304
3.063889165753015,-59.991860465116304
3.064885876607196,-59.991860465116304
3.065882587461377,-17.991860465116304
3.066879298315558,8.008139534883696
3.0678760091697397,61.008139534883696
3.0688727200239208,76.0081395348837
3.069869430878102,54.008139534883696
3.0708661417322833,-1.9918604651163037
3.0718628525864644,-12.991860465116304
3.0728595634406455,-6.991860465116304
3.073856274294827,-14.991860465116304
3.074852985149008,-10.991860465116304
3.075849696003189,-5.991860465116304
3.07684640685737,-39.991860465116304
3.0778431177115517,-56.991860465116304
3.078839828565733,-44.991860465116304
3.079836539419914,-26.991860465116304
3.0808332502740954,-24.991860465116304
3.0818299611282765,-5.991860465116304
3.0828266719824575,5.008139534883696
3.0838233828366386,17.008139534883696
3.08482009369082,26.008139534883696
3.085816804545001,28.008139534883696
3.0868135153991823,21.008139534883696
3.0878102262533638,22.008139534883696
3.088806937107545,20.008139534883696
3.089803647961726,23.008139534883696
3.0908003588159074,20.008139534883696
3.0917970696700885,16.008139534883696
3.0927937805242696,7.008139534883696
3.0937904913784506,0.008139534883696342
3.094787202232632,-4.991860465116304
3.095783913086813,-19.991860465116304
3.0967806239409943,-25.991860465116304
3.097777334795176,-25.991860465116304
3.098774045649357,-24.991860465116304
3.099770756503538,-21.991860465116304
3.1007674673577195,-16.991860465116304
3.1017641782119005,-10.991860465116304
3.1027608890660816,1.0081395348836963
3.1037575999202627,7.008139534883696
3.104754310774444,11.008139534883696
3.1057510216286253,17.008139534883696
3.1067477324828063,22.008139534883696
3.107744443336988,25.008139534883696
3.108741154191169,26.008139534883696
3.10973786504535,23.008139534883696
3.110734575899531,21.008139534883696
3.1117312867537126,15.008139534883696
3.1127279976078936,5.008139534883696
3.1137247084620747,-1.9918604651163037
3.1147214193162562,-9.991860465116304
3.1157181301704373,-24.991860465116304
3.1167148410246184,-27.991860465116304
3.1177115518788,-29.991860465116304
3.118708262732981,-30.991860465116304
3.119704973587162,-25.991860465116304
3.120701684441343,-14.991860465116304
3.1216983952955246,-2.9918604651163037
3.1226951061497057,5.008139534883696
3.1236918170038868,14.008139534883696
3.1246885278580683,12.008139534883696
3.1256852387122493,14.008139534883696
3.1266819495664304,12.008139534883696
3.1276786604206115,23.008139534883696
3.128675371274793,34.008139534883696
3.129672082128974,16.008139534883696
3.130668792983155,4.008139534883696
3.1316655038373367,12.008139534883696
3.1326622146915177,4.008139534883696
3.133658925545699,14.008139534883696
3.1346556363998803,6.008139534883696
3.1356523472540614,-18.991860465116304
3.1366490581082425,-38.991860465116304
3.1376457689624235,-46.991860465116304
3.138642479816605,-45.991860465116304
3.139639190670786,-22.991860465116304
