Time,EMG
0.0,288.44052899894064
0.0009931308449888272,433.44052899894064
0.0019862616899776545,422.44052899894064
0.0029793925349664817,355.44052899894064
0.003972523379955309,251.44052899894064
0.004965654224944136,186.44052899894064
0.005958785069932963,97.44052899894064
0.006951915914921791,29.440528998940636
0.007945046759910618,77.44052899894064
0.008938177604899445,243.44052899894064
0.009931308449888272,252.44052899894064
0.0109244392948771,70.44052899894064
0.011917570139865927,-164.55947100105936
0.012910700984854754,-393.55947100105936
0.013903831829843581,-487.55947100105936
0.014896962674832408,-509.55947100105936
0.015890093519821236,-512.5594710010594
0.016883224364810063,-483.55947100105936
0.01787635520979889,-237.55947100105936
0.018869486054787717,41.440528998940636
0.019862616899776545,287.44052899894064
0.020855747744765372,427.44052899894064
0.0218488785897542,415.44052899894064
0.022842009434743026,347.44052899894064
0.023835140279731853,243.44052899894064
0.02482827112472068,183.44052899894064
0.025821401969709508,95.44052899894064
0.026814532814698335,27.440528998940636
0.027807663659687162,74.44052899894064
0.02880079450467599,243.44052899894064
0.029793925349664817,251.44052899894064
0.030787056194653644,74.44052899894064
0.03178018703964247,-161.55947100105936
0.032773317884631295,-391.55947100105936
0.033766448729620126,-488.55947100105936
0.034759579574608956,-509.55947100105936
0.03575271041959778,-512.5594710010594
0.036745841264586604,-480.55947100105936
0.037738972109575435,-232.55947100105936
0.038732102954564265,42.440528998940636
0.03972523379955309,287.44052899894064
0.04071836464454191,429.44052899894064
0.041711495489530744,414.44052899894064
0.042704626334519574,348.44052899894064
0.0436977571795084,245.44052899894064
0.04469088802449722,183.44052899894064
0.04568401886948605,95.44052899894064
0.04667714971447488,24.440528998940636
0.04767028055946371,70.44052899894064
0.04866341140445253,244.44052899894064
0.04965654224944136,255.44052899894064
0.05064967309443019,78.44052899894064
0.051642803939419016,-159.55947100105936
0.05263593478440784,-383.55947100105936
0.05362906562939667,-480.55947100105936
0.0546221964743855,-504.55947100105936
0.055615327319374325,-512.5594710010594
0.05660845816436315,-477.55947100105936
0.05760158900935198,-234.55947100105936
0.05859471985434081,36.440528998940636
0.059587850699329634,281.44052899894064
0.06058098154431846,425.44052899894064
0.06157411238930729,413.44052899894064
0.06256724323429612,344.44052899894064
0.06356037407928494,242.44052899894064
0.06455350492427377,179.44052899894064
0.06554663576926259,90.44052899894064
0.06653976661425143,23.440528998940636
0.06753289745924025,73.44052899894064
0.06852602830422908,243.44052899894064
0.06951915914921791,254.44052899894064
0.07051228999420674,78.44052899894064
0.07150542083919556,-152.55947100105936
0.07249855168418438,-380.55947100105936
0.07349168252917321,-479.55947100105936
0.07448481337416205,-503.55947100105936
0.07547794421915087,-512.5594710010594
0.07647107506413969,-477.55947100105936
0.07746420590912853,-233.55947100105936
0.07845733675411735,34.440528998940636
0.07945046759910618,278.44052899894064
0.080443598444095,416.44052899894064
0.08143672928908383,406.44052899894064
0.08242986013407266,339.44052899894064
0.08342299097906149,238.44052899894064
0.08441612182405031,178.44052899894064
0.08540925266903915,87.44052899894064
0.08640238351402797,22.440528998940636
0.0873955143590168,75.44052899894064
0.08838864520400562,244.44052899894064
0.08938177604899444,257.44052899894064
0.09037490689398328,82.44052899894064
0.0913680377389721,-149.55947100105936
0.09236116858396093,-379.55947100105936
0.09335429942894977,-478.55947100105936
0.09434743027393859,-499.55947100105936
0.09534056111892741,-512.5594710010594
0.09633369196391624,-477.55947100105936
0.09732682280890506,-234.55947100105936
0.0983199536538939,35.440528998940636
0.09931308449888272,275.44052899894064
0.10030621534387155,421.44052899894064
0.10129934618886038,407.44052899894064
0.10229247703384921,343.44052899894064
0.10328560787883803,235.44052899894064
0.10427873872382686,171.44052899894064
0.10527186956881568,85.44052899894064
0.10626500041380452,19.440528998940636
0.10725813125879334,75.44052899894064
0.10825126210378216,242.44052899894064
0.109244392948771,260.44052899894064
0.11023752379375983,88.44052899894064
0.11123065463874865,-145.55947100105936
0.11222378548373747,-373.55947100105936
0.1132169163287263,-471.55947100105936
0.11421004717371513,-500.55947100105936
0.11520317801870396,-512.5594710010594
0.11619630886369278,-474.55947100105936
0.11718943970868162,-235.55947100105936
0.11818257055367044,35.440528998940636
0.11917570139865927,274.44052899894064
0.12016883224364809,419.44052899894064
0.12116196308863691,405.44052899894064
0.12215509393362575,335.44052899894064
0.12314822477861458,236.44052899894064
0.1241413556236034,172.44052899894064
0.12513448646859224,86.44052899894064
0.12612761731358105,18.440528998940636
0.12712074815856989,70.44052899894064
0.12811387900355872,243.44052899894064
0.12910700984854753,260.44052899894064
0.13010014069353637,87.44052899894064
0.13109327153852518,-142.55947100105936
0.13208640238351402,-369.55947100105936
0.13307953322850286,-469.55947100105936
0.13407266407349167,-495.55947100105936
0.1350657949184805,-512.5594710010594
0.13605892576346934,-476.55947100105936
0.13705205660845815,-236.55947100105936
0.138045187453447,31.440528998940636
0.13903831829843583,272.44052899894064
0.14003144914342464,414.44052899894064
0.14102457998841347,402.44052899894064
0.14201771083340228,331.44052899894064
0.14301084167839112,230.44052899894064
0.14400397252337996,171.44052899894064
0.14499710336836877,84.44052899894064
0.1459902342133576,14.440528998940636
0.14698336505834642,71.44052899894064
0.14797649590333525,245.44052899894064
0.1489696267483241,263.44052899894064
0.1499627575933129,94.44052899894064
0.15095588843830174,-139.55947100105936
0.15194901928329058,-363.55947100105936
0.15294215012827939,-466.55947100105936
0.15393528097326822,-494.55947100105936
0.15492841181825706,-512.5594710010594
0.15592154266324587,-477.55947100105936
0.1569146735082347,-238.55947100105936
0.15790780435322352,29.440528998940636
0.15890093519821236,267.44052899894064
0.1598940660432012,411.44052899894064
0.16088719688819,397.44052899894064
0.16188032773317884,335.44052899894064
0.16287345857816765,232.44052899894064
0.1638665894231565,169.44052899894064
0.16485972026814533,81.44052899894064
0.16585285111313414,16.440528998940636
0.16684598195812297,69.44052899894064
0.1678391128031118,243.44052899894064
0.16883224364810062,264.44052899894064
0.16982537449308946,92.44052899894064
0.1708185053380783,-135.55947100105936
0.1718116361830671,-360.55947100105936
0.17280476702805594,-464.55947100105936
0.17379789787304475,-493.55947100105936
0.1747910287180336,-512.5594710010594
0.17578415956302243,-471.55947100105936
0.17677729040801124,-236.55947100105936
0.17777042125300008,30.440528998940636
0.1787635520979889,268.44052899894064
0.17975668294297772,409.44052899894064
0.18074981378796656,397.44052899894064
0.18174294463295537,331.44052899894064
0.1827360754779442,230.44052899894064
0.18372920632293305,166.44052899894064
0.18472233716792186,80.44052899894064
0.1857154680129107,15.440528998940636
0.18670859885789953,71.44052899894064
0.18770172970288834,244.44052899894064
0.18869486054787718,265.44052899894064
0.189687991392866,96.44052899894064
0.19068112223785483,-131.55947100105936
0.19167425308284367,-362.55947100105936
0.19266738392783248,-465.55947100105936
0.1936605147728213,-490.55947100105936
0.19465364561781012,-512.5594710010594
0.19564677646279896,-473.55947100105936
0.1966399073077878,-234.55947100105936
0.1976330381527766,31.440528998940636
0.19862616899776545,268.44052899894064
0.19961929984275428,410.44052899894064
0.2006124306877431,396.44052899894064
0.20160556153273193,326.44052899894064
0.20259869237772077,225.44052899894064
0.20359182322270958,163.44052899894064
0.20458495406769842,78.44052899894064
0.20557808491268723,11.440528998940636
0.20657121575767606,70.44052899894064
0.2075643466026649,244.44052899894064
0.2085574774476537,268.44052899894064
0.20955060829264255,95.44052899894064
0.21054373913763136,-130.55947100105936
0.2115368699826202,-360.55947100105936
0.21253000082760903,-463.55947100105936
0.21352313167259784,-490.55947100105936
0.21451626251758668,-512.5594710010594
0.21550939336257552,-474.55947100105936
0.21650252420756433,-237.55947100105936
0.21749565505255317,29.440528998940636
0.218488785897542,268.44052899894064
0.2194819167425308,408.44052899894064
0.22047504758751965,397.44052899894064
0.22146817843250846,326.44052899894064
0.2224613092774973,227.44052899894064
0.22345444012248614,162.44052899894064
0.22444757096747495,77.44052899894064
0.22544070181246378,10.440528998940636
0.2264338326574526,70.44052899894064
0.22742696350244143,246.44052899894064
0.22842009434743027,270.44052899894064
0.22941322519241908,96.44052899894064
0.23040635603740792,-130.55947100105936
0.23139948688239675,-356.55947100105936
0.23239261772738556,-463.55947100105936
0.2333857485723744,-490.55947100105936
0.23437887941736324,-512.5594710010594
0.23537201026235205,-473.55947100105936
0.2363651411073409,-236.55947100105936
0.2373582719523297,29.440528998940636
0.23835140279731853,267.44052899894064
0.23934453364230737,411.44052899894064
0.24033766448729618,398.44052899894064
0.24133079533228502,329.44052899894064
0.24232392617727383,224.44052899894064
0.24331705702226267,160.44052899894064
0.2443101878672515,78.44052899894064
0.24530331871224031,11.440528998940636
0.24629644955722915,67.44052899894064
0.247289580402218,244.44052899894064
0.2482827112472068,269.44052899894064
0.24927584209219564,100.44052899894064
0.2502689729371845,-128.55947100105936
0.2512621037821733,-355.55947100105936
0.2522552346271621,-461.55947100105936
0.25324836547215096,-491.55947100105936
0.25424149631713977,-512.5594710010594
0.2552346271621286,-473.55947100105936
0.25622775800711745,-238.55947100105936
0.25722088885210626,26.440528998940636
0.25821401969709507,267.44052899894064
0.25920715054208393,409.44052899894064
0.26020028138707274,394.44052899894064
0.26119341223206155,327.44052899894064
0.26218654307705036,224.44052899894064
0.2631796739220392,162.44052899894064
0.26417280476702804,77.44052899894064
0.26516593561201685,12.440528998940636
0.2661590664570057,69.44052899894064
0.2671521973019945,247.44052899894064
0.26814532814698333,269.44052899894064
0.2691384589919722,97.44052899894064
0.270131589836961,-128.55947100105936
0.2711247206819498,-355.55947100105936
0.2721178515269387,-458.55947100105936
0.2731109823719275,-489.55947100105936
0.2741041132169163,-512.5594710010594
0.27509724406190517,-475.55947100105936
0.276090374906894,-239.55947100105936
0.2770835057518828,26.440528998940636
0.27807663659687165,265.44052899894064
0.27906976744186046,408.44052899894064
0.28006289828684927,398.44052899894064
0.2810560291318381,330.44052899894064
0.28204915997682695,224.44052899894064
0.28304229082181576,167.44052899894064
0.28403542166680457,82.44052899894064
0.28502855251179343,11.440528998940636
0.28602168335678224,68.44052899894064
0.28701481420177105,246.44052899894064
0.2880079450467599,267.44052899894064
0.2890010758917487,97.44052899894064
0.28999420673673754,-132.55947100105936
0.2909873375817264,-357.55947100105936
0.2919804684267152,-460.55947100105936
0.292973599271704,-490.55947100105936
0.29396673011669283,-512.5594710010594
0.2949598609616817,-478.55947100105936
0.2959529918066705,-242.55947100105936
0.2969461226516593,27.440528998940636
0.2979392534966482,267.44052899894064
0.298932384341637,410.44052899894064
0.2999255151866258,396.44052899894064
0.30091864603161467,330.44052899894064
0.3019117768766035,226.44052899894064
0.3029049077215923,163.44052899894064
0.30389803856658115,78.44052899894064
0.30489116941156996,11.440528998940636
0.30588430025655877,65.44052899894064
0.30687743110154764,242.44052899894064
0.30787056194653645,266.44052899894064
0.30886369279152526,95.44052899894064
0.3098568236365141,-132.55947100105936
0.31084995448150293,-358.55947100105936
0.31184308532649174,-460.55947100105936
0.31283621617148055,-493.55947100105936
0.3138293470164694,-512.5594710010594
0.3148224778614582,-477.55947100105936
0.31581560870644704,-242.55947100105936
0.3168087395514359,27.440528998940636
0.3178018703964247,264.44052899894064
0.3187950012414135,411.44052899894064
0.3197881320864024,400.44052899894064
0.3207812629313912,335.44052899894064
0.32177439377638,229.44052899894064
0.3227675246213689,165.44052899894064
0.3237606554663577,80.44052899894064
0.3247537863113465,14.440528998940636
0.3257469171563353,66.44052899894064
0.32674004800132417,244.44052899894064
0.327733178846313,271.44052899894064
0.3287263096913018,97.44052899894064
0.32971944053629065,-131.55947100105936
0.33071257138127946,-356.55947100105936
0.3317057022262683,-463.55947100105936
0.33269883307125714,-491.55947100105936
0.33369196391624595,-512.5594710010594
0.33468509476123476,-477.55947100105936
0.3356782256062236,-241.55947100105936
0.33667135645121243,25.440528998940636
0.33766448729620124,263.44052899894064
0.3386576181411901,408.44052899894064
0.3396507489861789,400.44052899894064
0.34064387983116773,332.44052899894064
0.3416370106761566,231.44052899894064
0.3426301415211454,167.44052899894064
0.3436232723661342,82.44052899894064
0.344616403211123,17.440528998940636
0.3456095340561119,66.44052899894064
0.3466026649011007,242.44052899894064
0.3475957957460895,265.44052899894064
0.3485889265910784,91.44052899894064
0.3495820574360672,-137.55947100105936
0.350575188281056,-359.55947100105936
0.35156831912604486,-464.55947100105936
0.35256144997103367,-497.55947100105936
0.3535545808160225,-512.5594710010594
0.35454771166101134,-478.55947100105936
0.35554084250600015,-240.55947100105936
0.35653397335098896,27.440528998940636
0.3575271041959778,267.44052899894064
0.35852023504096664,408.44052899894064
0.35951336588595545,402.44052899894064
0.36050649673094426,334.44052899894064
0.3614996275759331,235.44052899894064
0.36249275842092193,172.44052899894064
0.36348588926591074,85.44052899894064
0.3644790201108996,15.440528998940636
0.3654721509558884,71.44052899894064
0.36646528180087723,242.44052899894064
0.3674584126458661,267.44052899894064
0.3684515434908549,93.44052899894064
0.3694446743358437,-135.55947100105936
0.3704378051808326,-365.55947100105936
0.3714309360258214,-466.55947100105936
0.3724240668708102,-496.55947100105936
0.37341719771579907,-512.5594710010594
0.3744103285607879,-478.55947100105936
0.3754034594057767,-240.55947100105936
0.3763965902507655,28.440528998940636
0.37738972109575436,267.44052899894064
0.37838285194074317,413.44052899894064
0.379375982785732,405.44052899894064
0.38036911363072085,336.44052899894064
0.38136224447570966,233.44052899894064
0.38235537532069847,174.44052899894064
0.38334850616568733,83.44052899894064
0.38434163701067614,19.440528998940636
0.38533476785566495,69.44052899894064
0.3863278987006538,241.44052899894064
0.3873210295456426,270.44052899894064
0.38831416039063144,95.44052899894064
0.38930729123562025,-136.55947100105936
0.3903004220806091,-365.55947100105936
0.3912935529255979,-469.55947100105936
0.39228668377058673,-498.55947100105936
0.3932798146155756,-512.5594710010594
0.3942729454605644,-481.55947100105936
0.3952660763055532,-244.55947100105936
0.3962592071505421,23.440528998940636
0.3972523379955309,262.44052899894064
0.3982454688405197,416.44052899894064
0.39923859968550857,407.44052899894064
0.4002317305304974,343.44052899894064
0.4012248613754862,237.44052899894064
0.40221799222047505,175.44052899894064
0.40321112306546386,90.44052899894064
0.40420425391045267,21.440528998940636
0.40519738475544154,69.44052899894064
0.40619051560043035,240.44052899894064
0.40718364644541916,265.44052899894064
0.40817677729040797,91.44052899894064
0.40916990813539683,-142.55947100105936
0.41016303898038564,-365.55947100105936
0.41115616982537445,-471.55947100105936
0.4121493006703633,-499.55947100105936
0.4131424315153521,-512.5594710010594
0.41413556236034094,-483.55947100105936
0.4151286932053298,-244.55947100105936
0.4161218240503186,23.440528998940636
0.4171149548953074,266.44052899894064
0.4181080857402963,415.44052899894064
0.4191012165852851,405.44052899894064
0.4200943474302739,339.44052899894064
0.4210874782752627,237.44052899894064
0.4220806091202516,175.44052899894064
0.4230737399652404,91.44052899894064
0.4240668708102292,17.440528998940636
0.42506000165521807,66.44052899894064
0.4260531325002069,240.44052899894064
0.4270462633451957,269.44052899894064
0.42803939419018455,89.44052899894064
0.42903252503517336,-141.55947100105936
0.43002565588016217,-366.55947100105936
0.43101878672515104,-473.55947100105936
0.43201191757013985,-499.55947100105936
0.43300504841512866,-512.5594710010594
0.4339981792601175,-480.55947100105936
0.43499131010510633,-244.55947100105936
0.43598444095009514,28.440528998940636
0.436977571795084,267.44052899894064
0.4379707026400728,415.44052899894064
0.4389638334850616,411.44052899894064
0.43995696433005044,344.44052899894064
0.4409500951750393,240.44052899894064
0.4419432260200281,175.44052899894064
0.4429363568650169,94.44052899894064
0.4439294877100058,23.440528998940636
0.4449226185549946,70.44052899894064
0.4459157493999834,241.44052899894064
0.4469088802449723,267.44052899894064
0.4479020110899611,92.44052899894064
0.4488951419349499,-139.55947100105936
0.44988827277993876,-366.55947100105936
0.45088140362492757,-471.55947100105936
0.4518745344699164,-501.55947100105936
0.4528676653149052,-512.5594710010594
0.45386079615989405,-486.55947100105936
0.45485392700488286,-244.55947100105936
0.4558470578498717,26.440528998940636
0.45684018869486054,263.44052899894064
0.45783331953984935,412.44052899894064
0.45882645038483816,408.44052899894064
0.459819581229827,343.44052899894064
0.46081271207481583,240.44052899894064
0.46180584291980464,177.44052899894064
0.4627989737647935,87.44052899894064
0.4637921046097823,24.440528998940636
0.46478523545477113,72.44052899894064
0.46577836629976,243.44052899894064
0.4667714971447488,268.44052899894064
0.4677646279897376,88.44052899894064
0.4687577588347265,-143.55947100105936
0.4697508896797153,-370.55947100105936
0.4707440205247041,-471.55947100105936
0.4717371513696929,-495.55947100105936
0.4727302822146818,-512.5594710010594
0.4737234130596706,-481.55947100105936
0.4747165439046594,-243.55947100105936
0.47570967474964826,29.440528998940636
0.47670280559463707,267.44052899894064
0.4776959364396259,414.44052899894064
0.47868906728461474,405.44052899894064
0.47968219812960355,342.44052899894064
0.48067532897459236,238.44052899894064
0.48166845981958123,175.44052899894064
0.48266159066457004,88.44052899894064
0.48365472150955885,20.440528998940636
0.48464785235454766,66.44052899894064
0.4856409831995365,242.44052899894064
0.48663411404452533,269.44052899894064
0.48762724488951414,90.44052899894064
0.488620375734503,-143.55947100105936
0.4896135065794918,-367.55947100105936
0.49060663742448063,-475.55947100105936
0.4915997682694695,-501.55947100105936
0.4925928991144583,-512.5594710010594
0.4935860299594471,-484.55947100105936
0.494579160804436,-246.55947100105936
0.4955722916494248,23.440528998940636
0.4965654224944136,265.44052899894064
0.49755855333940247,420.44052899894064
0.4985516841843913,410.44052899894064
0.4995448150293801,347.44052899894064
0.500537945874369,242.44052899894064
0.5015310767193577,179.44052899894064
0.5025242075643466,92.44052899894064
0.5035173384093354,23.440528998940636
0.5045104692543242,67.44052899894064
0.505503600099313,238.44052899894064
0.5064967309443019,267.44052899894064
0.5074898617892907,91.44052899894064
0.5084829926342795,-138.55947100105936
0.5094761234792684,-361.55947100105936
0.5104692543242572,-470.55947100105936
0.511462385169246,-499.55947100105936
0.5124555160142349,-512.5594710010594
0.5134486468592236,-487.55947100105936
0.5144417777042125,-251.55947100105936
0.5154349085492014,22.440528998940636
0.5164280393941901,264.44052899894064
0.517421170239179,426.44052899894064
0.5184143010841679,414.44052899894064
0.5194074319291566,343.44052899894064
0.5204005627741455,245.44052899894064
0.5213936936191343,178.44052899894064
0.5223868244641231,90.44052899894064
0.523379955309112,23.440528998940636
0.5243730861541007,70.44052899894064
0.5253662169990896,230.44052899894064
0.5263593478440785,267.44052899894064
0.5273524786890672,96.44052899894064
0.5283456095340561,-139.55947100105936
0.5293387403790449,-369.55947100105936
0.5303318712240337,-473.55947100105936
0.5313250020690226,-497.55947100105936
0.5323181329140114,-512.5594710010594
0.5333112637590002,-494.55947100105936
0.534304394603989,-249.55947100105936
0.5352975254489779,14.440528998940636
0.5362906562939667,255.44052899894064
0.5372837871389555,408.44052899894064
0.5382769179839444,403.44052899894064
0.5392700488289331,343.44052899894064
0.540263179673922,235.44052899894064
0.5412563105189109,176.44052899894064
0.5422494413638996,99.44052899894064
0.5432425722088885,19.440528998940636
0.5442357030538774,71.44052899894064
0.5452288338988661,257.44052899894064
0.546221964743855,281.44052899894064
0.5472150955888438,92.44052899894064
0.5482082264338326,-146.55947100105936
0.5492013572788215,-362.55947100105936
0.5501944881238103,-470.55947100105936
0.5511876189687991,-500.55947100105936
0.552180749813788,-512.5594710010594
0.5531738806587768,-508.55947100105936
0.5541670115037656,-264.55947100105936
0.5551601423487544,12.440528998940636
0.5561532731937433,260.44052899894064
0.5571464040387321,413.44052899894064
0.5581395348837209,403.44052899894064
0.5591326657287097,341.44052899894064
0.5601257965736985,237.44052899894064
0.5611189274186874,185.44052899894064
0.5621120582636762,117.44052899894064
0.563105189108665,45.440528998940636
0.5640983199536539,81.44052899894064
0.5650914507986426,230.44052899894064
0.5660845816436315,253.44052899894064
0.5670777124886204,91.44052899894064
0.5680708433336091,-125.55947100105936
0.569063974178598,-347.55947100105936
0.5700571050235869,-480.55947100105936
0.5710502358685756,-512.5594710010594
0.5720433667135645,-512.5594710010594
0.5730364975585533,-512.5594710010594
0.5740296284035421,-267.55947100105936
0.575022759248531,15.440528998940636
0.5760158900935198,287.44052899894064
0.5770090209385086,446.44052899894064
0.5780021517834975,422.44052899894064
0.5789952826284863,341.44052899894064
0.5799884134734751,232.44052899894064
0.5809815443184639,170.44052899894064
0.5819746751634528,85.44052899894064
0.5829678060084416,18.440528998940636
0.5839609368534304,67.44052899894064
0.5849540676984193,251.44052899894064
0.585947198543408,302.44052899894064
0.5869403293883969,127.44052899894064
0.5879334602333857,-113.55947100105936
0.5889265910783745,-355.55947100105936
0.5899197219233634,-483.55947100105936
0.5909128527683521,-512.5594710010594
0.591905983613341,-512.5594710010594
0.5928991144583299,-512.5594710010594
0.5938922453033186,-284.55947100105936
0.5948853761483075,-12.559471001059364
0.5958785069932964,232.44052899894064
0.5968716378382851,416.44052899894064
0.597864768683274,423.44052899894064
0.5988578995282628,357.44052899894064
0.5998510303732516,245.44052899894064
0.6008441612182405,179.44052899894064
0.6018372920632293,105.44052899894064
0.6028304229082181,43.440528998940636
0.603823553753207,98.44052899894064
0.6048166845981958,257.44052899894064
0.6058098154431846,294.44052899894064
0.6068029462881734,111.44052899894064
0.6077960771331623,-130.55947100105936
0.6087892079781511,-362.55947100105936
0.6097823388231399,-467.55947100105936
0.6107754696681288,-510.55947100105936
0.6117686005131175,-512.5594710010594
0.6127617313581064,-512.5594710010594
0.6137548622030953,-299.55947100105936
0.614747993048084,-21.559471001059364
0.6157411238930729,238.44052899894064
0.6167342547380618,410.44052899894064
0.6177273855830505,424.44052899894064
0.6187205164280394,374.44052899894064
0.6197136472730282,264.44052899894064
0.620706778118017,198.44052899894064
0.6216999089630059,106.44052899894064
0.6226930398079946,39.440528998940636
0.6236861706529835,80.44052899894064
0.6246793014979724,249.44052899894064
0.6256724323429611,291.44052899894064
0.62666556318795,110.44052899894064
0.6276586940329388,-126.55947100105936
0.6286518248779276,-363.55947100105936
0.6296449557229165,-482.55947100105936
0.6306380865679053,-494.55947100105936
0.6316312174128941,-512.5594710010594
0.6326243482578829,-512.5594710010594
0.6336174791028718,-294.55947100105936
0.6346106099478606,-26.559471001059364
0.6356037407928494,216.44052899894064
0.6365968716378383,386.44052899894064
0.637590002482827,395.44052899894064
0.6385831333278159,327.44052899894064
0.6395762641728048,219.44052899894064
0.6405693950177935,156.44052899894064
0.6415625258627824,43.440528998940636
0.6425556567077713,-7.559471001059364
0.64354878755276,61.440528998940636
0.6445419183977489,294.44052899894064
0.6455350492427377,368.44052899894064
0.6465281800877265,259.44052899894064
0.6475213109327154,85.44052899894064
0.6485144417777042,-237.55947100105936
0.649507572622693,-504.55947100105936
0.6505007034676819,-512.5594710010594
0.6514938343126706,-512.5594710010594
0.6524869651576595,-512.5594710010594
0.6534800960026483,-319.55947100105936
0.6544732268476371,14.440528998940636
0.655466357692626,293.44052899894064
0.6564594885376148,450.44052899894064
0.6574526193826036,415.44052899894064
0.6584457502275924,374.44052899894064
0.6594388810725813,244.44052899894064
0.6604320119175701,159.44052899894064
0.6614251427625589,108.44052899894064
0.6624182736075478,31.440528998940636
0.6634114044525365,63.440528998940636
0.6644045352975254,253.44052899894064
0.6653976661425143,342.44052899894064
0.666390796987503,146.44052899894064
0.6673839278324919,-141.55947100105936
0.6683770586774808,-410.55947100105936
0.6693701895224695,-512.5594710010594
0.6703633203674584,-512.5594710010594
0.6713564512124472,-512.5594710010594
0.672349582057436,-512.5594710010594
0.6733427129024249,-247.55947100105936
0.6743358437474137,-5.559471001059364
0.6753289745924025,249.44052899894064
0.6763221054373914,441.44052899894064
0.6773152362823802,438.44052899894064
0.678308367127369,257.44052899894064
0.6793014979723578,146.44052899894064
0.6802946288173467,233.44052899894064
0.6812877596623355,176.44052899894064
0.6822808905073243,128.44052899894064
0.6832740213523132,244.44052899894064
0.6842671521973019,366.44052899894064
0.6852602830422908,259.44052899894064
0.6862534138872796,37.440528998940636
0.6872465447322684,-179.55947100105936
0.6882396755772573,-384.55947100105936
0.689232806422246,-479.55947100105936
0.6902259372672349,-512.5594710010594
0.6912190681122238,-512.5594710010594
0.6922121989572125,-512.5594710010594
0.6932053298022014,-280.55947100105936
0.6941984606471903,-62.559471001059364
0.695191591492179,182.44052899894064
0.6961847223371679,402.44052899894064
0.6971778531821567,419.44052899894064
0.6981709840271455,344.44052899894064
0.6991641148721344,261.44052899894064
0.7001572457171232,234.44052899894064
0.701150376562112,146.44052899894064
0.7021435074071009,-1.5594710010593644
0.7031366382520897,-42.559471001059364
0.7041297690970785,148.44052899894064
0.7051228999420673,206.44052899894064
0.7061160307870562,163.44052899894064
0.707109161632045,85.44052899894064
0.7081022924770338,-253.55947100105936
0.7090954233220227,-512.5594710010594
0.7100885541670114,-386.55947100105936
0.7110816850120003,-381.55947100105936
0.7120748158569892,-494.55947100105936
0.7130679467019779,-342.55947100105936
0.7140610775469668,-22.559471001059364
0.7150542083919555,203.44052899894064
0.7160473392369444,326.44052899894064
0.7170404700819333,375.44052899894064
0.718033600926922,355.44052899894064
0.7190267317719109,274.44052899894064
0.7200198626168998,209.44052899894064
0.7210129934618885,65.44052899894064
0.7220061243068774,-28.559471001059364
0.7229992551518662,49.440528998940636
0.723992385996855,251.44052899894064
0.7249855168418439,321.44052899894064
0.7259786476868327,228.44052899894064
0.7269717785318215,-15.559471001059364
0.7279649093768104,-369.55947100105936
0.7289580402217992,-512.5594710010594
0.729951171066788,-512.5594710010594
0.7309443019117768,-512.5594710010594
0.7319374327567657,-512.5594710010594
0.7329305636017545,-315.55947100105936
0.7339236944467433,91.44052899894064
0.7349168252917322,271.44052899894064
0.7359099561367209,314.44052899894064
0.7369030869817098,271.44052899894064
0.7378962178266987,324.44052899894064
0.7388893486716874,343.44052899894064
0.7398824795166763,325.44052899894064
0.7408756103616652,198.44052899894064
0.7418687412066539,44.440528998940636
0.7428618720516428,48.440528998940636
0.7438550028966316,272.44052899894064
0.7448481337416204,311.44052899894064
0.7458412645866093,118.44052899894064
0.7468343954315981,-202.55947100105936
0.7478275262765869,-497.55947100105936
0.7488206571215758,-512.5594710010594
0.7498137879665645,-512.5594710010594
0.7508069188115534,-458.55947100105936
0.7518000496565422,-361.55947100105936
0.752793180501531,-157.55947100105936
0.7537863113465199,-0.5594710010593644
0.7547794421915087,182.44052899894064
0.7557725730364975,389.44052899894064
0.7567657038814863,386.44052899894064
0.7577588347264752,294.44052899894064
0.758751965571464,167.44052899894064
0.7597450964164528,204.44052899894064
0.7607382272614417,175.44052899894064
0.7617313581064304,8.440528998940636
0.7627244889514193,193.44052899894064
0.7637176197964082,391.44052899894064
0.7647107506413969,460.44052899894064
0.7657038814863858,223.44052899894064
0.7666970123313747,-185.55947100105936
0.7676901431763634,-512.5594710010594
0.7686832740213523,-512.5594710010594
0.7696764048663411,-512.5594710010594
0.7706695357113299,-443.55947100105936
0.7716626665563188,-381.55947100105936
0.7726557974013076,-222.55947100105936
0.7736489282462964,-12.559471001059364
0.7746420590912853,174.44052899894064
0.7756351899362741,372.44052899894064
0.7766283207812629,394.44052899894064
0.7776214516262517,364.44052899894064
0.7786145824712405,223.44052899894064
0.7796077133162294,169.44052899894064
0.7806008441612182,176.44052899894064
0.781593975006207,166.44052899894064
0.7825871058511958,107.44052899894064
0.7835802366961847,67.44052899894064
0.7845733675411735,181.44052899894064
0.7855664983861623,39.440528998940636
0.7865596292311512,37.440528998940636
0.78755276007614,-129.55947100105936
0.7885458909211288,-473.55947100105936
0.7895390217661177,-512.5594710010594
0.7905321526111064,-512.5594710010594
0.7915252834560953,-512.5594710010594
0.7925184143010842,-308.55947100105936
0.7935115451460729,-12.559471001059364
0.7945046759910618,224.44052899894064
0.7954978068360506,431.44052899894064
0.7964909376810394,422.44052899894064
0.7974840685260283,363.44052899894064
0.7984771993710171,341.44052899894064
0.7994703302160059,145.44052899894064
0.8004634610609948,-62.559471001059364
0.8014565919059836,-87.55947100105936
0.8024497227509724,78.44052899894064
0.8034428535959612,332.44052899894064
0.8044359844409501,400.44052899894064
0.8054291152859389,197.44052899894064
0.8064222461309277,-96.55947100105936
0.8074153769759166,-408.55947100105936
0.8084085078209053,-512.5594710010594
0.8094016386658942,-512.5594710010594
0.8103947695108831,-512.5594710010594
0.8113879003558718,-468.55947100105936
0.8123810312008607,-298.55947100105936
0.8133741620458494,-23.559471001059364
0.8143672928908383,228.44052899894064
0.8153604237358272,319.44052899894064
0.8163535545808159,363.44052899894064
0.8173466854258048,446.44052899894064
0.8183398162707937,331.44052899894064
0.8193329471157824,264.44052899894064
0.8203260779607713,244.44052899894064
0.8213192088057601,265.44052899894064
0.8223123396507489,298.44052899894064
0.8233054704957378,319.44052899894064
0.8242986013407266,323.44052899894064
0.8252917321857154,32.440528998940636
0.8262848630307043,-309.55947100105936
0.8272779938756931,-505.55947100105936
0.8282711247206819,-512.5594710010594
0.8292642555656707,-452.55947100105936
0.8302573864106596,-512.5594710010594
0.8312505172556484,-512.5594710010594
0.8322436481006372,-111.55947100105936
0.8332367789456261,108.44052899894064
0.8342299097906148,256.44052899894064
0.8352230406356037,275.44052899894064
0.8362161714805926,230.44052899894064
0.8372093023255813,253.44052899894064
0.8382024331705702,236.44052899894064
0.8391955640155591,251.44052899894064
0.8401886948605478,125.44052899894064
0.8411818257055367,-128.55947100105936
0.8421749565505254,-1.5594710010593644
0.8431680873955143,348.44052899894064
0.8441612182405032,426.44052899894064
0.8451543490854919,304.44052899894064
0.8461474799304808,51.440528998940636
0.8471406107754696,-322.55947100105936
0.8481337416204584,-371.55947100105936
0.8491268724654473,-481.55947100105936
0.8501200033104361,-512.5594710010594
0.8511131341554249,-512.5594710010594
0.8521062650004138,-370.55947100105936
0.8530993958454026,-160.55947100105936
0.8540925266903914,104.44052899894064
0.8550856575353802,371.44052899894064
0.8560787883803691,509.44052899894064
0.8570719192253579,509.44052899894064
0.8580650500703467,383.44052899894064
0.8590581809153356,29.440528998940636
0.8600513117603243,-50.559471001059364
0.8610444426053132,-93.55947100105936
0.8620375734503021,165.44052899894064
0.8630307042952908,432.44052899894064
0.8640238351402797,366.44052899894064
0.8650169659852686,195.44052899894064
0.8660100968302573,-21.559471001059364
0.8670032276752462,-268.55947100105936
0.867996358520235,-421.55947100105936
0.8689894893652238,-454.55947100105936
0.8699826202102127,-512.5594710010594
0.8709757510552015,-512.5594710010594
0.8719688819001903,-489.55947100105936
0.8729620127451792,-95.55947100105936
0.873955143590168,219.44052899894064
0.8749482744351568,364.44052899894064
0.8759414052801456,398.44052899894064
0.8769345361251344,345.44052899894064
0.8779276669701233,238.44052899894064
0.8789207978151121,189.44052899894064
0.8799139286601009,46.440528998940636
0.8809070595050897,-12.559471001059364
0.8819001903500786,-44.559471001059364
0.8828933211950674,122.44052899894064
0.8838864520400562,138.44052899894064
0.8848795828850451,162.44052899894064
0.8858727137300338,-110.55947100105936
0.8868658445750227,-164.55947100105936
0.8878589754200116,-199.55947100105936
0.8888521062650003,-315.55947100105936
0.8898452371099892,-512.5594710010594
0.8908383679549781,-512.5594710010594
0.8918314987999668,-337.55947100105936
0.8928246296449557,-90.55947100105936
0.8938177604899445,62.440528998940636
0.8948108913349333,281.44052899894064
0.8958040221799222,341.44052899894064
0.896797153024911,407.44052899894064
0.8977902838698998,374.44052899894064
0.8987834147148887,235.44052899894064
0.8997765455598775,191.44052899894064
0.9007696764048663,173.44052899894064
0.9017628072498551,193.44052899894064
0.902755938094844,301.44052899894064
0.9037490689398328,334.44052899894064
0.9047421997848216,178.44052899894064
0.9057353306298104,-116.55947100105936
0.9067284614747992,-469.55947100105936
0.9077215923197881,-512.5594710010594
0.9087147231647769,-512.5594710010594
0.9097078540097657,-492.55947100105936
0.9107009848547546,-402.55947100105936
0.9116941156997433,-319.55947100105936
0.9126872465447322,-255.55947100105936
0.9136803773897211,-48.559471001059364
0.9146735082347098,309.44052899894064
0.9156666390796987,509.44052899894064
0.9166597699246876,509.44052899894064
0.9176529007696763,442.44052899894064
0.9186460316146652,308.44052899894064
0.919639162459654,96.44052899894064
0.9206322933046428,-19.559471001059364
0.9216254241496317,-1.5594710010593644
0.9226185549946205,166.44052899894064
0.9236116858396093,196.44052899894064
0.9246048166845982,154.44052899894064
0.925597947529587,-50.559471001059364
0.9265910783745758,-352.55947100105936
0.9275842092195646,-451.55947100105936
0.9285773400645535,-512.5594710010594
0.9295704709095423,-512.5594710010594
0.9305636017545311,-512.5594710010594
0.93155673259952,-333.55947100105936
0.9325498634445087,-61.559471001059364
0.9335429942894976,183.44052899894064
0.9345361251344865,399.44052899894064
0.9355292559794752,465.44052899894064
0.9365223868244641,381.44052899894064
0.937515517669453,238.44052899894064
0.9385086485144417,250.44052899894064
0.9395017793594306,193.44052899894064
0.9404949102044193,204.44052899894064
0.9414880410494082,386.44052899894064
0.9424811718943971,466.44052899894064
0.9434743027393858,50.440528998940636
0.9444674335843747,-148.55947100105936
0.9454605644293635,-164.55947100105936
0.9464536952743523,-149.55947100105936
0.9474468261193412,-241.55947100105936
0.94843995696433,-298.55947100105936
0.9494330878093188,-512.5594710010594
0.9504262186543077,-512.5594710010594
0.9514193494992965,-399.55947100105936
0.9524124803442853,-141.55947100105936
0.9534056111892741,226.44052899894064
0.954398742034263,445.44052899894064
0.9553918728792518,298.44052899894064
0.9563850037242406,339.44052899894064
0.9573781345692295,285.44052899894064
0.9583712654142182,138.44052899894064
0.9593643962592071,52.440528998940636
0.960357527104196,88.44052899894064
0.9613506579491847,101.44052899894064
0.9623437887941736,318.44052899894064
0.9633369196391625,363.44052899894064
0.9643300504841512,191.44052899894064
0.9653231813291401,-75.55947100105936
0.9663163121741289,-365.55947100105936
0.9673094430191177,-511.55947100105936
0.9683025738641066,-512.5594710010594
0.9692957047090953,-512.5594710010594
0.9702888355540842,-512.5594710010594
0.971281966399073,-504.55947100105936
0.9722750972440618,-183.55947100105936
0.9732682280890507,140.44052899894064
0.9742613589340395,446.44052899894064
0.9752544897790283,473.44052899894064
0.9762476206240172,456.44052899894064
0.977240751469006,424.44052899894064
0.9782338823139948,265.44052899894064
0.9792270131589836,130.44052899894064
0.9802201440039725,-1.5594710010593644
0.9812132748489613,1.4405289989406356
0.9822064056939501,228.44052899894064
0.983199536538939,358.44052899894064
0.9841926673839277,201.44052899894064
0.9851857982289166,-56.559471001059364
0.9861789290739055,-385.55947100105936
0.9871720599188942,-512.5594710010594
0.9881651907638831,-512.5594710010594
0.989158321608872,-512.5594710010594
0.9901514524538607,-512.5594710010594
0.9911445832988496,-437.55947100105936
0.9921377141438384,-77.55947100105936
0.9931308449888272,292.44052899894064
0.9941239758338161,509.44052899894064
0.9951171066788049,453.44052899894064
0.9961102375237937,352.44052899894064
0.9971033683687825,381.44052899894064
0.9980964992137714,335.44052899894064
0.9990896300587602,226.44052899894064
1.000082760903749,92.44052899894064
1.001075891748738,103.44052899894064
1.0020690225937268,214.44052899894064
1.0030621534387154,205.44052899894064
1.0040552842837043,96.44052899894064
1.0050484151286931,-277.55947100105936
1.006041545973682,-509.55947100105936
1.0070346768186709,-438.55947100105936
1.0080278076636597,-496.55947100105936
1.0090209385086484,-512.5594710010594
1.0100140693536372,-512.5594710010594
1.011007200198626,-264.55947100105936
1.012000331043615,-67.55947100105936
1.0129934618886038,194.44052899894064
1.0139865927335927,370.44052899894064
1.0149797235785813,349.44052899894064
1.0159728544235702,326.44052899894064
1.016965985268559,420.44052899894064
1.017959116113548,262.44052899894064
1.0189522469585368,248.44052899894064
1.0199453778035255,106.44052899894064
1.0209385086485143,121.44052899894064
1.0219316394935032,317.44052899894064
1.022924770338492,353.44052899894064
1.023917901183481,138.44052899894064
1.0249110320284698,-131.55947100105936
1.0259041628734584,-420.55947100105936
1.0268972937184473,-512.5594710010594
1.0278904245634362,-512.5594710010594
1.028883555408425,-512.5594710010594
1.0298766862534139,-512.5594710010594
1.0308698170984028,-375.55947100105936
1.0318629479433914,-198.55947100105936
1.0328560787883803,79.44052899894064
1.0338492096333691,420.44052899894064
1.034842340478358,509.44052899894064
1.0358354713233469,509.44052899894064
1.0368286021683357,509.44052899894064
1.0378217330133244,365.44052899894064
1.0388148638583132,143.44052899894064
1.039807994703302,34.440528998940636
1.040801125548291,69.44052899894064
1.0417942563932798,255.44052899894064
1.0427873872382687,377.44052899894064
1.0437805180832573,200.44052899894064
1.0447736489282462,-59.559471001059364
1.045766779773235,-375.55947100105936
1.046759910618224,-512.5594710010594
1.0477530414632128,-512.5594710010594
1.0487461723082014,-512.5594710010594
1.0497393031531903,-512.5594710010594
1.0507324339981792,-451.55947100105936
1.051725564843168,-118.55947100105936
1.052718695688157,282.44052899894064
1.0537118265331458,509.44052899894064
1.0547049573781344,425.44052899894064
1.0556980882231233,383.44052899894064
1.0566912190681121,261.44052899894064
1.057684349913101,275.44052899894064
1.0586774807580899,175.44052899894064
1.0596706116030787,62.440528998940636
1.0606637424480674,53.440528998940636
1.0616568732930562,225.44052899894064
1.0626500041380451,363.44052899894064
1.063643134983034,192.44052899894064
1.0646362658280228,-104.55947100105936
1.0656293966730117,-389.55947100105936
1.0666225275180004,-512.5594710010594
1.0676156583629892,-512.5594710010594
1.068608789207978,-512.5594710010594
1.069601920052967,-512.5594710010594
1.0705950508979558,-441.55947100105936
1.0715881817429447,-79.55947100105936
1.0725813125879333,332.44052899894064
1.0735744434329222,500.44052899894064
1.074567574277911,507.44052899894064
1.0755607051229,410.44052899894064
1.0765538359678888,243.44052899894064
1.0775469668128776,234.44052899894064
1.0785400976578663,163.44052899894064
1.0795332285028552,59.440528998940636
1.080526359347844,58.440528998940636
1.0815194901928329,320.44052899894064
1.0825126210378218,466.44052899894064
1.0835057518828104,207.44052899894064
1.0844988827277993,-115.55947100105936
1.0854920135727881,-448.55947100105936
1.086485144417777,-512.5594710010594
1.0874782752627659,-512.5594710010594
1.0884714061077547,-512.5594710010594
1.0894645369527434,-512.5594710010594
1.0904576677977322,-388.55947100105936
1.091450798642721,-47.559471001059364
1.09244392948771,239.44052899894064
1.0934370603326988,452.44052899894064
1.0944301911776877,477.44052899894064
1.0954233220226763,426.44052899894064
1.0964164528676652,339.44052899894064
1.097409583712654,294.44052899894064
1.098402714557643,181.44052899894064
1.0993958454026318,83.44052899894064
1.1003889762476207,-28.559471001059364
1.1013821070926093,267.44052899894064
1.1023752379375982,432.44052899894064
1.103368368782587,377.44052899894064
1.104361499627576,50.440528998940636
1.1053546304725648,-432.55947100105936
1.1063477613175536,-512.5594710010594
1.1073408921625423,-512.5594710010594
1.1083340230075311,-512.5594710010594
1.10932715385252,-512.5594710010594
1.1103202846975089,-418.55947100105936
1.1113134155424977,-107.55947100105936
1.1123065463874866,163.44052899894064
1.1132996772324752,390.44052899894064
1.1142928080774641,453.44052899894064
1.115285938922453,481.44052899894064
1.1162790697674418,426.44052899894064
1.1172722006124307,381.44052899894064
1.1182653314574194,178.44052899894064
1.1192584623024082,67.44052899894064
1.120251593147397,70.44052899894064
1.121244723992386,334.44052899894064
1.1222378548373748,331.44052899894064
1.1232309856823637,119.44052899894064
1.1242241165273523,-185.55947100105936
1.1252172473723412,-467.55947100105936
1.12621037821733,-512.5594710010594
1.127203509062319,-512.5594710010594
1.1281966399073078,-512.5594710010594
1.1291897707522967,-512.5594710010594
1.1301829015972853,-432.55947100105936
1.1311760324422742,-101.55947100105936
1.132169163287263,206.44052899894064
1.133162294132252,492.44052899894064
1.1341554249772408,508.44052899894064
1.1351485558222296,455.44052899894064
1.1361416866672183,317.44052899894064
1.1371348175122071,263.44052899894064
1.138127948357196,163.44052899894064
1.1391210792021849,128.44052899894064
1.1401142100471737,122.44052899894064
1.1411073408921626,277.44052899894064
1.1421004717371512,405.44052899894064
1.14309360258214,185.44052899894064
1.144086733427129,-136.55947100105936
1.1450798642721178,-442.55947100105936
1.1460729951171067,-512.5594710010594
1.1470661259620953,-512.5594710010594
1.1480592568070842,-512.5594710010594
1.149052387652073,-512.5594710010594
1.150045518497062,-436.55947100105936
1.1510386493420508,-40.559471001059364
1.1520317801870397,303.44052899894064
1.1530249110320283,506.44052899894064
1.1540180418770172,448.44052899894064
1.155011172722006,411.44052899894064
1.156004303566995,361.44052899894064
1.1569974344119838,341.44052899894064
1.1579905652569726,193.44052899894064
1.1589836961019613,31.440528998940636
1.1599768269469501,83.44052899894064
1.160969957791939,322.44052899894064
1.1619630886369279,427.44052899894064
1.1629562194819167,216.44052899894064
1.1639493503269056,-117.55947100105936
1.1649424811718943,-425.55947100105936
1.1659356120168831,-512.5594710010594
1.166928742861872,-512.5594710010594
1.1679218737068608,-512.5594710010594
1.1689150045518497,-512.5594710010594
1.1699081353968386,-404.55947100105936
1.1709012662418272,-66.55947100105936
1.171894397086816,246.44052899894064
1.172887527931805,486.44052899894064
1.1738806587767938,509.44052899894064
1.1748737896217827,458.44052899894064
1.1758669204667713,326.44052899894064
1.1768600513117602,262.44052899894064
1.177853182156749,158.44052899894064
1.178846313001738,58.440528998940636
1.1798394438467268,98.44052899894064
1.1808325746917157,323.44052899894064
1.1818257055367043,411.44052899894064
1.1828188363816932,199.44052899894064
1.183811967226682,-93.55947100105936
1.184805098071671,-417.55947100105936
1.1857982289166598,-512.5594710010594
1.1867913597616486,-512.5594710010594
1.1877844906066373,-512.5594710010594
1.1887776214516261,-512.5594710010594
1.189770752296615,-258.55947100105936
1.1907638831416039,46.440528998940636
1.1917570139865927,258.44052899894064
1.1927501448315816,507.44052899894064
1.1937432756765702,509.44052899894064
1.194736406521559,439.44052899894064
1.195729537366548,343.44052899894064
1.1967226682115368,309.44052899894064
1.1977157990565257,151.44052899894064
1.1987089299015146,53.440528998940636
1.1997020607465032,117.44052899894064
1.200695191591492,311.44052899894064
1.201688322436481,395.44052899894064
1.2026814532814698,155.44052899894064
1.2036745841264587,-138.55947100105936
1.2046677149714475,-469.55947100105936
1.2056608458164362,-512.5594710010594
1.206653976661425,-512.5594710010594
1.207647107506414,-512.5594710010594
1.2086402383514028,-512.5594710010594
1.2096333691963916,-409.55947100105936
1.2106265000413803,-74.55947100105936
1.2116196308863691,224.44052899894064
1.212612761731358,495.44052899894064
1.2136058925763469,509.44052899894064
1.2145990234213357,458.44052899894064
1.2155921542663246,341.44052899894064
1.2165852851113133,259.44052899894064
1.2175784159563021,161.44052899894064
1.218571546801291,73.44052899894064
1.2195646776462798,104.44052899894064
1.2205578084912687,334.44052899894064
1.2215509393362576,410.44052899894064
1.2225440701812462,192.44052899894064
1.223537201026235,-109.55947100105936
1.224530331871224,-430.55947100105936
1.2255234627162128,-512.5594710010594
1.2265165935612017,-512.5594710010594
1.2275097244061905,-512.5594710010594
1.2285028552511792,-512.5594710010594
1.229495986096168,-416.55947100105936
1.230489116941157,-95.55947100105936
1.2314822477861458,204.44052899894064
1.2324753786311347,471.44052899894064
1.2334685094761235,509.44052899894064
1.2344616403211122,501.44052899894064
1.235454771166101,361.44052899894064
1.23644790201109,282.44052899894064
1.2374410328560788,171.44052899894064
1.2384341637010676,85.44052899894064
1.2394272945460565,125.44052899894064
1.2404204253910451,311.44052899894064
1.241413556236034,369.44052899894064
1.2424066870810229,167.44052899894064
1.2433998179260117,-114.55947100105936
1.2443929487710006,-441.55947100105936
1.2453860796159892,-512.5594710010594
1.246379210460978,-512.5594710010594
1.247372341305967,-512.5594710010594
1.2483654721509558,-512.5594710010594
1.2493586029959447,-422.55947100105936
1.2503517338409336,-85.55947100105936
1.2513448646859222,216.44052899894064
1.252337995530911,496.44052899894064
1.2533311263759,509.44052899894064
1.2543242572208888,478.44052899894064
1.2553173880658777,359.44052899894064
1.2563105189108665,290.44052899894064
1.2573036497558552,184.44052899894064
1.258296780600844,83.44052899894064
1.259289911445833,114.44052899894064
1.2602830422908218,322.44052899894064
1.2612761731358106,391.44052899894064
1.2622693039807995,173.44052899894064
1.2632624348257881,-136.55947100105936
1.264255565670777,-447.55947100105936
1.2652486965157659,-512.5594710010594
1.2662418273607547,-512.5594710010594
1.2672349582057436,-512.5594710010594
1.2682280890507325,-512.5594710010594
1.2692212198957211,-432.55947100105936
1.27021435074071,-89.55947100105936
1.2712074815856989,211.44052899894064
1.2722006124306877,479.44052899894064
1.2731937432756766,509.44052899894064
1.2741868741206652,509.44052899894064
1.275180004965654,383.44052899894064
1.276173135810643,283.44052899894064
1.2771662666556318,167.44052899894064
1.2781593975006207,93.44052899894064
1.2791525283456096,127.44052899894064
1.2801456591905982,338.44052899894064
1.281138790035587,404.44052899894064
1.282131920880576,193.44052899894064
1.2831250517255648,-101.55947100105936
1.2841181825705537,-476.55947100105936
1.2851113134155425,-512.5594710010594
1.2861044442605312,-512.5594710010594
1.28709757510552,-512.5594710010594
1.288090705950509,-512.5594710010594
1.2890838367954978,-375.55947100105936
1.2900769676404866,-59.559471001059364
1.2910700984854755,230.44052899894064
1.2920632293304641,501.44052899894064
1.293056360175453,509.44052899894064
1.2940494910204419,481.44052899894064
1.2950426218654307,353.44052899894064
1.2960357527104196,278.44052899894064
1.2970288835554085,171.44052899894064
1.298022014400397,66.44052899894064
1.299015145245386,90.44052899894064
1.3000082760903748,292.44052899894064
1.3010014069353637,360.44052899894064
1.3019945377803526,124.44052899894064
1.3029876686253412,-197.55947100105936
1.30398079947033,-502.55947100105936
1.304973930315319,-512.5594710010594
1.3059670611603078,-512.5594710010594
1.3069601920052967,-512.5594710010594
1.3079533228502855,-512.5594710010594
1.3089464536952742,-432.55947100105936
1.309939584540263,-81.55947100105936
1.310932715385252,223.44052899894064
1.3119258462302408,492.44052899894064
1.3129189770752296,509.44052899894064
1.3139121079202185,487.44052899894064
1.3149052387652072,362.44052899894064
1.315898369610196,292.44052899894064
1.3168915004551849,193.44052899894064
1.3178846313001737,101.44052899894064
1.3188777621451626,126.44052899894064
1.3198708929901515,326.44052899894064
1.3208640238351401,407.44052899894064
1.321857154680129,181.44052899894064
1.3228502855251179,-123.55947100105936
1.3238434163701067,-438.55947100105936
1.3248365472150956,-512.5594710010594
1.3258296780600844,-512.5594710010594
1.326822808905073,-512.5594710010594
1.327815939750062,-512.5594710010594
1.3288090705950508,-415.55947100105936
1.3298022014400397,-68.55947100105936
1.3307953322850286,236.44052899894064
1.3317884631300174,502.44052899894064
1.332781593975006,509.44052899894064
1.333774724819995,491.44052899894064
1.3347678556649838,355.44052899894064
1.3357609865099727,271.44052899894064
1.3367541173549615,169.44052899894064
1.3377472481999502,70.44052899894064
1.338740379044939,93.44052899894064
1.339733509889928,276.44052899894064
1.3407266407349168,357.44052899894064
1.3417197715799056,139.44052899894064
1.3427129024248945,-167.55947100105936
1.3437060332698831,-469.55947100105936
1.344699164114872,-512.5594710010594
1.3456922949598609,-512.5594710010594
1.3466854258048497,-512.5594710010594
1.3476785566498386,-512.5594710010594
1.3486716874948275,-417.55947100105936
1.349664818339816,-80.55947100105936
1.350657949184805,226.44052899894064
1.3516510800297938,496.44052899894064
1.3526442108747827,509.44052899894064
1.3536373417197716,466.44052899894064
1.3546304725647604,323.44052899894064
1.355623603409749,225.44052899894064
1.356616734254738,118.44052899894064
1.3576098650997268,28.440528998940636
1.3586029959447157,48.440528998940636
1.3595961267897045,246.44052899894064
1.3605892576346934,331.44052899894064
1.361582388479682,130.44052899894064
1.362575519324671,-159.55947100105936
1.3635686501696598,-458.55947100105936
1.3645617810146486,-512.5594710010594
1.3655549118596375,-512.5594710010594
1.3665480427046264,-512.5594710010594
1.367541173549615,-512.5594710010594
1.3685343043946039,-433.55947100105936
1.3695274352395927,-82.55947100105936
1.3705205660845816,224.44052899894064
1.3715136969295705,486.44052899894064
1.3725068277745591,509.44052899894064
1.373499958619548,466.44052899894064
1.3744930894645369,350.44052899894064
1.3754862203095257,280.44052899894064
1.3764793511545146,178.44052899894064
1.3774724819995035,78.44052899894064
1.378465612844492,-9.559471001059364
1.379458743689481,134.44052899894064
1.3804518745344698,216.44052899894064
1.3814450053794587,54.440528998940636
1.3824381362244476,-210.55947100105936
1.3834312670694364,-477.55947100105936
1.384424397914425,-512.5594710010594
1.385417528759414,-512.5594710010594
1.3864106596044028,-512.5594710010594
1.3874037904493917,-512.5594710010594
1.3883969212943805,-379.55947100105936
1.3893900521393694,-42.559471001059364
1.390383182984358,245.44052899894064
1.391376313829347,496.44052899894064
1.3923694446743358,509.44052899894064
1.3933625755193246,490.44052899894064
1.3943557063643135,342.44052899894064
1.3953488372093024,264.44052899894064
1.396341968054291,125.44052899894064
1.3973350988992799,1.4405289989406356
1.3983282297442687,-10.559471001059364
1.3993213605892576,158.44052899894064
1.4003144914342465,252.44052899894064
1.401307622279235,86.44052899894064
1.402300753124224,-165.55947100105936
1.4032938839692128,-427.55947100105936
1.4042870148142017,-512.5594710010594
1.4052801456591906,-512.5594710010594
1.4062732765041794,-512.5594710010594
1.407266407349168,-512.5594710010594
1.408259538194157,-332.55947100105936
1.4092526690391458,-13.559471001059364
1.4102457998841347,226.44052899894064
1.4112389307291235,442.44052899894064
1.4122320615741124,501.44052899894064
1.413225192419101,476.44052899894064
1.41421832326409,381.44052899894064
1.4152114541090788,287.44052899894064
1.4162045849540676,137.44052899894064
1.4171977157990565,43.440528998940636
1.4181908466440454,84.44052899894064
1.419183977489034,294.44052899894064
1.4201771083340229,389.44052899894064
1.4211702391790118,214.44052899894064
1.4221633700240006,-57.559471001059364
1.4231565008689895,-342.55947100105936
1.4241496317139783,-506.55947100105936
1.425142762558967,-512.5594710010594
1.4261358934039559,-512.5594710010594
1.4271290242489447,-512.5594710010594
1.4281221550939336,-338.55947100105936
1.4291152859389225,-39.559471001059364
1.430108416783911,230.44052899894064
1.4311015476289,477.44052899894064
1.4320946784738888,509.44052899894064
1.4330878093188777,472.44052899894064
1.4340809401638666,370.44052899894064
1.4350740710088554,311.44052899894064
1.436067201853844,219.44052899894064
1.437060332698833,132.44052899894064
1.4380534635438218,152.44052899894064
1.4390465943888107,321.44052899894064
1.4400397252337995,387.44052899894064
1.4410328560787884,191.44052899894064
1.442025986923777,-76.55947100105936
1.443019117768766,-353.55947100105936
1.4440122486137548,-505.55947100105936
1.4450053794587436,-512.5594710010594
1.4459985103037325,-512.5594710010594
1.4469916411487214,-512.5594710010594
1.44798477199371,-323.55947100105936
1.4489779028386989,-25.559471001059364
1.4499710336836877,235.44052899894064
1.4509641645286766,467.44052899894064
1.4519572953736655,500.44052899894064
1.4529504262186543,438.44052899894064
1.453943557063643,324.44052899894064
1.4549366879086318,257.44052899894064
1.4559298187536207,161.44052899894064
1.4569229495986096,79.44052899894064
1.4579160804435984,102.44052899894064
1.4589092112885873,283.44052899894064
1.459902342133576,361.44052899894064
1.4608954729785648,176.44052899894064
1.4618886038235537,-80.55947100105936
1.4628817346685425,-347.55947100105936
1.4638748655135314,-502.55947100105936
1.46486799635852,-512.5594710010594
1.465861127203509,-512.5594710010594
1.4668542580484978,-512.5594710010594
1.4678473888934866,-348.55947100105936
1.4688405197384755,-48.559471001059364
1.4698336505834644,209.44052899894064
1.470826781428453,442.44052899894064
1.4718199122734419,475.44052899894064
1.4728130431184308,420.44052899894064
1.4738061739634196,312.44052899894064
1.4747993048084085,253.44052899894064
1.4757924356533973,164.44052899894064
1.476785566498386,74.44052899894064
1.4777786973433749,96.44052899894064
1.4787718281883637,251.44052899894064
1.4797649590333526,306.44052899894064
1.4807580898783415,119.44052899894064
1.4817512207233303,-123.55947100105936
1.482744351568319,-375.55947100105936
1.4837374824133078,-512.5594710010594
1.4847306132582967,-512.5594710010594
1.4857237441032856,-512.5594710010594
1.4867168749482744,-512.5594710010594
1.4877100057932633,-341.55947100105936
1.488703136638252,-47.559471001059364
1.4896962674832408,210.44052899894064
1.4906893983282297,436.44052899894064
1.4916825291732185,468.44052899894064
1.4926756600182074,412.44052899894064
1.4936687908631963,306.44052899894064
1.494661921708185,245.44052899894064
1.4956550525531738,151.44052899894064
1.4966481833981626,66.44052899894064
1.4976413142431515,92.44052899894064
1.4986344450881404,271.44052899894064
1.499627575933129,346.44052899894064
1.5006207067781179,168.44052899894064
1.5016138376231067,-80.55947100105936
1.5026069684680956,-340.55947100105936
1.5036000993130845,-497.55947100105936
1.5045932301580733,-512.5594710010594
1.505586361003062,-512.5594710010594
1.5065794918480508,-512.5594710010594
1.5075726226930397,-388.55947100105936
1.5085657535380286,-95.55947100105936
1.5095588843830174,155.44052899894064
1.5105520152280063,388.44052899894064
1.511545146072995,429.44052899894064
1.5125382769179838,384.44052899894064
1.5135314077629727,285.44052899894064
1.5145245386079615,224.44052899894064
1.5155176694529504,132.44052899894064
1.5165108002979393,53.440528998940636
1.517503931142928,91.44052899894064
1.5184970619879168,284.44052899894064
1.5194901928329057,364.44052899894064
1.5204833236778945,180.44052899894064
1.5214764545228834,-68.55947100105936
1.5224695853678722,-327.55947100105936
1.523462716212861,-479.55947100105936
1.5244558470578498,-512.5594710010594
1.5254489779028386,-512.5594710010594
1.5264421087478275,-512.5594710010594
1.5274352395928164,-330.55947100105936
1.528428370437805,-47.559471001059364
1.5294215012827939,195.44052899894064
1.5304146321277827,413.44052899894064
1.5314077629727716,439.44052899894064
1.5324008938177605,378.44052899894064
1.5333940246627493,270.44052899894064
1.534387155507738,213.44052899894064
1.5353802863527268,122.44052899894064
1.5363734171977157,40.440528998940636
1.5373665480427046,81.44052899894064
1.5383596788876934,272.44052899894064
1.5393528097326823,351.44052899894064
1.540345940577671,183.44052899894064
1.5413390714226598,-60.559471001059364
1.5423322022676487,-311.55947100105936
1.5433253331126375,-467.55947100105936
1.5443184639576264,-512.5594710010594
1.5453115948026153,-512.5594710010594
1.546304725647604,-512.5594710010594
1.5472978564925928,-335.55947100105936
1.5482909873375816,-55.559471001059364
1.5492841181825705,187.44052899894064
1.5502772490275594,398.44052899894064
1.5512703798725482,423.44052899894064
1.5522635107175369,367.44052899894064
1.5532566415625257,259.44052899894064
1.5542497724075146,203.44052899894064
1.5552429032525035,117.44052899894064
1.5562360340974923,38.440528998940636
1.557229164942481,74.44052899894064
1.5582222957874698,268.44052899894064
1.5592154266324587,351.44052899894064
1.5602085574774476,185.44052899894064
1.5612016883224364,-57.559471001059364
1.5621948191674253,-312.55947100105936
1.563187950012414,-471.55947100105936
1.5641810808574028,-512.5594710010594
1.5651742117023917,-512.5594710010594
1.5661673425473805,-512.5594710010594
1.5671604733923694,-345.55947100105936
1.5681536042373583,-66.55947100105936
1.569146735082347,175.44052899894064
1.5701398659273358,394.44052899894064
1.5711329967723247,419.44052899894064
1.5721261276173135,364.44052899894064
1.5731192584623024,258.44052899894064
1.5741123893072912,203.44052899894064
1.57510552015228,115.44052899894064
1.5760986509972688,32.440528998940636
1.5770917818422576,67.44052899894064
1.5780849126872465,264.44052899894064
1.5790780435322354,350.44052899894064
1.5800711743772242,178.44052899894064
1.5810643052222129,-75.55947100105936
1.5820574360672017,-338.55947100105936
1.5830505669121906,-499.55947100105936
1.5840436977571795,-512.5594710010594
1.5850368286021683,-512.5594710010594
1.5860299594471572,-512.5594710010594
1.5870230902921458,-352.55947100105936
1.5880162211371347,-58.559471001059364
1.5890093519821236,194.44052899894064
1.5900024828271124,416.44052899894064
1.5909956136721013,445.44052899894064
1.59198874451709,387.44052899894064
1.5929818753620788,283.44052899894064
1.5939750062070677,222.44052899894064
1.5949681370520565,127.44052899894064
1.5959612678970454,41.440528998940636
1.5969543987420343,74.44052899894064
1.597947529587023,260.44052899894064
1.5989406604320118,347.44052899894064
1.5999337912770006,173.44052899894064
1.6009269221219895,-78.55947100105936
1.6019200529669784,-343.55947100105936
1.6029131838119672,-495.55947100105936
1.6039063146569559,-512.5594710010594
1.6048994455019447,-512.5594710010594
1.6058925763469336,-512.5594710010594
1.6068857071919225,-347.55947100105936
1.6078788380369113,-57.559471001059364
1.6088719688819002,198.44052899894064
1.6098650997268888,416.44052899894064
1.6108582305718777,441.44052899894064
1.6118513614168666,390.44052899894064
1.6128444922618554,285.44052899894064
1.6138376231068443,222.44052899894064
1.6148307539518332,129.44052899894064
1.6158238847968218,39.440528998940636
1.6168170156418107,67.44052899894064
1.6178101464867995,255.44052899894064
1.6188032773317884,332.44052899894064
1.6197964081767773,158.44052899894064
1.6207895390217661,-85.55947100105936
1.6217826698667548,-342.55947100105936
1.6227758007117437,-499.55947100105936
1.6237689315567325,-512.5594710010594
1.6247620624017214,-512.5594710010594
1.6257551932467103,-512.5594710010594
1.626748324091699,-342.55947100105936
1.6277414549366878,-46.559471001059364
1.6287345857816766,209.44052899894064
1.6297277166266655,425.44052899894064
1.6307208474716544,442.44052899894064
1.6317139783166432,387.44052899894064
1.6327071091616319,283.44052899894064
1.6337002400066207,221.44052899894064
1.6346933708516096,127.44052899894064
1.6356865016965985,43.440528998940636
1.6366796325415873,72.44052899894064
1.6376727633865762,256.44052899894064
1.6386658942315648,335.44052899894064
1.6396590250765537,157.44052899894064
1.6406521559215426,-88.55947100105936
1.6416452867665314,-346.55947100105936
1.6426384176115203,-499.55947100105936
1.6436315484565092,-512.5594710010594
1.6446246793014978,-512.5594710010594
1.6456178101464867,-512.5594710010594
1.6466109409914755,-344.55947100105936
1.6476040718364644,-47.559471001059364
1.6485972026814533,212.44052899894064
1.6495903335264421,423.44052899894064
1.6505834643714308,451.44052899894064
1.6515765952164196,390.44052899894064
1.6525697260614085,282.44052899894064
1.6535628569063974,216.44052899894064
1.6545559877513862,128.44052899894064
1.6555491185963749,43.440528998940636
1.6565422494413637,69.44052899894064
1.6575353802863526,254.44052899894064
1.6585285111313415,335.44052899894064
1.6595216419763303,156.44052899894064
1.6605147728213192,-97.55947100105936
1.6615079036663079,-357.55947100105936
1.6625010345112967,-509.55947100105936
1.6634941653562856,-512.5594710010594
1.6644872962012744,-512.5594710010594
1.6654804270462633,-512.5594710010594
1.6664735578912522,-339.55947100105936
1.6674666887362408,-40.559471001059364
1.6684598195812297,208.44052899894064
1.6694529504262186,431.44052899894064
1.6704460812712074,454.44052899894064
1.6714392121161963,394.44052899894064
1.6724323429611851,282.44052899894064
1.6734254738061738,221.44052899894064
1.6744186046511627,130.44052899894064
1.6754117354961515,45.440528998940636
1.6764048663411404,70.44052899894064
1.6773979971861293,254.44052899894064
1.6783911280311181,326.44052899894064
1.6793842588761068,147.44052899894064
1.6803773897210956,-105.55947100105936
1.6813705205660845,-359.55947100105936
1.6823636514110734,-512.5594710010594
1.6833567822560622,-512.5594710010594
1.6843499131010509,-512.5594710010594
1.6853430439460397,-512.5594710010594
1.6863361747910286,-340.55947100105936
1.6873293056360175,-34.559471001059364
1.6883224364810063,217.44052899894064
1.6893155673259952,437.44052899894064
1.6903086981709838,460.44052899894064
1.6913018290159727,399.44052899894064
1.6922949598609616,291.44052899894064
1.6932880907059504,228.44052899894064
1.6942812215509393,139.44052899894064
1.6952743523959282,52.440528998940636
1.6962674832409168,72.44052899894064
1.6972606140859057,248.44052899894064
1.6982537449308945,325.44052899894064
1.6992468757758834,145.44052899894064
1.7002400066208723,-108.55947100105936
1.7012331374658611,-364.55947100105936
1.7022262683108498,-512.5594710010594
1.7032193991558386,-512.5594710010594
1.7042125300008275,-512.5594710010594
1.7052056608458164,-512.5594710010594
1.7061987916908052,-341.55947100105936
1.707191922535794,-40.559471001059364
1.7081850533807827,215.44052899894064
1.7091781842257716,437.44052899894064
1.7101713150707605,461.44052899894064
1.7111644459157493,400.44052899894064
1.7121575767607382,294.44052899894064
1.713150707605727,230.44052899894064
1.7141438384507157,139.44052899894064
1.7151369692957046,52.440528998940636
1.7161301001406934,69.44052899894064
1.7171232309856823,251.44052899894064
1.7181163618306712,324.44052899894064
1.7191094926756598,139.44052899894064
1.7201026235206487,-110.55947100105936
1.7210957543656376,-372.55947100105936
1.7220888852106264,-512.5594710010594
1.7230820160556153,-512.5594710010594
1.7240751469006041,-512.5594710010594
1.7250682777455928,-512.5594710010594
1.7260614085905817,-349.55947100105936
1.7270545394355705,-40.559471001059364
1.7280476702805594,221.44052899894064
1.7290408011255483,441.44052899894064
1.7300339319705371,467.44052899894064
1.7310270628155258,408.44052899894064
1.7320201936605146,297.44052899894064
1.7330133245055035,235.44052899894064
1.7340064553504924,140.44052899894064
1.7349995861954812,55.440528998940636
1.73599271704047,71.44052899894064
1.7369858478854587,248.44052899894064
1.7379789787304476,326.44052899894064
1.7389721095754365,155.44052899894064
1.7399652404204253,-89.55947100105936
1.7409583712654142,-348.55947100105936
1.741951502110403,-512.5594710010594
1.7429446329553917,-512.5594710010594
1.7439377638003806,-512.5594710010594
1.7449308946453694,-512.5594710010594
1.7459240254903583,-343.55947100105936
1.7469171563353472,-48.559471001059364
1.747910287180336,200.44052899894064
1.7489034180253247,423.44052899894064
1.7498965488703135,457.44052899894064
1.7508896797153024,402.44052899894064
1.7518828105602913,291.44052899894064
1.7528759414052801,235.44052899894064
1.7538690722502688,141.44052899894064
1.7548622030952576,58.440528998940636
1.7558553339402465,77.44052899894064
1.7568484647852354,248.44052899894064
1.7578415956302242,331.44052899894064
1.758834726475213,161.44052899894064
1.7598278573202017,-84.55947100105936
1.7608209881651906,-338.55947100105936
1.7618141190101795,-493.55947100105936
1.7628072498551683,-512.5594710010594
1.7638003807001572,-512.5594710010594
1.764793511545146,-512.5594710010594
1.7657866423901347,-361.55947100105936
1.7667797732351236,-68.55947100105936
1.7677729040801125,184.44052899894064
1.7687660349251013,411.44052899894064
1.7697591657700902,445.44052899894064
1.770752296615079,390.44052899894064
1.7717454274600677,282.44052899894064
1.7727385583050566,223.44052899894064
1.7737316891500454,135.44052899894064
1.7747248199950343,53.440528998940636
1.7757179508400232,72.44052899894064
1.776711081685012,250.44052899894064
1.7777042125300007,328.44052899894064
1.7786973433749895,158.44052899894064
1.7796904742199784,-83.55947100105936
1.7806836050649673,-337.55947100105936
1.7816767359099561,-489.55947100105936
1.7826698667549448,-512.5594710010594
1.7836629975999336,-512.5594710010594
1.7846561284449225,-512.5594710010594
1.7856492592899114,-360.55947100105936
1.7866423901349002,-66.55947100105936
1.787635520979889,182.44052899894064
1.7886286518248777,406.44052899894064
1.7896217826698666,443.44052899894064
1.7906149135148555,390.44052899894064
1.7916080443598443,286.44052899894064
1.7926011752048332,225.44052899894064
1.793594306049822,137.44052899894064
1.7945874368948107,50.440528998940636
1.7955805677397996,70.44052899894064
1.7965736985847884,248.44052899894064
1.7975668294297773,332.44052899894064
1.7985599602747662,163.44052899894064
1.799553091119755,-79.55947100105936
1.8005462219647437,-335.55947100105936
1.8015393528097325,-503.55947100105936
1.8025324836547214,-512.5594710010594
1.8035256144997103,-512.5594710010594
1.8045187453446991,-512.5594710010594
1.805511876189688,-354.55947100105936
1.8065050070346766,-61.559471001059364
1.8074981378796655,187.44052899894064
1.8084912687246544,407.44052899894064
1.8094843995696432,437.44052899894064
1.810477530414632,389.44052899894064
1.8114706612596208,290.44052899894064
1.8124637921046096,231.44052899894064
1.8134569229495985,142.44052899894064
1.8144500537945873,50.440528998940636
1.8154431846395762,70.44052899894064
1.816436315484565,250.44052899894064
1.8174294463295537,331.44052899894064
1.8184225771745426,164.44052899894064
1.8194157080195315,-73.55947100105936
1.8204088388645203,-327.55947100105936
1.8214019697095092,-492.55947100105936
1.822395100554498,-512.5594710010594
1.8233882313994867,-512.5594710010594
1.8243813622444756,-512.5594710010594
1.8253744930894644,-363.55947100105936
1.8263676239344533,-67.55947100105936
1.8273607547794422,184.44052899894064
1.828353885624431,414.44052899894064
1.8293470164694197,446.44052899894064
1.8303401473144085,393.44052899894064
1.8313332781593974,288.44052899894064
1.8323264090043863,229.44052899894064
1.8333195398493751,135.44052899894064
1.834312670694364,50.440528998940636
1.8353058015393526,70.44052899894064
1.8362989323843415,251.44052899894064
1.8372920632293304,331.44052899894064
1.8382851940743192,163.44052899894064
1.839278324919308,-87.55947100105936
1.840271455764297,-345.55947100105936
1.8412645866092856,-503.55947100105936
1.8422577174542745,-512.5594710010594
1.8432508482992633,-512.5594710010594
1.8442439791442522,-512.5594710010594
1.845237109989241,-345.55947100105936
1.8462302408342297,-51.559471001059364
1.8472233716792186,200.44052899894064
1.8482165025242074,421.44052899894064
1.8492096333691963,452.44052899894064
1.8502027642141852,388.44052899894064
1.851195895059174,282.44052899894064
1.8521890259041627,217.44052899894064
1.8531821567491515,126.44052899894064
1.8541752875941404,43.440528998940636
1.8551684184391293,67.44052899894064
1.8561615492841181,247.44052899894064
1.857154680129107,330.44052899894064
1.8581478109740956,157.44052899894064
1.8591409418190845,-84.55947100105936
1.8601340726640734,-342.55947100105936
1.8611272035090622,-503.55947100105936
1.862120334354051,-512.5594710010594
1.86311346519904,-512.5594710010594
1.8641065960440286,-512.5594710010594
1.8650997268890175,-351.55947100105936
1.8660928577340063,-57.559471001059364
1.8670859885789952,197.44052899894064
1.868079119423984,418.44052899894064
1.869072250268973,444.44052899894064
1.8700653811139616,387.44052899894064
1.8710585119589505,279.44052899894064
1.8720516428039393,219.44052899894064
1.8730447736489282,130.44052899894064
1.874037904493917,45.440528998940636
1.875031035338906,67.44052899894064
1.8760241661838946,253.44052899894064
1.8770172970288834,340.44052899894064
1.8780104278738723,166.44052899894064
1.8790035587188612,-76.55947100105936
1.87999668956385,-337.55947100105936
1.8809898204088387,-493.55947100105936
1.8819829512538275,-512.5594710010594
1.8829760820988164,-512.5594710010594
1.8839692129438053,-512.5594710010594
1.8849623437887941,-343.55947100105936
1.885955474633783,-50.559471001059364
1.8869486054787716,198.44052899894064
1.8879417363237605,416.44052899894064
1.8889348671687494,440.44052899894064
1.8899279980137382,380.44052899894064
1.890921128858727,272.44052899894064
1.891914259703716,215.44052899894064
1.8929073905487046,125.44052899894064
1.8939005213936935,40.440528998940636
1.8948936522386823,65.44052899894064
1.8958867830836712,248.44052899894064
1.89687991392866,334.44052899894064
1.897873044773649,166.44052899894064
1.8988661756186376,-75.55947100105936
1.8998593064636264,-331.55947100105936
1.9008524373086153,-492.55947100105936
1.9018455681536042,-512.5594710010594
1.902838698998593,-512.5594710010594
1.903831829843582,-512.5594710010594
1.9048249606885705,-345.55947100105936
1.9058180915335594,-56.559471001059364
1.9068112223785483,192.44052899894064
1.9078043532235371,410.44052899894064
1.908797484068526,434.44052899894064
1.9097906149135147,374.44052899894064
1.9107837457585035,274.44052899894064
1.9117768766034924,211.44052899894064
1.9127700074484812,119.44052899894064
1.9137631382934701,40.440528998940636
1.914756269138459,69.44052899894064
1.9157493999834476,254.44052899894064
1.9167425308284365,348.44052899894064
1.9177356616734254,188.44052899894064
1.9187287925184142,-46.559471001059364
1.919721923363403,-302.55947100105936
1.920715054208392,-470.55947100105936
1.9217081850533806,-512.5594710010594
1.9227013158983695,-512.5594710010594
1.9236944467433583,-512.5594710010594
1.9246875775883472,-362.55947100105936
1.925680708433336,-75.55947100105936
1.926673839278325,169.44052899894064
1.9276669701233136,393.44052899894064
1.9286601009683024,427.44052899894064
1.9296532318132913,370.44052899894064
1.9306463626582802,269.44052899894064
1.931639493503269,210.44052899894064
1.9326326243482579,120.44052899894064
1.9336257551932465,40.440528998940636
1.9346188860382354,63.440528998940636
1.9356120168832243,247.44052899894064
1.9366051477282131,342.44052899894064
1.937598278573202,179.44052899894064
1.9385914094181906,-63.559471001059364
1.9395845402631795,-321.55947100105936
1.9405776711081684,-492.55947100105936
1.9415708019531572,-512.5594710010594
1.942563932798146,-512.5594710010594
1.943557063643135,-512.5594710010594
1.9445501944881236,-352.55947100105936
1.9455433253331125,-64.55947100105936
1.9465364561781013,181.44052899894064
1.9475295870230902,403.44052899894064
1.948522717868079,437.44052899894064
1.949515848713068,381.44052899894064
1.9505089795580566,279.44052899894064
1.9515021104030454,219.44052899894064
1.9524952412480343,128.44052899894064
1.9534883720930232,43.440528998940636
1.954481502938012,67.44052899894064
1.955474633783001,246.44052899894064
1.9564677646279895,335.44052899894064
1.9574608954729784,170.44052899894064
1.9584540263179673,-69.55947100105936
1.9594471571629561,-328.55947100105936
1.960440288007945,-499.55947100105936
1.9614334188529339,-512.5594710010594
1.9624265496979225,-512.5594710010594
1.9634196805429114,-512.5594710010594
1.9644128113879002,-363.55947100105936
1.9654059422328891,-71.55947100105936
1.966399073077878,176.44052899894064
1.9673922039228668,398.44052899894064
1.9683853347678555,433.44052899894064
1.9693784656128444,383.44052899894064
1.9703715964578332,280.44052899894064
1.971364727302822,224.44052899894064
1.972357858147811,134.44052899894064
1.9733509889927996,53.440528998940636
1.9743441198377885,76.44052899894064
1.9753372506827773,250.44052899894064
1.9763303815277662,342.44052899894064
1.977323512372755,179.44052899894064
1.978316643217744,-63.559471001059364
1.9793097740627326,-327.55947100105936
1.9803029049077214,-495.55947100105936
1.9812960357527103,-512.5594710010594
1.9822891665976992,-512.5594710010594
1.983282297442688,-512.5594710010594
1.984275428287677,-358.55947100105936
1.9852685591326655,-65.55947100105936
1.9862616899776544,185.44052899894064
1.9872548208226433,410.44052899894064
1.9882479516676321,446.44052899894064
1.989241082512621,392.44052899894064
1.9902342133576099,289.44052899894064
1.9912273442025985,231.44052899894064
1.9922204750475874,142.44052899894064
1.9932136058925762,53.440528998940636
1.994206736737565,69.44052899894064
1.995199867582554,245.44052899894064
1.9961929984275428,332.44052899894064
1.9971861292725315,167.44052899894064
1.9981792601175203,-73.55947100105936
1.9991723909625092,-337.55947100105936
2.000165521807498,-501.55947100105936
2.001158652652487,-512.5594710010594
2.002151783497476,-512.5594710010594
2.0031449143424647,-512.5594710010594
2.0041380451874535,-369.55947100105936
2.005131176032442,-69.55947100105936
2.006124306877431,184.44052899894064
2.0071174377224197,414.44052899894064
2.0081105685674085,452.44052899894064
2.0091036994123974,402.44052899894064
2.0100968302573863,297.44052899894064
2.011089961102375,238.44052899894064
2.012083091947364,148.44052899894064
2.013076222792353,61.440528998940636
2.0140693536373417,80.44052899894064
2.0150624844823306,244.44052899894064
2.0160556153273195,331.44052899894064
2.017048746172308,166.44052899894064
2.0180418770172968,-84.55947100105936
2.0190350078622856,-351.55947100105936
2.0200281387072745,-512.5594710010594
2.0210212695522634,-512.5594710010594
2.022014400397252,-512.5594710010594
2.023007531242241,-512.5594710010594
2.02400066208723,-363.55947100105936
2.024993792932219,-60.559471001059364
2.0259869237772077,194.44052899894064
2.0269800546221965,426.44052899894064
2.0279731854671854,461.44052899894064
2.028966316312174,407.44052899894064
2.0299594471571627,304.44052899894064
2.0309525780021516,245.44052899894064
2.0319457088471404,151.44052899894064
2.0329388396921293,66.44052899894064
2.033931970537118,78.44052899894064
2.034925101382107,243.44052899894064
2.035918232227096,329.44052899894064
2.0369113630720848,158.44052899894064
2.0379044939170736,-97.55947100105936
2.0388976247620625,-359.55947100105936
2.039890755607051,-512.5594710010594
2.0408838864520398,-512.5594710010594
2.0418770172970286,-512.5594710010594
2.0428701481420175,-512.5594710010594
2.0438632789870064,-375.55947100105936
2.0448564098319952,-71.55947100105936
2.045849540676984,190.44052899894064
2.046842671521973,422.44052899894064
2.047835802366962,467.44052899894064
2.0488289332119507,414.44052899894064
2.0498220640569396,314.44052899894064
2.0508151949019284,251.44052899894064
2.051808325746917,160.44052899894064
2.0528014565919057,75.44052899894064
2.0537945874368946,80.44052899894064
2.0547877182818834,240.44052899894064
2.0557808491268723,322.44052899894064
2.056773979971861,150.44052899894064
2.05776711081685,-104.55947100105936
2.058760241661839,-366.55947100105936
2.0597533725068278,-512.5594710010594
2.0607465033518166,-512.5594710010594
2.0617396341968055,-512.5594710010594
2.0627327650417944,-512.5594710010594
2.063725895886783,-357.55947100105936
2.0647190267317717,-55.559471001059364
2.0657121575767605,202.44052899894064
2.0667052884217494,433.44052899894064
2.0676984192667383,478.44052899894064
2.068691550111727,419.44052899894064
2.069684680956716,315.44052899894064
2.070677811801705,253.44052899894064
2.0716709426466937,162.44052899894064
2.0726640734916826,70.44052899894064
2.0736572043366714,81.44052899894064
2.07465033518166,242.44052899894064
2.0756434660266487,325.44052899894064
2.0766365968716376,152.44052899894064
2.0776297277166265,-102.55947100105936
2.0786228585616153,-369.55947100105936
2.079615989406604,-512.5594710010594
2.080609120251593,-512.5594710010594
2.081602251096582,-512.5594710010594
2.082595381941571,-512.5594710010594
2.0835885127865597,-367.55947100105936
2.0845816436315485,-56.559471001059364
2.0855747744765374,202.44052899894064
2.086567905321526,435.44052899894064
2.0875610361665147,477.44052899894064
2.0885541670115035,424.44052899894064
2.0895472978564924,319.44052899894064
2.0905404287014813,257.44052899894064
2.09153355954647,162.44052899894064
2.092526690391459,75.44052899894064
2.093519821236448,77.44052899894064
2.0945129520814367,239.44052899894064
2.0955060829264256,321.44052899894064
2.0964992137714145,146.44052899894064
2.097492344616403,-104.55947100105936
2.0984854754613917,-374.55947100105936
2.0994786063063806,-512.5594710010594
2.1004717371513695,-512.5594710010594
2.1014648679963583,-512.5594710010594
2.102457998841347,-512.5594710010594
2.103451129686336,-359.55947100105936
2.104444260531325,-51.559471001059364
2.105437391376314,202.44052899894064
2.1064305222213027,434.44052899894064
2.1074236530662915,477.44052899894064
2.1084167839112804,426.44052899894064
2.109409914756269,322.44052899894064
2.1104030456012577,256.44052899894064
2.1113961764462466,163.44052899894064
2.1123893072912354,75.44052899894064
2.1133824381362243,78.44052899894064
2.114375568981213,237.44052899894064
2.115368699826202,320.44052899894064
2.116361830671191,151.44052899894064
2.1173549615161797,-101.55947100105936
2.1183480923611686,-365.55947100105936
2.1193412232061575,-512.5594710010594
2.1203343540511463,-512.5594710010594
2.1213274848961348,-512.5594710010594
2.1223206157411236,-512.5594710010594
2.1233137465861125,-363.55947100105936
2.1243068774311014,-57.559471001059364
2.1253000082760902,198.44052899894064
2.126293139121079,432.44052899894064
2.127286269966068,473.44052899894064
2.128279400811057,415.44052899894064
2.1292725316560457,312.44052899894064
2.1302656625010346,248.44052899894064
2.1312587933460234,154.44052899894064
2.132251924191012,66.44052899894064
2.1332450550360007,72.44052899894064
2.1342381858809896,235.44052899894064
2.1352313167259784,323.44052899894064
2.1362244475709673,151.44052899894064
2.137217578415956,-101.55947100105936
2.138210709260945,-364.55947100105936
2.139203840105934,-512.5594710010594
2.1401969709509228,-512.5594710010594
2.1411901017959116,-512.5594710010594
2.1421832326409005,-512.5594710010594
2.1431763634858894,-357.55947100105936
2.144169494330878,-56.559471001059364
2.1451626251758666,199.44052899894064
2.1461557560208555,426.44052899894064
2.1471488868658444,466.44052899894064
2.1481420177108332,411.44052899894064
2.149135148555822,309.44052899894064
2.150128279400811,242.44052899894064
2.1511214102458,151.44052899894064
2.1521145410907887,66.44052899894064
2.1531076719357776,70.44052899894064
2.1541008027807664,229.44052899894064
2.1550939336257553,317.44052899894064
2.1560870644707437,142.44052899894064
2.1570801953157326,-101.55947100105936
2.1580733261607215,-356.55947100105936
2.1590664570057103,-512.5594710010594
2.160059587850699,-512.5594710010594
2.161052718695688,-512.5594710010594
2.162045849540677,-512.5594710010594
2.1630389803856658,-354.55947100105936
2.1640321112306546,-53.559471001059364
2.1650252420756435,205.44052899894064
2.1660183729206324,431.44052899894064
2.167011503765621,467.44052899894064
2.1680046346106097,406.44052899894064
2.1689977654555985,301.44052899894064
2.1699908963005874,239.44052899894064
2.1709840271455763,146.44052899894064
2.171977157990565,61.440528998940636
2.172970288835554,69.44052899894064
2.173963419680543,236.44052899894064
2.1749565505255317,322.44052899894064
2.1759496813705206,154.44052899894064
2.1769428122155094,-92.55947100105936
2.1779359430604983,-353.55947100105936
2.1789290739054867,-512.5594710010594
2.1799222047504756,-512.5594710010594
2.1809153355954645,-512.5594710010594
2.1819084664404533,-512.5594710010594
2.182901597285442,-352.55947100105936
2.183894728130431,-51.559471001059364
2.18488785897542,202.44052899894064
2.185880989820409,427.44052899894064
2.1868741206653977,460.44052899894064
2.1878672515103865,404.44052899894064
2.1888603823553754,296.44052899894064
2.1898535132003643,236.44052899894064
2.1908466440453527,142.44052899894064
2.1918397748903415,55.440528998940636
2.1928329057353304,64.44052899894064
2.1938260365803193,232.44052899894064
2.194819167425308,320.44052899894064
2.195812298270297,152.44052899894064
2.196805429115286,-92.55947100105936
2.1977985599602747,-347.55947100105936
2.1987916908052636,-506.55947100105936
2.1997848216502525,-512.5594710010594
2.2007779524952413,-512.5594710010594
2.2017710833402298,-512.5594710010594
2.2027642141852186,-352.55947100105936
2.2037573450302075,-49.559471001059364
2.2047504758751963,206.44052899894064
2.205743606720185,424.44052899894064
2.206736737565174,453.44052899894064
2.207729868410163,389.44052899894064
2.208722999255152,284.44052899894064
2.2097161301001407,222.44052899894064
2.2107092609451295,132.44052899894064
2.2117023917901184,50.440528998940636
2.2126955226351073,58.440528998940636
2.2136886534800957,227.44052899894064
2.2146817843250846,322.44052899894064
2.2156749151700734,159.44052899894064
2.2166680460150623,-81.55947100105936
2.217661176860051,-333.55947100105936
2.21865430770504,-500.55947100105936
2.219647438550029,-512.5594710010594
2.2206405693950177,-512.5594710010594
2.2216337002400066,-512.5594710010594
2.2226268310849955,-351.55947100105936
2.2236199619299843,-54.559471001059364
2.224613092774973,200.44052899894064
2.2256062236199616,421.44052899894064
2.2265993544649505,450.44052899894064
2.2275924853099394,388.44052899894064
2.2285856161549282,279.44052899894064
2.229578746999917,217.44052899894064
2.230571877844906,127.44052899894064
2.231565008689895,43.440528998940636
2.2325581395348837,60.440528998940636
2.2335512703798726,231.44052899894064
2.2345444012248614,326.44052899894064
2.2355375320698503,167.44052899894064
2.2365306629148387,-73.55947100105936
2.2375237937598276,-329.55947100105936
2.2385169246048164,-498.55947100105936
2.2395100554498053,-512.5594710010594
2.240503186294794,-512.5594710010594
2.241496317139783,-512.5594710010594
2.242489447984772,-351.55947100105936
2.2434825788297608,-52.559471001059364
2.2444757096747496,199.44052899894064
2.2454688405197385,417.44052899894064
2.2464619713647274,443.44052899894064
2.2474551022097162,381.44052899894064
2.2484482330547046,277.44052899894064
2.2494413638996935,215.44052899894064
2.2504344947446824,128.44052899894064
2.2514276255896712,44.440528998940636
2.25242075643466,62.440528998940636
2.253413887279649,239.44052899894064
2.254407018124638,331.44052899894064
2.2554001489696267,163.44052899894064
2.2563932798146156,-75.55947100105936
2.2573864106596044,-325.55947100105936
2.2583795415045933,-488.55947100105936
2.2593726723495817,-512.5594710010594
2.2603658031945706,-512.5594710010594
2.2613589340395595,-512.5594710010594
2.2623520648845483,-349.55947100105936
2.263345195729537,-54.559471001059364
2.264338326574526,191.44052899894064
2.265331457419515,412.44052899894064
2.266324588264504,441.44052899894064
2.2673177191094926,381.44052899894064
2.2683108499544815,273.44052899894064
2.2693039807994704,212.44052899894064
2.2702971116444592,125.44052899894064
2.2712902424894477,38.440528998940636
2.2722833733344365,51.440528998940636
2.2732765041794254,234.44052899894064
2.2742696350244143,330.44052899894064
2.275262765869403,172.44052899894064
2.276255896714392,-67.55947100105936
2.277249027559381,-320.55947100105936
2.2782421584043697,-490.55947100105936
2.2792352892493586,-512.5594710010594
2.2802284200943475,-512.5594710010594
2.2812215509393363,-512.5594710010594
2.282214681784325,-346.55947100105936
2.2832078126293136,-58.559471001059364
2.2842009434743025,190.44052899894064
2.2851940743192913,407.44052899894064
2.28618720516428,437.44052899894064
2.287180336009269,379.44052899894064
2.288173466854258,273.44052899894064
2.289166597699247,212.44052899894064
2.2901597285442357,121.44052899894064
2.2911528593892245,30.440528998940636
2.2921459902342134,54.440528998940636
2.2931391210792023,236.44052899894064
2.2941322519241907,336.44052899894064
2.2951253827691795,177.44052899894064
2.2961185136141684,-64.55947100105936
2.2971116444591573,-318.55947100105936
2.298104775304146,-484.55947100105936
2.299097906149135,-512.5594710010594
2.300091036994124,-512.5594710010594
2.3010841678391127,-512.5594710010594
2.3020772986841016,-346.55947100105936
2.3030704295290905,-58.559471001059364
2.3040635603740793,187.44052899894064
2.305056691219068,403.44052899894064
2.3060498220640566,432.44052899894064
2.3070429529090455,367.44052899894064
2.3080360837540344,266.44052899894064
2.309029214599023,208.44052899894064
2.310022345444012,117.44052899894064
2.311015476289001,34.440528998940636
2.31200860713399,56.440528998940636
2.3130017379789787,237.44052899894064
2.3139948688239675,336.44052899894064
2.3149879996689564,178.44052899894064
2.3159811305139453,-59.559471001059364
2.316974261358934,-313.55947100105936
2.3179673922039226,-482.55947100105936
2.3189605230489114,-512.5594710010594
2.3199536538939003,-512.5594710010594
2.320946784738889,-512.5594710010594
2.321939915583878,-352.55947100105936
2.322933046428867,-62.559471001059364
2.3239261772738558,185.44052899894064
2.3249193081188446,404.44052899894064
2.3259124389638335,437.44052899894064
2.3269055698088223,374.44052899894064
2.327898700653811,271.44052899894064
2.3288918314987996,211.44052899894064
2.3298849623437885,120.44052899894064
2.3308780931887774,34.440528998940636
2.3318712240337662,55.440528998940636
2.332864354878755,237.44052899894064
2.333857485723744,335.44052899894064
2.334850616568733,177.44052899894064
2.3358437474137217,-61.559471001059364
2.3368368782587106,-314.55947100105936
2.3378300091036994,-483.55947100105936
2.3388231399486883,-512.5594710010594
2.339816270793677,-512.5594710010594
2.3408094016386656,-512.5594710010594
2.3418025324836544,-349.55947100105936
2.3427956633286433,-59.559471001059364
2.343788794173632,190.44052899894064
2.344781925018621,408.44052899894064
2.34577505586361,443.44052899894064
2.3467681867085988,381.44052899894064
2.3477613175535876,274.44052899894064
2.3487544483985765,215.44052899894064
2.3497475792435654,124.44052899894064
2.3507407100885542,39.440528998940636
2.3517338409335427,52.440528998940636
2.3527269717785315,239.44052899894064
2.3537201026235204,335.44052899894064
2.3547132334685092,172.44052899894064
2.355706364313498,-66.55947100105936
2.356699495158487,-321.55947100105936
2.357692626003476,-493.55947100105936
2.3586857568484647,-512.5594710010594
2.3596788876934536,-512.5594710010594
2.3606720185384424,-512.5594710010594
2.3616651493834313,-360.55947100105936
2.36265828022842,-65.55947100105936
2.3636514110734086,180.44052899894064
2.3646445419183975,406.44052899894064
2.3656376727633863,439.44052899894064
2.366630803608375,383.44052899894064
2.367623934453364,282.44052899894064
2.368617065298353,222.44052899894064
2.369610196143342,126.44052899894064
2.3706033269883307,47.440528998940636
2.3715964578333195,62.440528998940636
2.3725895886783084,241.44052899894064
2.3735827195232972,331.44052899894064
2.374575850368286,170.44052899894064
2.3755689812132745,-73.55947100105936
2.3765621120582634,-323.55947100105936
2.3775552429032523,-495.55947100105936
2.378548373748241,-512.5594710010594
2.37954150459323,-512.5594710010594
2.380534635438219,-512.5594710010594
2.3815277662832077,-358.55947100105936
2.3825208971281966,-58.559471001059364
2.3835140279731855,195.44052899894064
2.3845071588181743,422.44052899894064
2.385500289663163,452.44052899894064
2.3864934205081516,391.44052899894064
2.3874865513531405,287.44052899894064
2.3884796821981293,226.44052899894064
2.389472813043118,134.44052899894064
2.390465943888107,46.440528998940636
2.391459074733096,63.440528998940636
2.392452205578085,238.44052899894064
2.3934453364230737,331.44052899894064
2.3944384672680625,164.44052899894064
2.3954315981130514,-80.55947100105936
2.3964247289580403,-334.55947100105936
2.397417859803029,-504.55947100105936
2.3984109906480175,-512.5594710010594
2.3994041214930064,-512.5594710010594
2.4003972523379953,-512.5594710010594
2.401390383182984,-358.55947100105936
2.402383514027973,-58.559471001059364
2.403376644872962,190.44052899894064
2.4043697757179507,419.44052899894064
2.4053629065629396,459.44052899894064
2.4063560374079285,401.44052899894064
2.4073491682529173,294.44052899894064
2.408342299097906,232.44052899894064
2.409335429942895,138.44052899894064
2.4103285607878835,54.440528998940636
2.4113216916328724,65.44052899894064
2.412314822477861,237.44052899894064
2.41330795332285,334.44052899894064
2.414301084167839,176.44052899894064
2.415294215012828,-61.559471001059364
2.4162873458578167,-333.55947100105936
2.4172804767028055,-506.55947100105936
2.4182736075477944,-512.5594710010594
2.4192667383927833,-512.5594710010594
2.420259869237772,-512.5594710010594
2.4212530000827606,-360.55947100105936
2.4222461309277494,-66.55947100105936
2.4232392617727383,175.44052899894064
2.424232392617727,404.44052899894064
2.425225523462716,449.44052899894064
2.426218654307705,394.44052899894064
2.4272117851526938,293.44052899894064
2.4282049159976826,231.44052899894064
2.4291980468426715,140.44052899894064
2.4301911776876604,57.440528998940636
2.431184308532649,65.44052899894064
2.432177439377638,237.44052899894064
2.4331705702226265,334.44052899894064
2.4341637010676154,175.44052899894064
2.4351568319126042,-57.559471001059364
2.436149962757593,-311.55947100105936
2.437143093602582,-482.55947100105936
2.438136224447571,-512.5594710010594
2.4391293552925597,-512.5594710010594
2.4401224861375486,-512.5594710010594
2.4411156169825374,-370.55947100105936
2.4421087478275263,-79.55947100105936
2.443101878672515,166.44052899894064
2.444095009517504,399.44052899894064
2.4450881403624924,442.44052899894064
2.4460812712074813,383.44052899894064
2.44707440205247,283.44052899894064
2.448067532897459,224.44052899894064
2.449060663742448,136.44052899894064
2.4500537945874368,55.440528998940636
2.4510469254324256,64.44052899894064
2.4520400562774145,234.44052899894064
2.4530331871224034,329.44052899894064
2.4540263179673922,178.44052899894064
2.455019448812381,-54.559471001059364
2.4560125796573695,-312.55947100105936
2.4570057105023584,-497.55947100105936
2.4579988413473473,-512.5594710010594
2.458991972192336,-512.5594710010594
2.459985103037325,-512.5594710010594
2.460978233882314,-362.55947100105936
2.4619713647273027,-66.55947100105936
2.4629644955722916,176.44052899894064
2.4639576264172804,403.44052899894064
2.4649507572622693,441.44052899894064
2.465943888107258,380.44052899894064
2.466937018952247,282.44052899894064
2.4679301497972355,220.44052899894064
2.4689232806422243,131.44052899894064
2.469916411487213,46.440528998940636
2.470909542332202,62.440528998940636
2.471902673177191,230.44052899894064
2.47289580402218,331.44052899894064
2.4738889348671687,178.44052899894064
2.4748820657121575,-51.559471001059364
2.4758751965571464,-305.55947100105936
2.4768683274021353,-474.55947100105936
2.477861458247124,-512.5594710010594
2.478854589092113,-512.5594710010594
2.4798477199371014,-512.5594710010594
2.4808408507820903,-359.55947100105936
2.481833981627079,-69.55947100105936
2.482827112472068,171.44052899894064
2.483820243317057,394.44052899894064
2.4848133741620457,427.44052899894064
2.4858065050070346,369.44052899894064
2.4867996358520235,270.44052899894064
2.4877927666970123,211.44052899894064
2.488785897542001,129.44052899894064
2.48977902838699,45.440528998940636
2.4907721592319785,51.440528998940636
2.4917652900769673,225.44052899894064
2.492758420921956,327.44052899894064
2.493751551766945,180.44052899894064
2.494744682611934,-51.559471001059364
2.495737813456923,-303.55947100105936
2.4967309443019117,-470.55947100105936
2.4977240751469005,-512.5594710010594
2.4987172059918894,-512.5594710010594
2.4997103368368783,-512.5594710010594
2.500703467681867,-359.55947100105936
2.501696598526856,-67.55947100105936
2.5026897293718444,176.44052899894064
2.5036828602168333,393.44052899894064
2.504675991061822,428.44052899894064
2.505669121906811,367.44052899894064
2.5066622527518,268.44052899894064
2.5076553835967887,210.44052899894064
2.5086485144417776,124.44052899894064
2.5096416452867665,38.440528998940636
2.5106347761317553,57.440528998940636
2.511627906976744,229.44052899894064
2.512621037821733,331.44052899894064
2.5136141686667215,182.44052899894064
2.5146072995117104,-54.559471001059364
2.5156004303566992,-306.55947100105936
2.516593561201688,-472.55947100105936
2.517586692046677,-512.5594710010594
2.518579822891666,-512.5594710010594
2.5195729537366547,-512.5594710010594
2.5205660845816436,-358.55947100105936
2.5215592154266324,-71.55947100105936
2.5225523462716213,170.44052899894064
2.52354547711661,395.44052899894064
2.524538607961599,429.44052899894064
2.5255317388065874,371.44052899894064
2.5265248696515763,277.44052899894064
2.527518000496565,214.44052899894064
2.528511131341554,123.44052899894064
2.529504262186543,40.440528998940636
2.5304973930315318,53.440528998940636
2.5314905238765206,225.44052899894064
2.5324836547215095,327.44052899894064
2.5334767855664984,179.44052899894064
2.5344699164114872,-55.559471001059364
2.535463047256476,-309.55947100105936
2.536456178101465,-481.55947100105936
2.5374493089464534,-512.5594710010594
2.5384424397914422,-512.5594710010594
2.539435570636431,-512.5594710010594
2.54042870148142,-363.55947100105936
2.541421832326409,-71.55947100105936
2.5424149631713977,174.44052899894064
2.5434080940163866,398.44052899894064
2.5444012248613754,433.44052899894064
2.5453943557063643,377.44052899894064
2.546387486551353,279.44052899894064
2.547380617396342,217.44052899894064
2.5483737482413304,131.44052899894064
2.5493668790863193,47.440528998940636
2.550360009931308,59.440528998940636
2.551353140776297,231.44052899894064
2.552346271621286,333.44052899894064
2.5533394024662748,182.44052899894064
2.5543325333112636,-58.559471001059364
2.5553256641562525,-316.55947100105936
2.5563187950012414,-497.55947100105936
2.5573119258462302,-512.5594710010594
2.558305056691219,-512.5594710010594
2.559298187536208,-512.5594710010594
2.5602913183811964,-375.55947100105936
2.5612844492261853,-68.55947100105936
2.562277580071174,186.44052899894064
2.563270710916163,417.44052899894064
2.564263841761152,451.44052899894064
2.5652569726061407,396.44052899894064
2.5662501034511296,296.44052899894064
2.5672432342961184,232.44052899894064
2.5682363651411073,144.44052899894064
2.569229495986096,61.440528998940636
2.570222626831085,65.44052899894064
2.571215757676074,236.44052899894064
2.5722088885210623,336.44052899894064
2.573202019366051,183.44052899894064
2.57419515021104,-57.559471001059364
2.575188281056029,-318.55947100105936
2.576181411901018,-500.55947100105936
2.5771745427460067,-512.5594710010594
2.5781676735909955,-512.5594710010594
2.5791608044359844,-512.5594710010594
2.5801539352809733,-386.55947100105936
2.581147066125962,-77.55947100105936
2.582140196970951,182.44052899894064
2.5831333278159394,413.44052899894064
2.5841264586609283,458.44052899894064
2.585119589505917,405.44052899894064
2.586112720350906,300.44052899894064
2.587105851195895,234.44052899894064
2.5880989820408837,146.44052899894064
2.5890921128858726,56.440528998940636
2.5900852437308615,62.440528998940636
2.5910783745758503,230.44052899894064
2.592071505420839,334.44052899894064
2.593064636265828,181.44052899894064
2.594057767110817,-70.55947100105936
2.5950508979558053,-334.55947100105936
2.596044028800794,-510.55947100105936
2.597037159645783,-512.5594710010594
2.598030290490772,-512.5594710010594
2.599023421335761,-512.5594710010594
2.6000165521807497,-373.55947100105936
2.6010096830257385,-57.559471001059364
2.6020028138707274,204.44052899894064
2.6029959447157163,431.44052899894064
2.603989075560705,459.44052899894064
2.604982206405694,400.44052899894064
2.6059753372506824,296.44052899894064
2.6069684680956713,235.44052899894064
2.60796159894066,143.44052899894064
2.608954729785649,52.440528998940636
2.609947860630638,59.440528998940636
2.6109409914756267,226.44052899894064
2.6119341223206156,331.44052899894064
2.6129272531656045,173.44052899894064
2.6139203840105933,-76.55947100105936
2.614913514855582,-341.55947100105936
2.615906645700571,-512.5594710010594
2.61689977654556,-512.5594710010594
2.6178929073905484,-512.5594710010594
2.6188860382355372,-512.5594710010594
2.619879169080526,-367.55947100105936
2.620872299925515,-64.55947100105936
2.621865430770504,199.44052899894064
2.6228585616154927,432.44052899894064
2.6238516924604816,466.44052899894064
2.6248448233054704,403.44052899894064
2.6258379541504593,301.44052899894064
2.626831084995448,237.44052899894064
2.627824215840437,144.44052899894064
2.628817346685426,57.440528998940636
2.6298104775304143,62.440528998940636
2.630803608375403,224.44052899894064
2.631796739220392,325.44052899894064
2.632789870065381,175.44052899894064
2.6337830009103698,-73.55947100105936
2.6347761317553586,-335.55947100105936
2.6357692626003475,-511.55947100105936
2.6367623934453364,-512.5594710010594
2.6377555242903252,-512.5594710010594
2.638748655135314,-512.5594710010594
2.639741785980303,-372.55947100105936
2.6407349168252914,-66.55947100105936
2.6417280476702802,188.44052899894064
2.642721178515269,419.44052899894064
2.643714309360258,460.44052899894064
2.644707440205247,401.44052899894064
2.6457005710502357,302.44052899894064
2.6466937018952246,235.44052899894064
2.6476868327402134,147.44052899894064
2.6486799635852023,55.440528998940636
2.649673094430191,61.440528998940636
2.65066622527518,231.44052899894064
2.651659356120169,334.44052899894064
2.6526524869651573,180.44052899894064
2.653645617810146,-70.55947100105936
2.654638748655135,-333.55947100105936
2.655631879500124,-508.55947100105936
2.656625010345113,-512.5594710010594
2.6576181411901016,-512.5594710010594
2.6586112720350905,-512.5594710010594
2.6596044028800794,-378.55947100105936
2.6605975337250682,-68.55947100105936
2.661590664570057,191.44052899894064
2.662583795415046,422.44052899894064
2.663576926260035,459.44052899894064
2.6645700571050233,402.44052899894064
2.665563187950012,301.44052899894064
2.666556318795001,238.44052899894064
2.66754944963999,143.44052899894064
2.6685425804849787,56.440528998940636
2.6695357113299676,61.440528998940636
2.6705288421749565,232.44052899894064
2.6715219730199453,334.44052899894064
2.672515103864934,182.44052899894064
2.673508234709923,-63.559471001059364
2.674501365554912,-333.55947100105936
2.6754944963999003,-509.55947100105936
2.676487627244889,-512.5594710010594
2.677480758089878,-512.5594710010594
2.678473888934867,-512.5594710010594
2.679467019779856,-372.55947100105936
2.6804601506248447,-68.55947100105936
2.6814532814698335,183.44052899894064
2.6824464123148224,414.44052899894064
2.6834395431598113,456.44052899894064
2.6844326740048,400.44052899894064
2.685425804849789,297.44052899894064
2.686418935694778,235.44052899894064
2.6874120665397663,146.44052899894064
2.688405197384755,63.440528998940636
2.689398328229744,65.44052899894064
2.690391459074733,227.44052899894064
2.6913845899197217,329.44052899894064
2.6923777207647106,169.44052899894064
2.6933708516096995,-84.55947100105936
2.6943639824546883,-346.55947100105936
2.695357113299677,-512.5594710010594
2.696350244144666,-512.5594710010594
2.697343374989655,-512.5594710010594
2.698336505834644,-512.5594710010594
2.699329636679632,-375.55947100105936
2.700322767524621,-61.559471001059364
2.70131589836961,198.44052899894064
2.702309029214599,427.44052899894064
2.7033021600595877,469.44052899894064
2.7042952909045765,410.44052899894064
2.7052884217495654,306.44052899894064
2.7062815525945543,250.44052899894064
2.707274683439543,163.44052899894064
2.708267814284532,67.44052899894064
2.709260945129521,62.440528998940636
2.7102540759745093,229.44052899894064
2.711247206819498,334.44052899894064
2.712240337664487,177.44052899894064
2.713233468509476,-67.55947100105936
2.7142265993544648,-322.55947100105936
2.7152197301994536,-497.55947100105936
2.7162128610444425,-512.5594710010594
2.7172059918894313,-512.5594710010594
2.71819912273442,-512.5594710010594
2.719192253579409,-374.55947100105936
2.720185384424398,-68.55947100105936
2.721178515269387,184.44052899894064
2.7221716461143752,415.44052899894064
2.723164776959364,453.44052899894064
2.724157907804353,398.44052899894064
2.725151038649342,297.44052899894064
2.7261441694943307,236.44052899894064
2.7271373003393196,142.44052899894064
2.7281304311843084,58.440528998940636
2.7291235620292973,59.440528998940636
2.730116692874286,226.44052899894064
2.731109823719275,323.44052899894064
2.732102954564264,170.44052899894064
2.7330960854092528,-80.55947100105936
2.734089216254241,-337.55947100105936
2.73508234709923,-509.55947100105936
2.736075477944219,-512.5594710010594
2.7370686087892078,-512.5594710010594
2.7380617396341966,-512.5594710010594
2.7390548704791855,-375.55947100105936
2.7400480013241744,-67.55947100105936
2.7410411321691632,194.44052899894064
2.742034263014152,422.44052899894064
2.743027393859141,461.44052899894064
2.74402052470413,403.44052899894064
2.7450136555491182,304.44052899894064
2.746006786394107,240.44052899894064
2.746999917239096,152.44052899894064
2.747993048084085,63.440528998940636
2.7489861789290737,63.440528998940636
2.7499793097740626,222.44052899894064
2.7509724406190514,322.44052899894064
2.7519655714640403,164.44052899894064
2.752958702309029,-80.55947100105936
2.753951833154018,-338.55947100105936
2.754944963999007,-511.55947100105936
2.7559380948439958,-512.5594710010594
2.756931225688984,-512.5594710010594
2.757924356533973,-512.5594710010594
2.758917487378962,-379.55947100105936
2.759910618223951,-67.55947100105936
2.7609037490689396,192.44052899894064
2.7618968799139285,422.44052899894064
2.7628900107589174,464.44052899894064
2.7638831416039062,407.44052899894064
2.764876272448895,305.44052899894064
2.765869403293884,245.44052899894064
2.766862534138873,157.44052899894064
2.7678556649838613,66.44052899894064
2.76884879582885,60.440528998940636
2.769841926673839,219.44052899894064
2.770835057518828,318.44052899894064
2.7718281883638167,163.44052899894064
2.7728213192088056,-82.55947100105936
2.7738144500537945,-342.55947100105936
2.7748075808987833,-512.5594710010594
2.775800711743772,-512.5594710010594
2.776793842588761,-512.5594710010594
2.77778697343375,-512.5594710010594
2.778780104278739,-373.55947100105936
2.779773235123727,-59.559471001059364
2.780766365968716,200.44052899894064
2.781759496813705,439.44052899894064
2.782752627658694,472.44052899894064
2.7837457585036827,411.44052899894064
2.7847388893486715,310.44052899894064
2.7857320201936604,246.44052899894064
2.7867251510386493,157.44052899894064
2.787718281883638,67.44052899894064
2.788711412728627,64.44052899894064
2.789704543573616,220.44052899894064
2.7906976744186047,324.44052899894064
2.791690805263593,164.44052899894064
2.792683936108582,-81.55947100105936
2.793677066953571,-341.55947100105936
2.7946701977985597,-512.5594710010594
2.7956633286435486,-512.5594710010594
2.7966564594885375,-512.5594710010594
2.7976495903335263,-512.5594710010594
2.798642721178515,-385.55947100105936
2.799635852023504,-66.55947100105936
2.800628982868493,194.44052899894064
2.801622113713482,430.44052899894064
2.80261524455847,469.44052899894064
2.803608375403459,410.44052899894064
2.804601506248448,312.44052899894064
2.805594637093437,248.44052899894064
2.8065877679384257,155.44052899894064
2.8075808987834145,66.44052899894064
2.8085740296284034,64.44052899894064
2.8095671604733923,221.44052899894064
2.810560291318381,326.44052899894064
2.81155342216337,167.44052899894064
2.812546553008359,-82.55947100105936
2.8135396838533477,-341.55947100105936
2.814532814698336,-512.5594710010594
2.815525945543325,-512.5594710010594
2.816519076388314,-512.5594710010594
2.8175122072333028,-512.5594710010594
2.8185053380782916,-377.55947100105936
2.8194984689232805,-67.55947100105936
2.8204915997682694,188.44052899894064
2.821484730613258,427.44052899894064
2.822477861458247,470.44052899894064
2.823470992303236,410.44052899894064
2.824464123148225,308.44052899894064
2.8254572539932137,245.44052899894064
2.826450384838202,150.44052899894064
2.827443515683191,61.440528998940636
2.82843664652818,63.440528998940636
2.8294297773731687,226.44052899894064
2.8304229082181576,324.44052899894064
2.8314160390631464,172.44052899894064
2.8324091699081353,-77.55947100105936
2.833402300753124,-337.55947100105936
2.834395431598113,-511.55947100105936
2.835388562443102,-512.5594710010594
2.8363816932880908,-512.5594710010594
2.837374824133079,-512.5594710010594
2.838367954978068,-380.55947100105936
2.839361085823057,-68.55947100105936
2.8403542166680458,191.44052899894064
2.8413473475130346,426.44052899894064
2.8423404783580235,465.44052899894064
2.8433336092030124,407.44052899894064
2.8443267400480012,305.44052899894064
2.84531987089299,239.44052899894064
2.846313001737979,149.44052899894064
2.847306132582968,57.440528998940636
2.8482992634279567,61.440528998940636
2.849292394272945,223.44052899894064
2.850285525117934,331.44052899894064
2.851278655962923,178.44052899894064
2.8522717868079117,-71.55947100105936
2.8532649176529006,-331.55947100105936
2.8542580484978894,-510.55947100105936
2.8552511793428783,-512.5594710010594
2.856244310187867,-512.5594710010594
2.857237441032856,-512.5594710010594
2.858230571877845,-379.55947100105936
2.8592237027228338,-69.55947100105936
2.860216833567822,191.44052899894064
2.861209964412811,426.44052899894064
2.8622030952578,466.44052899894064
2.863196226102789,410.44052899894064
2.8641893569477777,307.44052899894064
2.8651824877927665,243.44052899894064
2.8661756186377554,148.44052899894064
2.8671687494827442,57.440528998940636
2.868161880327733,58.440528998940636
2.869155011172722,228.44052899894064
2.870148142017711,332.44052899894064
2.8711412728626997,176.44052899894064
2.872134403707688,-68.55947100105936
2.873127534552677,-327.55947100105936
2.874120665397666,-506.55947100105936
2.8751137962426547,-512.5594710010594
2.8761069270876436,-512.5594710010594
2.8771000579326325,-512.5594710010594
2.8780931887776213,-385.55947100105936
2.87908631962261,-71.55947100105936
2.880079450467599,186.44052899894064
2.881072581312588,423.44052899894064
2.882065712157577,469.44052899894064
2.8830588430025657,409.44052899894064
2.884051973847554,306.44052899894064
2.885045104692543,242.44052899894064
2.886038235537532,148.44052899894064
2.8870313663825207,59.440528998940636
2.8880244972275095,61.440528998940636
2.8890176280724984,225.44052899894064
2.8900107589174873,330.44052899894064
2.891003889762476,171.44052899894064
2.891997020607465,-72.55947100105936
2.892990151452454,-327.55947100105936
2.8939832822974427,-504.55947100105936
2.894976413142431,-512.5594710010594
2.89596954398742,-512.5594710010594
2.896962674832409,-512.5594710010594
2.8979558056773977,-385.55947100105936
2.8989489365223866,-67.55947100105936
2.8999420673673755,189.44052899894064
2.9009351982123643,426.44052899894064
2.901928329057353,467.44052899894064
2.902921459902342,402.44052899894064
2.903914590747331,302.44052899894064
2.90490772159232,243.44052899894064
2.9059008524373087,151.44052899894064
2.906893983282297,59.440528998940636
2.907887114127286,62.440528998940636
2.908880244972275,226.44052899894064
2.9098733758172637,335.44052899894064
2.9108665066622526,185.44052899894064
2.9118596375072414,-60.559471001059364
2.9128527683522303,-321.55947100105936
2.913845899197219,-506.55947100105936
2.914839030042208,-512.5594710010594
2.915832160887197,-512.5594710010594
2.9168252917321857,-512.5594710010594
2.9178184225771746,-394.55947100105936
2.918811553422163,-80.55947100105936
2.919804684267152,184.44052899894064
2.9207978151121408,421.44052899894064
2.9217909459571296,462.44052899894064
2.9227840768021185,402.44052899894064
2.9237772076471074,301.44052899894064
2.9247703384920962,237.44052899894064
2.925763469337085,148.44052899894064
2.926756600182074,57.440528998940636
2.927749731027063,61.440528998940636
2.9287428618720517,223.44052899894064
2.92973599271704,335.44052899894064
2.930729123562029,192.44052899894064
2.931722254407018,-50.559471001059364
2.9327153852520067,-316.55947100105936
2.9337085160969956,-502.55947100105936
2.9347016469419844,-512.5594710010594
2.9356947777869733,-512.5594710010594
2.936687908631962,-512.5594710010594
2.937681039476951,-390.55947100105936
2.93867417032194,-78.55947100105936
2.9396673011669288,182.44052899894064
2.9406604320119176,417.44052899894064
2.941653562856906,458.44052899894064
2.942646693701895,400.44052899894064
2.9436398245468838,297.44052899894064
2.9446329553918726,234.44052899894064
2.9456260862368615,142.44052899894064
2.9466192170818504,53.440528998940636
2.9476123479268392,57.440528998940636
2.948605478771828,228.44052899894064
2.949598609616817,336.44052899894064
2.950591740461806,186.44052899894064
2.9515848713067947,-49.559471001059364
2.9525780021517836,-313.55947100105936
2.953571132996772,-501.55947100105936
2.954564263841761,-512.5594710010594
2.9555573946867497,-512.5594710010594
2.9565505255317386,-512.5594710010594
2.9575436563767274,-397.55947100105936
2.9585367872217163,-76.55947100105936
2.959529918066705,191.44052899894064
2.960523048911694,429.44052899894064
2.961516179756683,463.44052899894064
2.9625093106016718,405.44052899894064
2.9635024414466606,300.44052899894064
2.964495572291649,239.44052899894064
2.965488703136638,144.44052899894064
2.966481833981627,50.440528998940636
2.9674749648266157,53.440528998940636
2.9684680956716045,229.44052899894064
2.9694612265165934,346.44052899894064
2.9704543573615823,194.44052899894064
2.971447488206571,-54.559471001059364
2.97244061905156,-317.55947100105936
2.973433749896549,-501.55947100105936
2.9744268807415377,-512.5594710010594
2.9754200115865266,-512.5594710010594
2.976413142431515,-512.5594710010594
2.977406273276504,-398.55947100105936
2.9783994041214927,-81.55947100105936
2.9793925349664816,184.44052899894064
2.9803856658114705,423.44052899894064
2.9813787966564593,465.44052899894064
2.982371927501448,407.44052899894064
2.983365058346437,307.44052899894064
2.984358189191426,240.44052899894064
2.985351320036415,147.44052899894064
2.9863444508814037,55.440528998940636
2.9873375817263925,59.440528998940636
2.988330712571381,229.44052899894064
2.98932384341637,343.44052899894064
2.9903169742613587,191.44052899894064
2.9913101051063475,-55.559471001059364
2.9923032359513364,-316.55947100105936
2.9932963667963253,-502.55947100105936
2.994289497641314,-512.5594710010594
2.995282628486303,-512.5594710010594
2.996275759331292,-512.5594710010594
2.9972688901762807,-402.55947100105936
2.9982620210212696,-83.55947100105936
2.999255151866258,184.44052899894064
3.000248282711247,428.44052899894064
3.0012414135562357,467.44052899894064
3.0022345444012246,408.44052899894064
3.0032276752462135,310.44052899894064
3.0042208060912023,241.44052899894064
3.005213936936191,147.44052899894064
3.00620706778118,55.440528998940636
3.007200198626169,57.440528998940636
3.008193329471158,224.44052899894064
3.0091864603161467,340.44052899894064
3.0101795911611355,195.44052899894064
3.011172722006124,-48.559471001059364
3.012165852851113,-314.55947100105936
3.0131589836961017,-505.55947100105936
3.0141521145410906,-512.5594710010594
3.0151452453860794,-512.5594710010594
3.0161383762310683,-512.5594710010594
3.017131507076057,-402.55947100105936
3.018124637921046,-80.55947100105936
3.019117768766035,185.44052899894064
3.0201108996110237,428.44052899894064
3.0211040304560126,472.44052899894064
3.022097161301001,408.44052899894064
3.02309029214599,305.44052899894064
3.0240834229909788,240.44052899894064
3.0250765538359676,148.44052899894064
3.0260696846809565,56.440528998940636
3.0270628155259454,60.440528998940636
3.0280559463709342,231.44052899894064
3.029049077215923,345.44052899894064
3.030042208060912,200.44052899894064
3.031035338905901,-47.559471001059364
3.0320284697508897,-313.55947100105936
3.0330216005958786,-506.55947100105936
3.034014731440867,-512.5594710010594
3.035007862285856,-512.5594710010594
3.0360009931308447,-512.5594710010594
3.0369941239758336,-408.55947100105936
3.0379872548208224,-89.55947100105936
3.0389803856658113,183.44052899894064
3.0399735165108,427.44052899894064
3.040966647355789,476.44052899894064
3.041959778200778,413.44052899894064
3.0429529090457668,313.44052899894064
3.0439460398907556,247.44052899894064
3.0449391707357445,152.44052899894064
3.045932301580733,57.440528998940636
3.046925432425722,61.440528998940636
3.0479185632707106,230.44052899894064
3.0489116941156995,346.44052899894064
3.0499048249606884,197.44052899894064
3.0508979558056772,-55.559471001059364
3.051891086650666,-322.55947100105936
3.052884217495655,-509.55947100105936
3.053877348340644,-512.5594710010594
3.0548704791856327,-512.5594710010594
3.0558636100306216,-512.5594710010594
3.05685674087561,-410.55947100105936
3.057849871720599,-86.55947100105936
3.0588430025655877,181.44052899894064
3.0598361334105766,431.44052899894064
3.0608292642555655,477.44052899894064
3.0618223951005543,421.44052899894064
3.062815525945543,320.44052899894064
3.063808656790532,250.44052899894064
3.064801787635521,157.44052899894064
3.06579491848051,63.440528998940636
3.0667880493254986,62.440528998940636
3.0677811801704875,230.44052899894064
3.068774311015476,345.44052899894064
3.069767441860465,197.44052899894064
3.0707605727054537,-53.559471001059364
3.0717537035504425,-327.55947100105936
3.0727468343954314,-512.5594710010594
3.0737399652404203,-512.5594710010594
3.074733096085409,-512.5594710010594
3.075726226930398,-512.5594710010594
3.076719357775387,-417.55947100105936
3.0777124886203757,-89.55947100105936
3.0787056194653646,182.44052899894064
3.0796987503103535,437.44052899894064
3.080691881155342,485.44052899894064
3.0816850120003307,427.44052899894064
3.0826781428453196,328.44052899894064
3.0836712736903085,262.44052899894064
3.0846644045352973,170.44052899894064
3.085657535380286,73.44052899894064
3.086650666225275,67.44052899894064
3.087643797070264,228.44052899894064
3.088636927915253,339.44052899894064
3.0896300587602417,191.44052899894064
3.0906231896052305,-63.559471001059364
3.091616320450219,-334.55947100105936
3.092609451295208,-512.5594710010594
3.0936025821401967,-512.5594710010594
3.0945957129851855,-512.5594710010594
3.0955888438301744,-512.5594710010594
3.0965819746751633,-423.55947100105936
3.097575105520152,-89.55947100105936
3.098568236365141,190.44052899894064
3.09956136721013,443.44052899894064
3.1005544980551187,495.44052899894064
3.1015476289001076,435.44052899894064
3.1025407597450965,335.44052899894064
3.103533890590085,267.44052899894064
3.1045270214350738,175.44052899894064
3.1055201522800626,78.44052899894064
3.1065132831250515,70.44052899894064
3.1075064139700403,234.44052899894064
3.108499544815029,343.44052899894064
3.109492675660018,190.44052899894064
3.110485806505007,-67.55947100105936
3.111478937349996,-341.55947100105936
3.1124720681949847,-512.5594710010594
3.1134651990399735,-512.5594710010594
3.114458329884962,-512.5594710010594
3.115451460729951,-512.5594710010594
3.1164445915749397,-421.55947100105936
3.1174377224199286,-87.55947100105936
3.1184308532649174,186.44052899894064
3.1194239841099063,450.44052899894064
3.120417114954895,506.44052899894064
3.121410245799884,446.44052899894064
3.122403376644873,344.44052899894064
3.1233965074898618,279.44052899894064
3.1243896383348506,177.44052899894064
3.1253827691798395,82.44052899894064
3.126375900024828,70.44052899894064
3.1273690308698168,228.44052899894064
3.1283621617148056,341.44052899894064
3.1293552925597945,194.44052899894064
3.1303484234047834,-64.55947100105936
3.1313415542497722,-341.55947100105936
3.132334685094761,-512.5594710010594
3.13332781593975,-512.5594710010594
3.134320946784739,-512.5594710010594
3.1353140776297277,-512.5594710010594
