Time,EMG
0.0,1.0768552412645818
0.0009983527180152747,-3.9231447587354182
0.0019967054360305494,-0.9231447587354182
0.002995058154045824,10.076855241264582
0.003993410872061099,14.076855241264582
0.004991763590076374,14.076855241264582
0.005990116308091648,15.076855241264582
0.006988469026106923,17.07685524126458
0.007986821744122198,10.076855241264582
0.008985174462137473,6.076855241264582
0.009983527180152748,3.0768552412645818
0.010981879898168023,6.076855241264582
0.011980232616183296,4.076855241264582
0.01297858533419857,-9.923144758735418
0.013976938052213846,-18.92314475873542
0.01497529077022912,-13.923144758735418
0.015973643488244395,-19.92314475873542
0.01697199620625967,-18.92314475873542
0.017970348924274945,-12.923144758735418
0.01896870164229022,-6.923144758735418
0.019967054360305495,1.0768552412645818
0.02096540707832077,-1.9231447587354182
0.021963759796336045,1.0768552412645818
0.02296211251435132,10.076855241264582
0.02396046523236659,15.076855241264582
0.024958817950381868,14.076855241264582
0.02595717066839714,14.076855241264582
0.026955523386412418,12.076855241264582
0.02795387610442769,9.076855241264582
0.028952228822442968,3.0768552412645818
0.02995058154045824,4.076855241264582
0.030948934258473518,10.076855241264582
0.03194728697648879,3.0768552412645818
0.032945639694504064,-9.923144758735418
0.03394399241251934,-14.923144758735418
0.03494234513053462,-15.923144758735418
0.03594069784854989,-17.92314475873542
0.036939050566565164,-18.92314475873542
0.03793740328458044,-12.923144758735418
0.03893575600259572,-5.923144758735418
0.03993410872061099,2.0768552412645818
0.040932461438626264,0.07685524126458176
0.04193081415664154,1.0768552412645818
0.04292916687465681,9.076855241264582
0.04392751959267209,13.076855241264582
0.04492587231068736,14.076855241264582
0.04592422502870264,17.07685524126458
0.04692257774671791,13.076855241264582
0.04792093046473318,10.076855241264582
0.04891928318274846,7.076855241264582
0.049917635900763736,4.076855241264582
0.05091598861877901,8.076855241264582
0.05191434133679428,0.07685524126458176
0.05291269405480956,-10.923144758735418
0.053911046772824836,-16.92314475873542
0.05490939949084011,-13.923144758735418
0.05590775220885538,-19.92314475873542
0.056906104926870656,-18.92314475873542
0.057904457644885936,-12.923144758735418
0.05890281036290121,-4.923144758735418
0.05990116308091648,1.0768552412645818
0.060899515798931755,0.07685524126458176
0.061897868516947036,2.0768552412645818
0.0628962212349623,11.076855241264582
0.06389457395297758,13.076855241264582
0.06489292667099286,13.076855241264582
0.06589127938900813,15.076855241264582
0.06688963210702341,12.076855241264582
0.06788798482503867,8.076855241264582
0.06888633754305395,8.076855241264582
0.06988469026106923,3.0768552412645818
0.0708830429790845,8.076855241264582
0.07188139569709978,1.0768552412645818
0.07287974841511505,-9.923144758735418
0.07387810113313033,-15.923144758735418
0.07487645385114561,-15.923144758735418
0.07587480656916087,-19.92314475873542
0.07687315928717615,-15.923144758735418
0.07787151200519143,-12.923144758735418
0.0788698647232067,-6.923144758735418
0.07986821744122198,1.0768552412645818
0.08086657015923725,-1.9231447587354182
0.08186492287725253,3.0768552412645818
0.08286327559526781,11.076855241264582
0.08386162831328307,15.076855241264582
0.08485998103129835,12.076855241264582
0.08585833374931362,15.076855241264582
0.0868566864673289,14.076855241264582
0.08785503918534418,9.076855241264582
0.08885339190335945,3.0768552412645818
0.08985174462137473,5.076855241264582
0.09085009733938999,8.076855241264582
0.09184845005740527,2.0768552412645818
0.09284680277542055,-9.923144758735418
0.09384515549343582,-18.92314475873542
0.0948435082114511,-16.92314475873542
0.09584186092946637,-15.923144758735418
0.09684021364748165,-15.923144758735418
0.09783856636549693,-12.923144758735418
0.09883691908351219,-4.923144758735418
0.09983527180152747,4.076855241264582
0.10083362451954275,0.07685524126458176
0.10183197723755802,-0.9231447587354182
0.1028303299555733,11.076855241264582
0.10382868267358857,14.076855241264582
0.10482703539160385,12.076855241264582
0.10582538810961913,15.076855241264582
0.10682374082763439,11.076855241264582
0.10782209354564967,9.076855241264582
0.10882044626366494,6.076855241264582
0.10981879898168022,6.076855241264582
0.1108171516996955,7.076855241264582
0.11181550441771076,-0.9231447587354182
0.11281385713572605,-9.923144758735418
0.11381220985374131,-16.92314475873542
0.11481056257175659,-14.923144758735418
0.11580891528977187,-17.92314475873542
0.11680726800778714,-18.92314475873542
0.11780562072580242,-12.923144758735418
0.1188039734438177,-5.923144758735418
0.11980232616183296,1.0768552412645818
0.12080067887984824,-1.9231447587354182
0.12179903159786351,1.0768552412645818
0.12279738431587879,12.076855241264582
0.12379573703389407,16.07685524126458
0.12479408975190934,15.076855241264582
0.1257924424699246,16.07685524126458
0.1267907951879399,13.076855241264582
0.12778914790595516,9.076855241264582
0.12878750062397043,5.076855241264582
0.12978585334198572,3.0768552412645818
0.130784206060001,4.076855241264582
0.13178255877801626,2.0768552412645818
0.13278091149603155,-9.923144758735418
0.13377926421404682,-19.92314475873542
0.13477761693206208,-15.923144758735418
0.13577596965007735,-20.92314475873542
0.13677432236809264,-16.92314475873542
0.1377726750861079,-10.923144758735418
0.13877102780412318,-4.923144758735418
0.13976938052213847,1.0768552412645818
0.14076773324015374,-1.9231447587354182
0.141766085958169,3.0768552412645818
0.1427644386761843,12.076855241264582
0.14376279139419956,14.076855241264582
0.14476114411221483,12.076855241264582
0.1457594968302301,13.076855241264582
0.1467578495482454,14.076855241264582
0.14775620226626066,11.076855241264582
0.14875455498427592,5.076855241264582
0.14975290770229122,3.0768552412645818
0.15075126042030648,10.076855241264582
0.15174961313832175,3.0768552412645818
0.15274796585633704,-13.923144758735418
0.1537463185743523,-17.92314475873542
0.15474467129236757,-18.92314475873542
0.15574302401038287,-18.92314475873542
0.15674137672839814,-17.92314475873542
0.1577397294464134,-11.923144758735418
0.15873808216442867,-4.923144758735418
0.15973643488244396,3.0768552412645818
0.16073478760045923,0.07685524126458176
0.1617331403184745,0.07685524126458176
0.1627314930364898,11.076855241264582
0.16372984575450505,15.076855241264582
0.16472819847252032,14.076855241264582
0.16572655119053561,14.076855241264582
0.16672490390855088,12.076855241264582
0.16772325662656615,8.076855241264582
0.1687216093445814,7.076855241264582
0.1697199620625967,5.076855241264582
0.17071831478061197,6.076855241264582
0.17171666749862724,1.0768552412645818
0.17271502021664253,-8.923144758735418
0.1737133729346578,-15.923144758735418
0.17471172565267307,-14.923144758735418
0.17571007837068836,-20.92314475873542
0.17670843108870363,-17.92314475873542
0.1777067838067189,-11.923144758735418
0.1787051365247342,-4.923144758735418
0.17970348924274945,-1.9231447587354182
0.18070184196076472,-2.9231447587354182
0.18170019467877999,1.0768552412645818
0.18269854739679528,11.076855241264582
0.18369690011481055,16.07685524126458
0.1846952528328258,15.076855241264582
0.1856936055508411,14.076855241264582
0.18669195826885637,14.076855241264582
0.18769031098687164,13.076855241264582
0.18868866370488693,6.076855241264582
0.1896870164229022,0.07685524126458176
0.19068536914091747,4.076855241264582
0.19168372185893273,1.0768552412645818
0.19268207457694803,-7.923144758735418
0.1936804272949633,-14.923144758735418
0.19467878001297856,-15.923144758735418
0.19567713273099385,-18.92314475873542
0.19667548544900912,-17.92314475873542
0.19767383816702438,-11.923144758735418
0.19867219088503968,-6.923144758735418
0.19967054360305495,1.0768552412645818
0.2006688963210702,-1.9231447587354182
0.2016672490390855,1.0768552412645818
0.20266560175710077,11.076855241264582
0.20366395447511604,16.07685524126458
0.2046623071931313,15.076855241264582
0.2056606599111466,16.07685524126458
0.20665901262916186,11.076855241264582
0.20765736534717713,9.076855241264582
0.20865571806519242,4.076855241264582
0.2096540707832077,5.076855241264582
0.21065242350122296,8.076855241264582
0.21165077621923825,0.07685524126458176
0.21264912893725352,-11.923144758735418
0.21364748165526878,-15.923144758735418
0.21464583437328408,-13.923144758735418
0.21564418709129934,-17.92314475873542
0.2166425398093146,-19.92314475873542
0.21764089252732988,-14.923144758735418
0.21863924524534517,-3.9231447587354182
0.21963759796336044,4.076855241264582
0.2206359506813757,0.07685524126458176
0.221634303399391,-0.9231447587354182
0.22263265611740626,9.076855241264582
0.22363100883542153,12.076855241264582
0.22462936155343682,12.076855241264582
0.2256277142714521,12.076855241264582
0.22662606698946736,14.076855241264582
0.22762441970748262,11.076855241264582
0.22862277242549792,8.076855241264582
0.22962112514351318,2.0768552412645818
0.23061947786152845,7.076855241264582
0.23161783057954374,-1.9231447587354182
0.232616183297559,-9.923144758735418
0.23361453601557428,-14.923144758735418
0.23461288873358957,-14.923144758735418
0.23561124145160484,-19.92314475873542
0.2366095941696201,-18.92314475873542
0.2376079468876354,-8.923144758735418
0.23860629960565066,-3.9231447587354182
0.23960465232366593,1.0768552412645818
0.2406030050416812,-3.9231447587354182
0.2416013577596965,0.07685524126458176
0.24259971047771176,14.076855241264582
0.24359806319572702,15.076855241264582
0.24459641591374232,14.076855241264582
0.24559476863175758,17.07685524126458
0.24659312134977285,14.076855241264582
0.24759147406778814,11.076855241264582
0.2485898267858034,5.076855241264582
0.24958817950381867,3.0768552412645818
0.25058653222183397,4.076855241264582
0.2515848849398492,1.0768552412645818
0.2525832376578645,-7.923144758735418
0.2535815903758798,-14.923144758735418
0.25457994309389503,-15.923144758735418
0.2555782958119103,-19.92314475873542
0.2565766485299256,-17.92314475873542
0.25757500124794086,-12.923144758735418
0.25857335396595615,-5.923144758735418
0.25957170668397145,1.0768552412645818
0.2605700594019867,-1.9231447587354182
0.261568412120002,2.0768552412645818
0.2625667648380173,11.076855241264582
0.2635651175560325,15.076855241264582
0.2645634702740478,12.076855241264582
0.2655618229920631,14.076855241264582
0.26656017571007834,16.07685524126458
0.26755852842809363,9.076855241264582
0.2685568811461089,3.0768552412645818
0.26955523386412417,4.076855241264582
0.27055358658213946,9.076855241264582
0.2715519393001547,3.0768552412645818
0.27255029201817,-11.923144758735418
0.2735486447361853,-19.92314475873542
0.2745469974542005,-16.92314475873542
0.2755453501722158,-17.92314475873542
0.2765437028902311,-17.92314475873542
0.27754205560824635,-13.923144758735418
0.27854040832626165,-2.9231447587354182
0.27953876104427694,2.0768552412645818
0.2805371137622922,-1.9231447587354182
0.2815354664803075,1.0768552412645818
0.28253381919832277,12.076855241264582
0.283532171916338,14.076855241264582
0.2845305246343533,15.076855241264582
0.2855288773523686,13.076855241264582
0.28652723007038383,11.076855241264582
0.2875255827883991,8.076855241264582
0.2885239355064144,5.076855241264582
0.28952228822442966,4.076855241264582
0.29052064094244495,5.076855241264582
0.2915189936604602,1.0768552412645818
0.2925173463784755,-9.923144758735418
0.2935156990964908,-15.923144758735418
0.294514051814506,-13.923144758735418
0.2955124045325213,-17.92314475873542
0.2965107572505366,-16.92314475873542
0.29750910996855184,-11.923144758735418
0.29850746268656714,-5.923144758735418
0.29950581540458243,1.0768552412645818
0.30050416812259767,-1.9231447587354182
0.30150252084061296,-0.9231447587354182
0.30250087355862826,13.076855241264582
0.3034992262766435,16.07685524126458
0.3044975789946588,14.076855241264582
0.3054959317126741,16.07685524126458
0.3064942844306893,15.076855241264582
0.3074926371487046,9.076855241264582
0.3084909898667199,5.076855241264582
0.30948934258473515,3.0768552412645818
0.31048769530275044,5.076855241264582
0.31148604802076574,4.076855241264582
0.312484400738781,-9.923144758735418
0.31348275345679627,-16.92314475873542
0.3144811061748115,-12.923144758735418
0.3154794588928268,-17.92314475873542
0.3164778116108421,-16.92314475873542
0.31747616432885734,-13.923144758735418
0.31847451704687263,-7.923144758735418
0.3194728697648879,0.07685524126458176
0.32047122248290316,-2.9231447587354182
0.32146957520091846,1.0768552412645818
0.32246792791893375,9.076855241264582
0.323466280636949,16.07685524126458
0.3244646333549643,15.076855241264582
0.3254629860729796,15.076855241264582
0.3264613387909948,14.076855241264582
0.3274596915090101,10.076855241264582
0.3284580442270254,6.076855241264582
0.32945639694504064,4.076855241264582
0.33045474966305594,9.076855241264582
0.33145310238107123,-0.9231447587354182
0.33245145509908647,-12.923144758735418
0.33344980781710176,-19.92314475873542
0.33444816053511706,-17.92314475873542
0.3354465132531323,-20.92314475873542
0.3364448659711476,-17.92314475873542
0.3374432186891628,-9.923144758735418
0.3384415714071781,-4.923144758735418
0.3394399241251934,4.076855241264582
0.34043827684320865,0.07685524126458176
0.34143662956122395,0.07685524126458176
0.34243498227923924,11.076855241264582
0.3434333349972545,12.076855241264582
0.3444316877152698,16.07685524126458
0.34543004043328507,14.076855241264582
0.3464283931513003,14.076855241264582
0.3474267458693156,9.076855241264582
0.3484250985873309,4.076855241264582
0.34942345130534613,4.076855241264582
0.3504218040233614,5.076855241264582
0.3514201567413767,-0.9231447587354182
0.35241850945939196,-10.923144758735418
0.35341686217740725,-15.923144758735418
0.35441521489542255,-15.923144758735418
0.3554135676134378,-18.92314475873542
0.3564119203314531,-18.92314475873542
0.3574102730494684,-12.923144758735418
0.3584086257674836,-2.9231447587354182
0.3594069784854989,2.0768552412645818
0.36040533120351415,-5.923144758735418
0.36140368392152944,1.0768552412645818
0.36240203663954473,11.076855241264582
0.36340038935755997,16.07685524126458
0.36439874207557527,16.07685524126458
0.36539709479359056,14.076855241264582
0.3663954475116058,14.076855241264582
0.3673938002296211,10.076855241264582
0.3683921529476364,6.076855241264582
0.3693905056656516,3.0768552412645818
0.3703888583836669,7.076855241264582
0.3713872111016822,1.0768552412645818
0.37238556381969745,-9.923144758735418
0.37338391653771275,-17.92314475873542
0.37438226925572804,-17.92314475873542
0.3753806219737433,-18.92314475873542
0.37637897469175857,-15.923144758735418
0.37737732740977387,-11.923144758735418
0.3783756801277891,-6.923144758735418
0.3793740328458044,5.076855241264582
0.3803723855638197,-0.9231447587354182
0.38137073828183493,2.0768552412645818
0.3823690909998502,8.076855241264582
0.38336744371786546,14.076855241264582
0.38436579643588076,16.07685524126458
0.38536414915389605,14.076855241264582
0.3863625018719113,14.076855241264582
0.3873608545899266,8.076855241264582
0.3883592073079419,4.076855241264582
0.3893575600259571,5.076855241264582
0.3903559127439724,6.076855241264582
0.3913542654619877,1.0768552412645818
0.39235261818000294,-10.923144758735418
0.39335097089801824,-17.92314475873542
0.39434932361603353,-17.92314475873542
0.39534767633404877,-16.92314475873542
0.39634602905206406,-18.92314475873542
0.39734438177007936,-12.923144758735418
0.3983427344880946,-3.9231447587354182
0.3993410872061099,2.0768552412645818
0.4003394399241252,-0.9231447587354182
0.4013377926421404,0.07685524126458176
0.4023361453601557,8.076855241264582
0.403334498078171,14.076855241264582
0.40433285079618625,13.076855241264582
0.40533120351420154,15.076855241264582
0.40632955623221684,13.076855241264582
0.4073279089502321,12.076855241264582
0.40832626166824737,9.076855241264582
0.4093246143862626,3.0768552412645818
0.4103229671042779,5.076855241264582
0.4113213198222932,0.07685524126458176
0.41231967254030844,-10.923144758735418
0.41331802525832373,-16.92314475873542
0.414316377976339,-15.923144758735418
0.41531473069435426,-15.923144758735418
0.41631308341236956,-15.923144758735418
0.41731143613038485,-9.923144758735418
0.4183097888484001,-3.9231447587354182
0.4193081415664154,0.07685524126458176
0.4203064942844307,-5.923144758735418
0.4213048470024459,1.0768552412645818
0.4223031997204612,12.076855241264582
0.4233015524384765,16.07685524126458
0.42429990515649174,15.076855241264582
0.42529825787450704,14.076855241264582
0.42629661059252233,13.076855241264582
0.42729496331053757,9.076855241264582
0.42829331602855286,8.076855241264582
0.42929166874656816,2.0768552412645818
0.4302900214645834,7.076855241264582
0.4312883741825987,2.0768552412645818
0.4322867269006139,-11.923144758735418
0.4332850796186292,-15.923144758735418
0.4342834323366445,-14.923144758735418
0.43528178505465975,-18.92314475873542
0.43628013777267505,-17.92314475873542
0.43727849049069034,-11.923144758735418
0.4382768432087056,-4.923144758735418
0.4392751959267209,1.0768552412645818
0.44027354864473617,-2.9231447587354182
0.4412719013627514,4.076855241264582
0.4422702540807667,9.076855241264582
0.443268606798782,16.07685524126458
0.44426695951679723,13.076855241264582
0.4452653122348125,14.076855241264582
0.4462636649528278,14.076855241264582
0.44726201767084306,8.076855241264582
0.44826037038885835,2.0768552412645818
0.44925872310687365,3.0768552412645818
0.4502570758248889,8.076855241264582
0.4512554285429042,1.0768552412645818
0.4522537812609195,-10.923144758735418
0.4532521339789347,-17.92314475873542
0.45425048669695,-16.92314475873542
0.45524883941496525,-17.92314475873542
0.45624719213298054,-19.92314475873542
0.45724554485099583,-14.923144758735418
0.45824389756901107,-2.9231447587354182
0.45924225028702637,5.076855241264582
0.46024060300504166,0.07685524126458176
0.4612389557230569,1.0768552412645818
0.4622373084410722,11.076855241264582
0.4632356611590875,14.076855241264582
0.4642340138771027,14.076855241264582
0.465232366595118,15.076855241264582
0.4662307193131333,12.076855241264582
0.46722907203114855,9.076855241264582
0.46822742474916385,6.076855241264582
0.46922577746717914,5.076855241264582
0.4702241301851944,3.0768552412645818
0.47122248290320967,1.0768552412645818
0.47222083562122497,-11.923144758735418
0.4732191883392402,-16.92314475873542
0.4742175410572555,-14.923144758735418
0.4752158937752708,-19.92314475873542
0.47621424649328603,-18.92314475873542
0.4772125992113013,-9.923144758735418
0.47821095192931656,-3.9231447587354182
0.47920930464733186,-0.9231447587354182
0.48020765736534715,-0.9231447587354182
0.4812060100833624,1.0768552412645818
0.4822043628013777,12.076855241264582
0.483202715519393,15.076855241264582
0.4842010682374082,17.07685524126458
0.4851994209554235,13.076855241264582
0.4861977736734388,13.076855241264582
0.48719612639145404,9.076855241264582
0.48819447910946934,5.076855241264582
0.48919283182748463,2.0768552412645818
0.49019118454549987,6.076855241264582
0.49118953726351516,3.0768552412645818
0.49218788998153046,-10.923144758735418
0.4931862426995457,-14.923144758735418
0.494184595417561,-15.923144758735418
0.4951829481355763,-15.923144758735418
0.4961813008535915,-15.923144758735418
0.4971796535716068,-11.923144758735418
0.4981780062896221,-3.9231447587354182
0.49917635900763735,0.07685524126458176
0.5001747117256526,0.07685524126458176
0.5011730644436679,3.0768552412645818
0.5021714171616832,9.076855241264582
0.5031697698796984,14.076855241264582
0.5041681225977137,12.076855241264582
0.505166475315729,15.076855241264582
0.5061648280337443,13.076855241264582
0.5071631807517596,9.076855241264582
0.5081615334697749,6.076855241264582
0.5091598861877901,5.076855241264582
0.5101582389058054,9.076855241264582
0.5111565916238207,3.0768552412645818
0.512154944341836,-13.923144758735418
0.5131532970598512,-16.92314475873542
0.5141516497778664,-17.92314475873542
0.5151500024958817,-17.92314475873542
0.516148355213897,-17.92314475873542
0.5171467079319123,-12.923144758735418
0.5181450606499276,-4.923144758735418
0.5191434133679429,4.076855241264582
0.5201417660859581,-0.9231447587354182
0.5211401188039734,-1.9231447587354182
0.5221384715219887,8.076855241264582
0.523136824240004,16.07685524126458
0.5241351769580193,15.076855241264582
0.5251335296760345,17.07685524126458
0.5261318823940497,13.076855241264582
0.527130235112065,11.076855241264582
0.5281285878300803,4.076855241264582
0.5291269405480956,3.0768552412645818
0.5301252932661109,5.076855241264582
0.5311236459841262,-1.9231447587354182
0.5321219987021414,-9.923144758735418
0.5331203514201567,-12.923144758735418
0.534118704138172,-12.923144758735418
0.5351170568561873,-19.92314475873542
0.5361154095742026,-17.92314475873542
0.5371137622922177,-12.923144758735418
0.538112115010233,-3.9231447587354182
0.5391104677282483,1.0768552412645818
0.5401088204462636,-2.9231447587354182
0.5411071731642789,0.07685524126458176
0.5421055258822942,11.076855241264582
0.5431038786003094,14.076855241264582
0.5441022313183247,14.076855241264582
0.54510058403634,12.076855241264582
0.5460989367543553,15.076855241264582
0.5470972894723706,10.076855241264582
0.5480956421903859,4.076855241264582
0.549093994908401,4.076855241264582
0.5500923476264163,8.076855241264582
0.5510907003444316,1.0768552412645818
0.5520890530624469,-7.923144758735418
0.5530874057804622,-15.923144758735418
0.5540857584984775,-16.92314475873542
0.5550841112164927,-19.92314475873542
0.556082463934508,-18.92314475873542
0.5570808166525233,-10.923144758735418
0.5580791693705386,-4.923144758735418
0.5590775220885539,1.0768552412645818
0.5600758748065691,-2.9231447587354182
0.5610742275245844,3.0768552412645818
0.5620725802425997,11.076855241264582
0.563070932960615,14.076855241264582
0.5640692856786302,14.076855241264582
0.5650676383966455,15.076855241264582
0.5660659911146607,14.076855241264582
0.567064343832676,8.076855241264582
0.5680626965506913,3.0768552412645818
0.5690610492687066,4.076855241264582
0.5700594019867219,10.076855241264582
0.5710577547047372,1.0768552412645818
0.5720561074227524,-9.923144758735418
0.5730544601407677,-18.92314475873542
0.574052812858783,-15.923144758735418
0.5750511655767983,-19.92314475873542
0.5760495182948135,-18.92314475873542
0.5770478710128288,-12.923144758735418
0.578046223730844,-5.923144758735418
0.5790445764488593,4.076855241264582
0.5800429291668746,-0.9231447587354182
0.5810412818848899,0.07685524126458176
0.5820396346029052,12.076855241264582
0.5830379873209204,16.07685524126458
0.5840363400389357,15.076855241264582
0.585034692756951,13.076855241264582
0.5860330454749663,12.076855241264582
0.5870313981929816,9.076855241264582
0.5880297509109969,6.076855241264582
0.589028103629012,4.076855241264582
0.5900264563470273,6.076855241264582
0.5910248090650426,-2.9231447587354182
0.5920231617830579,-10.923144758735418
0.5930215145010732,-17.92314475873542
0.5940198672190885,-14.923144758735418
0.5950182199371037,-18.92314475873542
0.596016572655119,-16.92314475873542
0.5970149253731343,-10.923144758735418
0.5980132780911496,-5.923144758735418
0.5990116308091649,0.07685524126458176
0.6000099835271802,-2.9231447587354182
0.6010083362451953,3.0768552412645818
0.6020066889632106,11.076855241264582
0.6030050416812259,14.076855241264582
0.6040033943992412,14.076855241264582
0.6050017471172565,14.076855241264582
0.6060000998352717,14.076855241264582
0.606998452553287,10.076855241264582
0.6079968052713023,5.076855241264582
0.6089951579893176,2.0768552412645818
0.6099935107073329,6.076855241264582
0.6109918634253482,2.0768552412645818
0.6119902161433634,-9.923144758735418
0.6129885688613786,-15.923144758735418
0.6139869215793939,-16.92314475873542
0.6149852742974092,-18.92314475873542
0.6159836270154245,-15.923144758735418
0.6169819797334398,-11.923144758735418
0.617980332451455,-6.923144758735418
0.6189786851694703,1.0768552412645818
0.6199770378874856,-1.9231447587354182
0.6209753906055009,4.076855241264582
0.6219737433235162,10.076855241264582
0.6229720960415315,14.076855241264582
0.6239704487595467,12.076855241264582
0.624968801477562,16.07685524126458
0.6259671541955772,14.076855241264582
0.6269655069135925,11.076855241264582
0.6279638596316078,4.076855241264582
0.628962212349623,6.076855241264582
0.6299605650676383,7.076855241264582
0.6309589177856536,3.0768552412645818
0.6319572705036689,-12.923144758735418
0.6329556232216842,-17.92314475873542
0.6339539759396995,-16.92314475873542
0.6349523286577147,-17.92314475873542
0.63595068137573,-16.92314475873542
0.6369490340937453,-14.923144758735418
0.6379473868117606,-2.9231447587354182
0.6389457395297758,3.0768552412645818
0.6399440922477911,-0.9231447587354182
0.6409424449658063,0.07685524126458176
0.6419407976838216,11.076855241264582
0.6429391504018369,16.07685524126458
0.6439375031198522,14.076855241264582
0.6449358558378675,14.076855241264582
0.6459342085558828,13.076855241264582
0.646932561273898,8.076855241264582
0.6479309139919133,6.076855241264582
0.6489292667099286,3.0768552412645818
0.6499276194279439,8.076855241264582
0.6509259721459592,0.07685524126458176
0.6519243248639743,-10.923144758735418
0.6529226775819896,-18.92314475873542
0.6539210303000049,-12.923144758735418
0.6549193830180202,-19.92314475873542
0.6559177357360355,-17.92314475873542
0.6569160884540508,-10.923144758735418
0.657914441172066,-3.9231447587354182
0.6589127938900813,1.0768552412645818
0.6599111466080966,-2.9231447587354182
0.6609094993261119,2.0768552412645818
0.6619078520441272,11.076855241264582
0.6629062047621425,17.07685524126458
0.6639045574801576,16.07685524126458
0.6649029101981729,11.076855241264582
0.6659012629161882,12.076855241264582
0.6668996156342035,8.076855241264582
0.6678979683522188,4.076855241264582
0.6688963210702341,2.0768552412645818
0.6698946737882493,6.076855241264582
0.6708930265062646,1.0768552412645818
0.6718913792242799,-9.923144758735418
0.6728897319422952,-15.923144758735418
0.6738880846603105,-15.923144758735418
0.6748864373783257,-17.92314475873542
0.675884790096341,-15.923144758735418
0.6768831428143562,-10.923144758735418
0.6778814955323715,-4.923144758735418
0.6788798482503868,3.0768552412645818
0.6798782009684021,-1.9231447587354182
0.6808765536864173,2.0768552412645818
0.6818749064044326,12.076855241264582
0.6828732591224479,14.076855241264582
0.6838716118404632,14.076855241264582
0.6848699645584785,15.076855241264582
0.6858683172764938,12.076855241264582
0.686866669994509,8.076855241264582
0.6878650227125243,5.076855241264582
0.6888633754305395,5.076855241264582
0.6898617281485548,6.076855241264582
0.6908600808665701,1.0768552412645818
0.6918584335845854,-11.923144758735418
0.6928567863026006,-16.92314475873542
0.6938551390206159,-16.92314475873542
0.6948534917386312,-19.92314475873542
0.6958518444566465,-17.92314475873542
0.6968501971746618,-13.923144758735418
0.697848549892677,-3.9231447587354182
0.6988469026106923,1.0768552412645818
0.6998452553287076,-0.9231447587354182
0.7008436080467229,3.0768552412645818
0.7018419607647381,12.076855241264582
0.7028403134827534,18.07685524126458
0.7038386662007686,14.076855241264582
0.7048370189187839,15.076855241264582
0.7058353716367992,11.076855241264582
0.7068337243548145,8.076855241264582
0.7078320770728298,7.076855241264582
0.7088304297908451,4.076855241264582
0.7098287825088603,7.076855241264582
0.7108271352268756,-0.9231447587354182
0.7118254879448909,-11.923144758735418
0.7128238406629062,-15.923144758735418
0.7138221933809215,-13.923144758735418
0.7148205460989367,-18.92314475873542
0.7158188988169519,-16.92314475873542
0.7168172515349672,-9.923144758735418
0.7178156042529825,-3.9231447587354182
0.7188139569709978,2.0768552412645818
0.7198123096890131,-5.923144758735418
0.7208106624070283,1.0768552412645818
0.7218090151250436,11.076855241264582
0.7228073678430589,12.076855241264582
0.7238057205610742,13.076855241264582
0.7248040732790895,12.076855241264582
0.7258024259971048,12.076855241264582
0.7268007787151199,10.076855241264582
0.7277991314331352,6.076855241264582
0.7287974841511505,5.076855241264582
0.7297958368691658,7.076855241264582
0.7307941895871811,3.0768552412645818
0.7317925423051964,-11.923144758735418
0.7327908950232116,-14.923144758735418
0.7337892477412269,-13.923144758735418
0.7347876004592422,-17.92314475873542
0.7357859531772575,-16.92314475873542
0.7367843058952728,-12.923144758735418
0.7377826586132881,-5.923144758735418
0.7387810113313033,0.07685524126458176
0.7397793640493185,-4.923144758735418
0.7407777167673338,3.0768552412645818
0.7417760694853491,13.076855241264582
0.7427744222033644,16.07685524126458
0.7437727749213796,17.07685524126458
0.7447711276393949,14.076855241264582
0.7457694803574102,13.076855241264582
0.7467678330754255,8.076855241264582
0.7477661857934408,5.076855241264582
0.7487645385114561,5.076855241264582
0.7497628912294713,9.076855241264582
0.7507612439474866,0.07685524126458176
0.7517595966655019,-13.923144758735418
0.7527579493835171,-20.92314475873542
0.7537563021015324,-15.923144758735418
0.7547546548195477,-16.92314475873542
0.7557530075375629,-18.92314475873542
0.7567513602555782,-14.923144758735418
0.7577497129735935,-0.9231447587354182
0.7587480656916088,6.076855241264582
0.7597464184096241,-2.9231447587354182
0.7607447711276394,-0.9231447587354182
0.7617431238456546,11.076855241264582
0.7627414765636699,14.076855241264582
0.7637398292816852,14.076855241264582
0.7647381819997005,14.076855241264582
0.7657365347177157,13.076855241264582
0.7667348874357309,12.076855241264582
0.7677332401537462,8.076855241264582
0.7687315928717615,5.076855241264582
0.7697299455897768,6.076855241264582
0.7707282983077921,-0.9231447587354182
0.7717266510258074,-11.923144758735418
0.7727250037438226,-17.92314475873542
0.7737233564618379,-14.923144758735418
0.7747217091798532,-19.92314475873542
0.7757200618978685,-18.92314475873542
0.7767184146158838,-10.923144758735418
0.777716767333899,-3.9231447587354182
0.7787151200519142,1.0768552412645818
0.7797134727699295,-1.9231447587354182
0.7807118254879448,2.0768552412645818
0.7817101782059601,11.076855241264582
0.7827085309239754,14.076855241264582
0.7837068836419907,16.07685524126458
0.7847052363600059,14.076855241264582
0.7857035890780212,12.076855241264582
0.7867019417960365,8.076855241264582
0.7877002945140518,5.076855241264582
0.7886986472320671,3.0768552412645818
0.7896969999500824,6.076855241264582
0.7906953526680975,1.0768552412645818
0.7916937053861128,-11.923144758735418
0.7926920581041281,-17.92314475873542
0.7936904108221434,-17.92314475873542
0.7946887635401587,-18.92314475873542
0.7956871162581739,-14.923144758735418
0.7966854689761892,-10.923144758735418
0.7976838216942045,-6.923144758735418
0.7986821744122198,1.0768552412645818
0.7996805271302351,-1.9231447587354182
0.8006788798482504,4.076855241264582
0.8016772325662656,12.076855241264582
0.8026755852842808,14.076855241264582
0.8036739380022961,15.076855241264582
0.8046722907203114,14.076855241264582
0.8056706434383267,13.076855241264582
0.806668996156342,11.076855241264582
0.8076673488743572,5.076855241264582
0.8086657015923725,4.076855241264582
0.8096640543103878,8.076855241264582
0.8106624070284031,1.0768552412645818
0.8116607597464184,-11.923144758735418
0.8126591124644337,-16.92314475873542
0.8136574651824489,-17.92314475873542
0.8146558179004642,-18.92314475873542
0.8156541706184794,-16.92314475873542
0.8166525233364947,-14.923144758735418
0.81765087605451,-3.9231447587354182
0.8186492287725252,3.0768552412645818
0.8196475814905405,0.07685524126458176
0.8206459342085558,2.0768552412645818
0.8216442869265711,11.076855241264582
0.8226426396445864,13.076855241264582
0.8236409923626017,14.076855241264582
0.8246393450806169,13.076855241264582
0.8256376977986322,11.076855241264582
0.8266360505166475,10.076855241264582
0.8276344032346628,6.076855241264582
0.828632755952678,4.076855241264582
0.8296311086706933,7.076855241264582
0.8306294613887085,-0.9231447587354182
0.8316278141067238,-9.923144758735418
0.8326261668247391,-15.923144758735418
0.8336245195427544,-16.92314475873542
0.8346228722607697,-19.92314475873542
0.835621224978785,-19.92314475873542
0.8366195776968002,-10.923144758735418
0.8376179304148155,-3.9231447587354182
0.8386162831328308,1.0768552412645818
0.8396146358508461,-1.9231447587354182
0.8406129885688614,2.0768552412645818
0.8416113412868765,14.076855241264582
0.8426096940048918,14.076855241264582
0.8436080467229071,15.076855241264582
0.8446063994409224,15.076855241264582
0.8456047521589377,12.076855241264582
0.846603104876953,8.076855241264582
0.8476014575949682,6.076855241264582
0.8485998103129835,0.07685524126458176
0.8495981630309988,5.076855241264582
0.8505965157490141,1.0768552412645818
0.8515948684670294,-10.923144758735418
0.8525932211850447,-14.923144758735418
0.8535915739030598,-15.923144758735418
0.8545899266210751,-18.92314475873542
0.8555882793390904,-17.92314475873542
0.8565866320571057,-10.923144758735418
0.857584984775121,-4.923144758735418
0.8585833374931363,0.07685524126458176
0.8595816902111515,-0.9231447587354182
0.8605800429291668,5.076855241264582
0.8615783956471821,13.076855241264582
0.8625767483651974,15.076855241264582
0.8635751010832127,13.076855241264582
0.8645734538012279,14.076855241264582
0.8655718065192431,13.076855241264582
0.8665701592372584,10.076855241264582
0.8675685119552737,4.076855241264582
0.868566864673289,4.076855241264582
0.8695652173913043,8.076855241264582
0.8705635701093195,-2.9231447587354182
0.8715619228273348,-11.923144758735418
0.8725602755453501,-15.923144758735418
0.8735586282633654,-17.92314475873542
0.8745569809813807,-20.92314475873542
0.875555333699396,-19.92314475873542
0.8765536864174112,-12.923144758735418
0.8775520391354265,-0.9231447587354182
0.8785503918534417,4.076855241264582
0.879548744571457,-0.9231447587354182
0.8805470972894723,-0.9231447587354182
0.8815454500074876,12.076855241264582
0.8825438027255028,18.07685524126458
0.8835421554435181,14.076855241264582
0.8845405081615334,14.076855241264582
0.8855388608795487,15.076855241264582
0.886537213597564,9.076855241264582
0.8875355663155792,5.076855241264582
0.8885339190335945,3.0768552412645818
0.8895322717516098,7.076855241264582
0.890530624469625,-0.9231447587354182
0.8915289771876403,-11.923144758735418
0.8925273299056556,-15.923144758735418
0.8935256826236708,-15.923144758735418
0.8945240353416861,-19.92314475873542
0.8955223880597014,-19.92314475873542
0.8965207407777167,-11.923144758735418
0.897519093495732,-2.9231447587354182
0.8985174462137473,1.0768552412645818
0.8995157989317625,-2.9231447587354182
0.9005141516497778,0.07685524126458176
0.9015125043677931,14.076855241264582
0.9025108570858084,14.076855241264582
0.9035092098038237,16.07685524126458
0.904507562521839,16.07685524126458
0.9055059152398541,14.076855241264582
0.9065042679578694,8.076855241264582
0.9075026206758847,4.076855241264582
0.9085009733939,3.0768552412645818
0.9094993261119153,5.076855241264582
0.9104976788299305,-2.9231447587354182
0.9114960315479458,-9.923144758735418
0.9124943842659611,-14.923144758735418
0.9134927369839764,-14.923144758735418
0.9144910897019917,-18.92314475873542
0.915489442420007,-17.92314475873542
0.9164877951380221,-11.923144758735418
0.9174861478560374,-4.923144758735418
0.9184845005740527,3.0768552412645818
0.919482853292068,-2.9231447587354182
0.9204812060100833,3.0768552412645818
0.9214795587280986,12.076855241264582
0.9224779114461138,16.07685524126458
0.9234762641641291,13.076855241264582
0.9244746168821444,14.076855241264582
0.9254729696001597,13.076855241264582
0.926471322318175,9.076855241264582
0.9274696750361903,4.076855241264582
0.9284680277542054,3.0768552412645818
0.9294663804722207,7.076855241264582
0.930464733190236,1.0768552412645818
0.9314630859082513,-11.923144758735418
0.9324614386262666,-15.923144758735418
0.9334597913442818,-17.92314475873542
0.9344581440622971,-19.92314475873542
0.9354564967803124,-15.923144758735418
0.9364548494983277,-9.923144758735418
0.937453202216343,-3.9231447587354182
0.9384515549343583,2.0768552412645818
0.9394499076523735,-1.9231447587354182
0.9404482603703888,3.0768552412645818
0.941446613088404,14.076855241264582
0.9424449658064193,14.076855241264582
0.9434433185244346,13.076855241264582
0.9444416712424499,14.076855241264582
0.9454400239604651,12.076855241264582
0.9464383766784804,8.076855241264582
0.9474367293964957,4.076855241264582
0.948435082114511,6.076855241264582
0.9494334348325263,6.076855241264582
0.9504317875505416,0.07685524126458176
0.9514301402685568,-10.923144758735418
0.9524284929865721,-16.92314475873542
0.9534268457045874,-15.923144758735418
0.9544251984226026,-17.92314475873542
0.9554235511406179,-15.923144758735418
0.9564219038586331,-12.923144758735418
0.9574202565766484,-4.923144758735418
0.9584186092946637,2.0768552412645818
0.959416962012679,-1.9231447587354182
0.9604153147306943,1.0768552412645818
0.9614136674487096,13.076855241264582
0.9624120201667248,16.07685524126458
0.9634103728847401,15.076855241264582
0.9644087256027554,15.076855241264582
0.9654070783207707,10.076855241264582
0.966405431038786,8.076855241264582
0.9674037837568012,6.076855241264582
0.9684021364748164,4.076855241264582
0.9694004891928317,7.076855241264582
0.970398841910847,-0.9231447587354182
0.9713971946288623,-11.923144758735418
0.9723955473468776,-16.92314475873542
0.9733939000648929,-16.92314475873542
0.9743922527829081,-18.92314475873542
0.9753906055009234,-17.92314475873542
0.9763889582189387,-11.923144758735418
0.977387310936954,-3.9231447587354182
0.9783856636549693,2.0768552412645818
0.9793840163729844,-1.9231447587354182
0.9803823690909997,2.0768552412645818
0.981380721809015,12.076855241264582
0.9823790745270303,17.07685524126458
0.9833774272450456,14.076855241264582
0.9843757799630609,14.076855241264582
0.9853741326810761,12.076855241264582
0.9863724853990914,8.076855241264582
0.9873708381171067,3.0768552412645818
0.988369190835122,3.0768552412645818
0.9893675435531373,6.076855241264582
0.9903658962711526,0.07685524126458176
0.9913642489891678,-9.923144758735418
0.992362601707183,-14.923144758735418
0.9933609544251983,-16.92314475873542
0.9943593071432136,-18.92314475873542
0.9953576598612289,-16.92314475873542
0.9963560125792442,-10.923144758735418
0.9973543652972594,-2.9231447587354182
0.9983527180152747,3.0768552412645818
0.99935107073329,-1.9231447587354182
1.0003494234513053,1.0768552412645818
1.0013477761693206,11.076855241264582
1.0023461288873359,16.07685524126458
1.0033444816053512,14.076855241264582
1.0043428343233665,15.076855241264582
1.0053411870413815,11.076855241264582
1.0063395397593968,8.076855241264582
1.0073378924774121,4.076855241264582
1.0083362451954274,5.076855241264582
1.0093345979134427,9.076855241264582
1.010332950631458,-0.9231447587354182
1.0113313033494733,-11.923144758735418
1.0123296560674886,-15.923144758735418
1.0133280087855039,-15.923144758735418
1.0143263615035192,-20.92314475873542
1.0153247142215345,-18.92314475873542
1.0163230669395498,-11.923144758735418
1.0173214196575648,-3.9231447587354182
1.0183197723755801,4.076855241264582
1.0193181250935954,-0.9231447587354182
1.0203164778116107,3.0768552412645818
1.021314830529626,12.076855241264582
1.0223131832476413,14.076855241264582
1.0233115359656566,15.076855241264582
1.024309888683672,17.07685524126458
1.0253082414016872,13.076855241264582
1.0263065941197025,9.076855241264582
1.0273049468377178,4.076855241264582
1.0283032995557329,3.0768552412645818
1.0293016522737481,4.076855241264582
1.0303000049917634,-0.9231447587354182
1.0312983577097787,-13.923144758735418
1.032296710427794,-15.923144758735418
1.0332950631458093,-16.92314475873542
1.0342934158638246,-18.92314475873542
1.03529176858184,-15.923144758735418
1.0362901212998552,-9.923144758735418
1.0372884740178705,-2.9231447587354182
1.0382868267358858,2.0768552412645818
1.039285179453901,-2.9231447587354182
1.0402835321719162,2.0768552412645818
1.0412818848899315,11.076855241264582
1.0422802376079467,13.076855241264582
1.043278590325962,15.076855241264582
1.0442769430439773,16.07685524126458
1.0452752957619926,16.07685524126458
1.046273648480008,10.076855241264582
1.0472720011980232,4.076855241264582
1.0482703539160385,5.076855241264582
1.0492687066340538,6.076855241264582
1.050267059352069,-1.9231447587354182
1.0512654120700842,-10.923144758735418
1.0522637647880995,-17.92314475873542
1.0532621175061148,-17.92314475873542
1.05426047022413,-18.92314475873542
1.0552588229421453,-19.92314475873542
1.0562571756601606,-10.923144758735418
1.057255528378176,-2.9231447587354182
1.0582538810961912,4.076855241264582
1.0592522338142065,-0.9231447587354182
1.0602505865322218,3.0768552412645818
1.0612489392502371,12.076855241264582
1.0622472919682524,14.076855241264582
1.0632456446862675,12.076855241264582
1.0642439974042828,14.076855241264582
1.065242350122298,12.076855241264582
1.0662407028403134,10.076855241264582
1.0672390555583287,6.076855241264582
1.068237408276344,6.076855241264582
1.0692357609943592,5.076855241264582
1.0702341137123745,0.07685524126458176
1.0712324664303898,-8.923144758735418
1.0722308191484051,-18.92314475873542
1.0732291718664204,-16.92314475873542
1.0742275245844355,-18.92314475873542
1.0752258773024508,-19.92314475873542
1.076224230020466,-12.923144758735418
1.0772225827384814,-2.9231447587354182
1.0782209354564967,3.0768552412645818
1.079219288174512,-2.9231447587354182
1.0802176408925273,2.0768552412645818
1.0812159936105425,11.076855241264582
1.0822143463285578,14.076855241264582
1.0832126990465731,12.076855241264582
1.0842110517645884,12.076855241264582
1.0852094044826037,13.076855241264582
1.0862077572006188,9.076855241264582
1.087206109918634,6.076855241264582
1.0882044626366494,1.0768552412645818
1.0892028153546647,6.076855241264582
1.09020116807268,-0.9231447587354182
1.0911995207906953,-9.923144758735418
1.0921978735087106,-16.92314475873542
1.0931962262267259,-13.923144758735418
1.0941945789447411,-17.92314475873542
1.0951929316627564,-19.92314475873542
1.0961912843807717,-10.923144758735418
1.0971896370987868,-3.9231447587354182
1.098187989816802,4.076855241264582
1.0991863425348174,-1.9231447587354182
1.1001846952528327,1.0768552412645818
1.101183047970848,12.076855241264582
1.1021814006888633,14.076855241264582
1.1031797534068786,15.076855241264582
1.1041781061248939,15.076855241264582
1.1051764588429092,12.076855241264582
1.1061748115609245,9.076855241264582
1.1071731642789397,4.076855241264582
1.108171516996955,3.0768552412645818
1.1091698697149701,6.076855241264582
1.1101682224329854,0.07685524126458176
1.1111665751510007,-11.923144758735418
1.112164927869016,-15.923144758735418
1.1131632805870313,-15.923144758735418
1.1141616333050466,-19.92314475873542
1.1151599860230619,-15.923144758735418
1.1161583387410772,-10.923144758735418
1.1171566914590925,-1.9231447587354182
1.1181550441771078,4.076855241264582
1.119153396895123,-2.9231447587354182
1.1201517496131381,0.07685524126458176
1.1211501023311534,13.076855241264582
1.1221484550491687,16.07685524126458
1.123146807767184,12.076855241264582
1.1241451604851993,13.076855241264582
1.1251435132032146,11.076855241264582
1.12614186592123,8.076855241264582
1.1271402186392452,4.076855241264582
1.1281385713572605,5.076855241264582
1.1291369240752758,6.076855241264582
1.130135276793291,0.07685524126458176
1.1311336295113064,-10.923144758735418
1.1321319822293214,-15.923144758735418
1.1331303349473367,-14.923144758735418
1.134128687665352,-19.92314475873542
1.1351270403833673,-15.923144758735418
1.1361253931013826,-10.923144758735418
1.137123745819398,-4.923144758735418
1.1381220985374132,3.0768552412645818
1.1391204512554285,-2.9231447587354182
1.1401188039734438,1.0768552412645818
1.141117156691459,12.076855241264582
1.1421155094094744,18.07685524126458
1.1431138621274894,16.07685524126458
1.1441122148455047,14.076855241264582
1.14511056756352,14.076855241264582
1.1461089202815353,11.076855241264582
1.1471072729995506,4.076855241264582
1.148105625717566,5.076855241264582
1.1491039784355812,5.076855241264582
1.1501023311535965,-1.9231447587354182
1.1511006838716118,-12.923144758735418
1.152099036589627,-16.92314475873542
1.1530973893076424,-14.923144758735418
1.1540957420256577,-17.92314475873542
1.1550940947436728,-17.92314475873542
1.156092447461688,-10.923144758735418
1.1570908001797033,-2.9231447587354182
1.1580891528977186,2.0768552412645818
1.159087505615734,0.07685524126458176
1.1600858583337492,3.0768552412645818
1.1610842110517645,12.076855241264582
1.1620825637697798,15.076855241264582
1.163080916487795,12.076855241264582
1.1640792692058104,14.076855241264582
1.1650776219238257,12.076855241264582
1.1660759746418408,9.076855241264582
1.167074327359856,6.076855241264582
1.1680726800778714,4.076855241264582
1.1690710327958866,6.076855241264582
1.170069385513902,-1.9231447587354182
1.1710677382319172,-12.923144758735418
1.1720660909499325,-14.923144758735418
1.1730644436679478,-13.923144758735418
1.1740627963859631,-19.92314475873542
1.1750611491039784,-16.92314475873542
1.1760595018219937,-9.923144758735418
1.177057854540009,-2.9231447587354182
1.178056207258024,1.0768552412645818
1.1790545599760394,-1.9231447587354182
1.1800529126940547,1.0768552412645818
1.18105126541207,10.076855241264582
1.1820496181300852,15.076855241264582
1.1830479708481005,14.076855241264582
1.1840463235661158,15.076855241264582
1.1850446762841311,14.076855241264582
1.1860430290021464,9.076855241264582
1.1870413817201617,4.076855241264582
1.188039734438177,4.076855241264582
1.189038087156192,7.076855241264582
1.1900364398742074,0.07685524126458176
1.1910347925922227,-10.923144758735418
1.192033145310238,-13.923144758735418
1.1930314980282533,-15.923144758735418
1.1940298507462686,-17.92314475873542
1.1950282034642838,-16.92314475873542
1.1960265561822991,-9.923144758735418
1.1970249089003144,-4.923144758735418
1.1980232616183297,-0.9231447587354182
1.199021614336345,-3.9231447587354182
1.2000199670543603,3.0768552412645818
1.2010183197723754,15.076855241264582
1.2020166724903907,15.076855241264582
1.203015025208406,14.076855241264582
1.2040133779264213,15.076855241264582
1.2050117306444366,12.076855241264582
1.2060100833624519,9.076855241264582
1.2070084360804672,8.076855241264582
1.2080067887984824,5.076855241264582
1.2090051415164977,9.076855241264582
1.210003494234513,-1.9231447587354182
1.2110018469525283,-11.923144758735418
1.2120001996705434,-17.92314475873542
1.2129985523885587,-17.92314475873542
1.213996905106574,-19.92314475873542
1.2149952578245893,-16.92314475873542
1.2159936105426046,-10.923144758735418
1.2169919632606199,-3.9231447587354182
1.2179903159786352,1.0768552412645818
1.2189886686966505,0.07685524126458176
1.2199870214146658,3.0768552412645818
1.220985374132681,12.076855241264582
1.2219837268506963,14.076855241264582
1.2229820795687116,12.076855241264582
1.2239804322867267,14.076855241264582
1.224978785004742,12.076855241264582
1.2259771377227573,9.076855241264582
1.2269754904407726,4.076855241264582
1.2279738431587879,4.076855241264582
1.2289721958768032,5.076855241264582
1.2299705485948185,0.07685524126458176
1.2309689013128338,-10.923144758735418
1.231967254030849,-15.923144758735418
1.2329656067488644,-15.923144758735418
1.2339639594668796,-16.92314475873542
1.2349623121848947,-15.923144758735418
1.23596066490291,-11.923144758735418
1.2369590176209253,-2.9231447587354182
1.2379573703389406,1.0768552412645818
1.238955723056956,-0.9231447587354182
1.2399540757749712,2.0768552412645818
1.2409524284929865,11.076855241264582
1.2419507812110018,16.07685524126458
1.242949133929017,16.07685524126458
1.2439474866470324,13.076855241264582
1.2449458393650477,13.076855241264582
1.245944192083063,9.076855241264582
1.246942544801078,6.076855241264582
1.2479408975190933,3.0768552412645818
1.2489392502371086,3.0768552412645818
1.249937602955124,-0.9231447587354182
1.2509359556731392,-9.923144758735418
1.2519343083911545,-16.92314475873542
1.2529326611091698,-14.923144758735418
1.253931013827185,-18.92314475873542
1.2549293665452004,-16.92314475873542
1.2559277192632157,-10.923144758735418
1.256926071981231,-3.9231447587354182
1.257924424699246,1.0768552412645818
1.2589227774172613,-1.9231447587354182
1.2599211301352766,3.0768552412645818
1.260919482853292,13.076855241264582
1.2619178355713072,14.076855241264582
1.2629161882893225,14.076855241264582
1.2639145410073378,14.076855241264582
1.264912893725353,12.076855241264582
1.2659112464433684,8.076855241264582
1.2669095991613837,5.076855241264582
1.267907951879399,4.076855241264582
1.2689063045974143,8.076855241264582
1.2699046573154293,1.0768552412645818
1.2709030100334446,-11.923144758735418
1.27190136275146,-15.923144758735418
1.2728997154694752,-14.923144758735418
1.2738980681874905,-15.923144758735418
1.2748964209055058,-17.92314475873542
1.275894773623521,-11.923144758735418
1.2768931263415364,-3.9231447587354182
1.2778914790595517,3.0768552412645818
1.278889831777567,-2.9231447587354182
1.2798881844955823,2.0768552412645818
1.2808865372135974,12.076855241264582
1.2818848899316126,16.07685524126458
1.282883242649628,13.076855241264582
1.2838815953676432,14.076855241264582
1.2848799480856585,13.076855241264582
1.2858783008036738,9.076855241264582
1.2868766535216891,5.076855241264582
1.2878750062397044,4.076855241264582
1.2888733589577197,6.076855241264582
1.289871711675735,1.0768552412645818
1.2908700643937503,-11.923144758735418
1.2918684171117656,-18.92314475873542
1.2928667698297807,-16.92314475873542
1.293865122547796,-19.92314475873542
1.2948634752658112,-15.923144758735418
1.2958618279838265,-12.923144758735418
1.2968601807018418,-2.9231447587354182
1.2978585334198571,4.076855241264582
1.2988568861378724,-0.9231447587354182
1.2998552388558877,3.0768552412645818
1.300853591573903,11.076855241264582
1.3018519442919183,13.076855241264582
1.3028502970099336,14.076855241264582
1.3038486497279487,13.076855241264582
1.304847002445964,12.076855241264582
1.3058453551639793,9.076855241264582
1.3068437078819946,5.076855241264582
1.3078420606000098,5.076855241264582
1.3088404133180251,8.076855241264582
1.3098387660360404,1.0768552412645818
1.3108371187540557,-11.923144758735418
1.311835471472071,-14.923144758735418
1.3128338241900863,-16.92314475873542
1.3138321769081016,-20.92314475873542
1.314830529626117,-19.92314475873542
1.315828882344132,-11.923144758735418
1.3168272350621473,-2.9231447587354182
1.3178255877801626,1.0768552412645818
1.3188239404981779,-1.9231447587354182
1.3198222932161932,3.0768552412645818
1.3208206459342084,12.076855241264582
1.3218189986522237,14.076855241264582
1.322817351370239,14.076855241264582
1.3238157040882543,16.07685524126458
1.3248140568062696,15.076855241264582
1.325812409524285,10.076855241264582
1.3268107622423,5.076855241264582
1.3278091149603153,5.076855241264582
1.3288074676783306,5.076855241264582
1.3298058203963459,0.07685524126458176
1.3308041731143612,-9.923144758735418
1.3318025258323765,-15.923144758735418
1.3328008785503918,-17.92314475873542
1.333799231268407,-20.92314475873542
1.3347975839864223,-19.92314475873542
1.3357959367044376,-10.923144758735418
1.336794289422453,-0.9231447587354182
1.3377926421404682,2.0768552412645818
1.3387909948584833,-3.9231447587354182
1.3397893475764986,1.0768552412645818
1.3407877002945139,14.076855241264582
1.3417860530125292,17.07685524126458
1.3427844057305445,14.076855241264582
1.3437827584485598,15.076855241264582
1.344781111166575,11.076855241264582
1.3457794638845904,10.076855241264582
1.3467778166026056,2.0768552412645818
1.347776169320621,3.0768552412645818
1.3487745220386362,7.076855241264582
1.3497728747566513,-1.9231447587354182
1.3507712274746666,-13.923144758735418
1.351769580192682,-15.923144758735418
1.3527679329106972,-14.923144758735418
1.3537662856287125,-18.92314475873542
1.3547646383467278,-17.92314475873542
1.355762991064743,-10.923144758735418
1.3567613437827584,-2.9231447587354182
1.3577596965007737,3.0768552412645818
1.358758049218789,-2.9231447587354182
1.3597564019368042,3.0768552412645818
1.3607547546548195,12.076855241264582
1.3617531073728346,17.07685524126458
1.36275146009085,15.076855241264582
1.3637498128088652,12.076855241264582
1.3647481655268805,13.076855241264582
1.3657465182448958,9.076855241264582
1.366744870962911,5.076855241264582
1.3677432236809264,4.076855241264582
1.3687415763989417,7.076855241264582
1.369739929116957,0.07685524126458176
1.3707382818349723,-11.923144758735418
1.3717366345529876,-16.92314475873542
1.3727349872710026,-18.92314475873542
1.373733339989018,-19.92314475873542
1.3747316927070332,-18.92314475873542
1.3757300454250485,-8.923144758735418
1.3767283981430638,-4.923144758735418
1.377726750861079,2.0768552412645818
1.3787251035790944,-2.9231447587354182
1.3797234562971097,1.0768552412645818
1.380721809015125,10.076855241264582
1.3817201617331403,15.076855241264582
1.3827185144511556,17.07685524126458
1.3837168671691709,17.07685524126458
1.384715219887186,12.076855241264582
1.3857135726052012,8.076855241264582
1.3867119253232165,6.076855241264582
1.3877102780412318,5.076855241264582
1.388708630759247,6.076855241264582
1.3897069834772624,-0.9231447587354182
1.3907053361952777,-11.923144758735418
1.391703688913293,-17.92314475873542
1.3927020416313083,-16.92314475873542
1.3937003943493236,-20.92314475873542
1.3946987470673389,-17.92314475873542
1.395697099785354,-11.923144758735418
1.3966954525033692,-1.9231447587354182
1.3976938052213845,3.0768552412645818
1.3986921579393998,-1.9231447587354182
1.3996905106574151,1.0768552412645818
1.4006888633754304,11.076855241264582
1.4016872160934457,14.076855241264582
1.402685568811461,14.076855241264582
1.4036839215294763,14.076855241264582
1.4046822742474916,13.076855241264582
1.4056806269655069,8.076855241264582
1.4066789796835222,4.076855241264582
1.4076773324015373,7.076855241264582
1.4086756851195525,9.076855241264582
1.4096740378375678,1.0768552412645818
1.4106723905555831,-13.923144758735418
1.4116707432735984,-17.92314475873542
1.4126690959916137,-15.923144758735418
1.413667448709629,-19.92314475873542
1.4146658014276443,-17.92314475873542
1.4156641541456596,-10.923144758735418
1.416662506863675,-5.923144758735418
1.4176608595816902,1.0768552412645818
1.4186592122997053,-0.9231447587354182
1.4196575650177206,4.076855241264582
1.4206559177357359,14.076855241264582
1.4216542704537511,12.076855241264582
1.4226526231717664,15.076855241264582
1.4236509758897817,14.076855241264582
1.424649328607797,13.076855241264582
1.4256476813258123,11.076855241264582
1.4266460340438276,7.076855241264582
1.427644386761843,3.0768552412645818
1.4286427394798582,4.076855241264582
1.4296410921978735,1.0768552412645818
1.4306394449158886,-11.923144758735418
1.4316377976339039,-17.92314475873542
1.4326361503519192,-16.92314475873542
1.4336345030699345,-18.92314475873542
1.4346328557879497,-17.92314475873542
1.435631208505965,-11.923144758735418
1.4366295612239803,-3.9231447587354182
1.4376279139419956,1.0768552412645818
1.438626266660011,-1.9231447587354182
1.4396246193780262,3.0768552412645818
1.4406229720960415,12.076855241264582
1.4416213248140566,14.076855241264582
1.4426196775320719,15.076855241264582
1.4436180302500872,15.076855241264582
1.4446163829681025,12.076855241264582
1.4456147356861178,8.076855241264582
1.446613088404133,4.076855241264582
1.4476114411221483,5.076855241264582
1.4486097938401636,6.076855241264582
1.449608146558179,1.0768552412645818
1.4506064992761942,-10.923144758735418
1.4516048519942095,-15.923144758735418
1.4526032047122248,-16.92314475873542
1.4536015574302399,-19.92314475873542
1.4545999101482552,-16.92314475873542
1.4555982628662705,-10.923144758735418
1.4565966155842858,-3.9231447587354182
1.457594968302301,1.0768552412645818
1.4585933210203164,-1.9231447587354182
1.4595916737383317,3.0768552412645818
1.460590026456347,12.076855241264582
1.4615883791743622,16.07685524126458
1.4625867318923775,14.076855241264582
1.4635850846103928,16.07685524126458
1.464583437328408,13.076855241264582
1.4655817900464232,9.076855241264582
1.4665801427644385,6.076855241264582
1.4675784954824538,3.0768552412645818
1.468576848200469,5.076855241264582
1.4695752009184844,0.07685524126458176
1.4705735536364997,-11.923144758735418
1.471571906354515,-14.923144758735418
1.4725702590725303,-15.923144758735418
1.4735686117905455,-19.92314475873542
1.4745669645085608,-19.92314475873542
1.4755653172265761,-7.923144758735418
1.4765636699445912,-5.923144758735418
1.4775620226626065,2.0768552412645818
1.4785603753806218,-0.9231447587354182
1.479558728098637,3.0768552412645818
1.4805570808166524,14.076855241264582
1.4815554335346677,15.076855241264582
1.482553786252683,14.076855241264582
1.4835521389706983,14.076855241264582
1.4845504916887136,12.076855241264582
1.4855488444067289,8.076855241264582
1.4865471971247441,4.076855241264582
1.4875455498427592,4.076855241264582
1.4885439025607745,6.076855241264582
1.4895422552787898,-1.9231447587354182
1.490540607996805,-11.923144758735418
1.4915389607148204,-15.923144758735418
1.4925373134328357,-16.92314475873542
1.493535666150851,-18.92314475873542
1.4945340188688663,-18.92314475873542
1.4955323715868816,-10.923144758735418
1.4965307243048969,-1.9231447587354182
1.4975290770229122,4.076855241264582
1.4985274297409275,-0.9231447587354182
1.4995257824589425,2.0768552412645818
1.5005241351769578,12.076855241264582
1.5015224878949731,16.07685524126458
1.5025208406129884,15.076855241264582
1.5035191933310037,17.07685524126458
1.504517546049019,12.076855241264582
1.5055158987670343,8.076855241264582
1.5065142514850496,6.076855241264582
1.5075126042030649,4.076855241264582
1.5085109569210802,5.076855241264582
1.5095093096390955,-1.9231447587354182
1.5105076623571105,-11.923144758735418
1.5115060150751258,-16.92314475873542
1.5125043677931411,-15.923144758735418
1.5135027205111564,-19.92314475873542
1.5145010732291717,-18.92314475873542
1.515499425947187,-10.923144758735418
1.5164977786652023,-1.9231447587354182
1.5174961313832176,1.0768552412645818
1.5184944841012329,-0.9231447587354182
1.5194928368192482,1.0768552412645818
1.5204911895372635,14.076855241264582
1.5214895422552788,16.07685524126458
1.5224878949732938,13.076855241264582
1.5234862476913091,14.076855241264582
1.5244846004093244,14.076855241264582
1.5254829531273397,8.076855241264582
1.526481305845355,5.076855241264582
1.5274796585633703,4.076855241264582
1.5284780112813856,6.076855241264582
1.529476363999401,1.0768552412645818
1.5304747167174162,-11.923144758735418
1.5314730694354315,-16.92314475873542
1.5324714221534468,-15.923144758735418
1.5334697748714619,-16.92314475873542
1.5344681275894771,-19.92314475873542
1.5354664803074924,-10.923144758735418
1.5364648330255077,-4.923144758735418
1.537463185743523,2.0768552412645818
1.5384615384615383,-2.9231447587354182
1.5394598911795536,3.0768552412645818
1.540458243897569,11.076855241264582
1.5414565966155842,13.076855241264582
1.5424549493335995,14.076855241264582
1.5434533020516148,17.07685524126458
1.54445165476963,13.076855241264582
1.5454500074876452,9.076855241264582
1.5464483602056605,7.076855241264582
1.5474467129236757,4.076855241264582
1.548445065641691,5.076855241264582
1.5494434183597063,0.07685524126458176
1.5504417710777216,-11.923144758735418
1.551440123795737,-17.92314475873542
1.5524384765137522,-17.92314475873542
1.5534368292317675,-18.92314475873542
1.5544351819497828,-16.92314475873542
1.555433534667798,-7.923144758735418
1.5564318873858134,-2.9231447587354182
1.5574302401038285,1.0768552412645818
1.5584285928218438,-2.9231447587354182
1.559426945539859,2.0768552412645818
1.5604252982578743,12.076855241264582
1.5614236509758896,14.076855241264582
1.562422003693905,15.076855241264582
1.5634203564119202,17.07685524126458
1.5644187091299355,14.076855241264582
1.5654170618479508,9.076855241264582
1.5664154145659661,4.076855241264582
1.5674137672839814,4.076855241264582
1.5684121200019965,5.076855241264582
1.5694104727200118,-2.9231447587354182
1.570408825438027,-14.923144758735418
1.5714071781560424,-15.923144758735418
1.5724055308740577,-13.923144758735418
1.573403883592073,-16.92314475873542
1.5744022363100882,-18.92314475873542
1.5754005890281035,-10.923144758735418
1.5763989417461188,-3.9231447587354182
1.5773972944641341,2.0768552412645818
1.5783956471821494,0.07685524126458176
1.5793939999001647,1.0768552412645818
1.5803923526181798,13.076855241264582
1.581390705336195,15.076855241264582
1.5823890580542104,11.076855241264582
1.5833874107722257,16.07685524126458
1.584385763490241,16.07685524126458
1.5853841162082563,10.076855241264582
1.5863824689262715,5.076855241264582
1.5873808216442868,5.076855241264582
1.5883791743623021,5.076855241264582
1.5893775270803174,-0.9231447587354182
1.5903758797983327,-13.923144758735418
1.5913742325163478,-17.92314475873542
1.592372585234363,-15.923144758735418
1.5933709379523784,-18.92314475873542
1.5943692906703937,-16.92314475873542
1.595367643388409,-11.923144758735418
1.5963659961064243,-3.9231447587354182
1.5973643488244396,0.07685524126458176
1.5983627015424549,-2.9231447587354182
1.5993610542604701,2.0768552412645818
1.6003594069784854,13.076855241264582
1.6013577596965007,14.076855241264582
1.602356112414516,14.076855241264582
1.603354465132531,14.076855241264582
1.6043528178505464,14.076855241264582
1.6053511705685617,10.076855241264582
1.606349523286577,5.076855241264582
1.6073478760045923,4.076855241264582
1.6083462287226076,4.076855241264582
1.6093445814406229,-1.9231447587354182
1.6103429341586382,-11.923144758735418
1.6113412868766535,-15.923144758735418
1.6123396395946687,-16.92314475873542
1.613337992312684,-18.92314475873542
1.6143363450306991,-14.923144758735418
1.6153346977487144,-10.923144758735418
1.6163330504667297,-1.9231447587354182
1.617331403184745,4.076855241264582
1.6183297559027603,-3.9231447587354182
1.6193281086207756,1.0768552412645818
1.6203264613387909,13.076855241264582
1.6213248140568062,16.07685524126458
1.6223231667748215,14.076855241264582
1.6233215194928368,14.076855241264582
1.624319872210852,14.076855241264582
1.6253182249288673,8.076855241264582
1.6263165776468824,3.0768552412645818
1.6273149303648977,1.0768552412645818
1.628313283082913,7.076855241264582
1.6293116358009283,0.07685524126458176
1.6303099885189436,-11.923144758735418
1.631308341236959,-14.923144758735418
1.6323066939549742,-17.92314475873542
1.6333050466729895,-19.92314475873542
1.6343033993910048,-17.92314475873542
1.63530175210902,-10.923144758735418
1.6363001048270354,-3.9231447587354182
1.6372984575450504,2.0768552412645818
1.6382968102630657,-0.9231447587354182
1.639295162981081,1.0768552412645818
1.6402935156990963,12.076855241264582
1.6412918684171116,15.076855241264582
1.642290221135127,12.076855241264582
1.6432885738531422,15.076855241264582
1.6442869265711575,14.076855241264582
1.6452852792891728,7.076855241264582
1.646283632007188,5.076855241264582
1.6472819847252034,4.076855241264582
1.6482803374432187,8.076855241264582
1.6492786901612337,-1.9231447587354182
1.650277042879249,-12.923144758735418
1.6512753955972643,-17.92314475873542
1.6522737483152796,-14.923144758735418
1.653272101033295,-18.92314475873542
1.6542704537513102,-15.923144758735418
1.6552688064693255,-8.923144758735418
1.6562671591873408,-2.9231447587354182
1.657265511905356,3.0768552412645818
1.6582638646233714,-3.9231447587354182
1.6592622173413867,1.0768552412645818
1.6602605700594018,15.076855241264582
1.661258922777417,16.07685524126458
1.6622572754954323,14.076855241264582
1.6632556282134476,14.076855241264582
1.664253980931463,12.076855241264582
1.6652523336494782,10.076855241264582
1.6662506863674935,5.076855241264582
1.6672490390855088,5.076855241264582
1.668247391803524,5.076855241264582
1.6692457445215394,1.0768552412645818
1.6702440972395547,-11.923144758735418
1.67124244995757,-14.923144758735418
1.672240802675585,-13.923144758735418
1.6732391553936004,-19.92314475873542
1.6742375081116156,-18.92314475873542
1.675235860829631,-9.923144758735418
1.6762342135476462,-4.923144758735418
1.6772325662656615,0.07685524126458176
1.6782309189836768,-1.9231447587354182
1.6792292717016921,2.0768552412645818
1.6802276244197074,12.076855241264582
1.6812259771377227,12.076855241264582
1.682224329855738,14.076855241264582
1.683222682573753,14.076855241264582
1.6842210352917684,12.076855241264582
1.6852193880097837,8.076855241264582
1.686217740727799,7.076855241264582
1.6872160934458142,5.076855241264582
1.6882144461638295,6.076855241264582
1.6892127988818448,0.07685524126458176
1.6902111515998601,-10.923144758735418
1.6912095043178754,-15.923144758735418
1.6922078570358907,-14.923144758735418
1.693206209753906,-18.92314475873542
1.6942045624719213,-15.923144758735418
1.6952029151899364,-8.923144758735418
1.6962012679079517,-5.923144758735418
1.697199620625967,1.0768552412645818
1.6981979733439823,-4.923144758735418
1.6991963260619976,3.0768552412645818
1.7001946787800128,14.076855241264582
1.7011930314980281,16.07685524126458
1.7021913842160434,14.076855241264582
1.7031897369340587,15.076855241264582
1.704188089652074,12.076855241264582
1.7051864423700893,9.076855241264582
1.7061847950881044,6.076855241264582
1.7071831478061197,3.0768552412645818
1.708181500524135,5.076855241264582
1.7091798532421503,-0.9231447587354182
1.7101782059601656,-11.923144758735418
1.7111765586781809,-14.923144758735418
1.7121749113961962,-17.92314475873542
1.7131732641142114,-19.92314475873542
1.7141716168322267,-17.92314475873542
1.715169969550242,-12.923144758735418
1.7161683222682573,-5.923144758735418
1.7171666749862726,2.0768552412645818
1.7181650277042877,-0.9231447587354182
1.719163380422303,3.0768552412645818
1.7201617331403183,14.076855241264582
1.7211600858583336,16.07685524126458
1.7221584385763489,15.076855241264582
1.7231567912943642,15.076855241264582
1.7241551440123795,15.076855241264582
1.7251534967303948,7.076855241264582
1.72615184944841,4.076855241264582
1.7271502021664253,3.0768552412645818
1.7281485548844406,5.076855241264582
1.7291469076024557,-1.9231447587354182
1.730145260320471,-10.923144758735418
1.7311436130384863,-14.923144758735418
1.7321419657565016,-15.923144758735418
1.7331403184745169,-20.92314475873542
1.7341386711925322,-18.92314475873542
1.7351370239105475,-11.923144758735418
1.7361353766285628,-3.9231447587354182
1.737133729346578,3.0768552412645818
1.7381320820645934,-2.9231447587354182
1.7391304347826086,2.0768552412645818
1.740128787500624,14.076855241264582
1.741127140218639,16.07685524126458
1.7421254929366543,14.076855241264582
1.7431238456546696,13.076855241264582
1.744122198372685,12.076855241264582
1.7451205510907002,8.076855241264582
1.7461189038087155,6.076855241264582
1.7471172565267308,5.076855241264582
1.748115609244746,5.076855241264582
1.7491139619627614,0.07685524126458176
1.7501123146807767,-12.923144758735418
1.751110667398792,-15.923144758735418
1.752109020116807,-17.92314475873542
1.7531073728348223,-17.92314475873542
1.7541057255528376,-19.92314475873542
1.755104078270853,-10.923144758735418
1.7561024309888682,-2.9231447587354182
1.7571007837068835,4.076855241264582
1.7580991364248988,-1.9231447587354182
1.759097489142914,3.0768552412645818
1.7600958418609294,14.076855241264582
1.7610941945789447,16.07685524126458
1.76209254729696,14.076855241264582
1.7630909000149753,17.07685524126458
1.7640892527329903,14.076855241264582
1.7650876054510056,9.076855241264582
1.766085958169021,4.076855241264582
1.7670843108870362,4.076855241264582
1.7680826636050515,5.076855241264582
1.7690810163230668,-2.9231447587354182
1.770079369041082,-12.923144758735418
1.7710777217590974,-15.923144758735418
1.7720760744771127,-15.923144758735418
1.773074427195128,-20.92314475873542
1.7740727799131433,-18.92314475873542
1.7750711326311583,-13.923144758735418
1.7760694853491736,-2.9231447587354182
1.777067838067189,3.0768552412645818
1.7780661907852042,0.07685524126458176
1.7790645435032195,3.0768552412645818
1.7800628962212348,14.076855241264582
1.78106124893925,13.076855241264582
1.7820596016572654,13.076855241264582
1.7830579543752807,13.076855241264582
1.784056307093296,12.076855241264582
1.7850546598113113,8.076855241264582
1.7860530125293266,6.076855241264582
1.7870513652473416,7.076855241264582
1.788049717965357,8.076855241264582
1.7890480706833722,0.07685524126458176
1.7900464234013875,-11.923144758735418
1.7910447761194028,-18.92314475873542
1.7920431288374181,-17.92314475873542
1.7930414815554334,-17.92314475873542
1.7940398342734487,-19.92314475873542
1.795038186991464,-10.923144758735418
1.7960365397094793,-3.9231447587354182
1.7970348924274946,1.0768552412645818
1.7980332451455097,-0.9231447587354182
1.799031597863525,3.0768552412645818
1.8000299505815403,11.076855241264582
1.8010283032995555,13.076855241264582
1.8020266560175708,14.076855241264582
1.8030250087355861,16.07685524126458
1.8040233614536014,11.076855241264582
1.8050217141716167,6.076855241264582
1.806020066889632,5.076855241264582
1.8070184196076473,6.076855241264582
1.8080167723256626,8.076855241264582
1.809015125043678,-0.9231447587354182
1.810013477761693,-11.923144758735418
1.8110118304797083,-18.92314475873542
1.8120101831977236,-19.92314475873542
1.8130085359157389,-18.92314475873542
1.8140068886337541,-15.923144758735418
1.8150052413517694,-11.923144758735418
1.8160035940697847,-4.923144758735418
1.8170019467878,2.0768552412645818
1.8180002995058153,0.07685524126458176
1.8189986522238306,3.0768552412645818
1.819997004941846,14.076855241264582
1.820995357659861,13.076855241264582
1.8219937103778763,15.076855241264582
1.8229920630958916,13.076855241264582
1.8239904158139069,13.076855241264582
1.8249887685319222,10.076855241264582
1.8259871212499375,3.0768552412645818
1.8269854739679527,5.076855241264582
1.827983826685968,10.076855241264582
1.8289821794039833,-1.9231447587354182
1.8299805321219986,-12.923144758735418
1.830978884840014,-14.923144758735418
1.8319772375580292,-16.92314475873542
1.8329755902760443,-16.92314475873542
1.8339739429940596,-17.92314475873542
1.8349722957120749,-10.923144758735418
1.8359706484300902,-2.9231447587354182
1.8369690011481055,1.0768552412645818
1.8379673538661208,-0.9231447587354182
1.838965706584136,0.07685524126458176
1.8399640593021513,9.076855241264582
1.8409624120201666,16.07685524126458
1.841960764738182,17.07685524126458
1.8429591174561972,15.076855241264582
1.8439574701742123,12.076855241264582
1.8449558228922276,10.076855241264582
1.8459541756102429,5.076855241264582
1.8469525283282582,4.076855241264582
1.8479508810462735,6.076855241264582
1.8489492337642888,1.0768552412645818
1.849947586482304,-13.923144758735418
1.8509459392003194,-17.92314475873542
1.8519442919183347,-17.92314475873542
1.85294264463635,-18.92314475873542
1.8539409973543652,-17.92314475873542
1.8549393500723805,-10.923144758735418
1.8559377027903956,-2.9231447587354182
1.856936055508411,2.0768552412645818
1.8579344082264262,-1.9231447587354182
1.8589327609444415,4.076855241264582
1.8599311136624568,13.076855241264582
1.860929466380472,15.076855241264582
1.8619278190984874,13.076855241264582
1.8629261718165027,12.076855241264582
1.863924524534518,11.076855241264582
1.8649228772525333,8.076855241264582
1.8659212299705485,7.076855241264582
1.8669195826885636,6.076855241264582
1.867917935406579,4.076855241264582
1.8689162881245942,-1.9231447587354182
1.8699146408426095,-13.923144758735418
1.8709129935606248,-17.92314475873542
1.87191134627864,-17.92314475873542
1.8729096989966554,-18.92314475873542
1.8739080517146707,-16.92314475873542
1.874906404432686,-11.923144758735418
1.8759047571507013,0.07685524126458176
1.8769031098687166,3.0768552412645818
1.8779014625867319,-1.9231447587354182
1.878899815304747,2.0768552412645818
1.8798981680227622,15.076855241264582
1.8808965207407775,15.076855241264582
1.8818948734587928,14.076855241264582
1.882893226176808,13.076855241264582
1.8838915788948234,13.076855241264582
1.8848899316128387,9.076855241264582
1.885888284330854,5.076855241264582
1.8868866370488693,1.0768552412645818
1.8878849897668846,5.076855241264582
1.8888833424848999,-0.9231447587354182
1.889881695202915,-10.923144758735418
1.8908800479209302,-17.92314475873542
1.8918784006389455,-15.923144758735418
1.8928767533569608,-20.92314475873542
1.8938751060749761,-19.92314475873542
1.8948734587929914,-9.923144758735418
1.8958718115110067,-1.9231447587354182
1.896870164229022,1.0768552412645818
1.8978685169470373,-2.9231447587354182
1.8988668696650526,1.0768552412645818
1.8998652223830679,12.076855241264582
1.9008635751010832,16.07685524126458
1.9018619278190982,15.076855241264582
1.9028602805371135,14.076855241264582
1.9038586332551288,13.076855241264582
1.9048569859731441,9.076855241264582
1.9058553386911594,4.076855241264582
1.9068536914091747,5.076855241264582
1.90785204412719,5.076855241264582
1.9088503968452053,-2.9231447587354182
1.9098487495632206,-12.923144758735418
1.9108471022812359,-15.923144758735418
1.9118454549992512,-17.92314475873542
1.9128438077172663,-17.92314475873542
1.9138421604352815,-17.92314475873542
1.9148405131532968,-10.923144758735418
1.9158388658713121,-5.923144758735418
1.9168372185893274,1.0768552412645818
1.9178355713073427,-1.9231447587354182
1.918833924025358,4.076855241264582
1.9198322767433733,16.07685524126458
1.9208306294613886,17.07685524126458
1.921828982179404,14.076855241264582
1.9228273348974192,17.07685524126458
1.9238256876154345,12.076855241264582
1.9248240403334496,10.076855241264582
1.9258223930514649,1.0768552412645818
1.9268207457694801,5.076855241264582
1.9278190984874954,6.076855241264582
1.9288174512055107,0.07685524126458176
1.929815803923526,-13.923144758735418
1.9308141566415413,-16.92314475873542
1.9318125093595566,-16.92314475873542
1.932810862077572,-17.92314475873542
1.9338092147955872,-17.92314475873542
1.9348075675136025,-9.923144758735418
1.9358059202316176,-4.923144758735418
1.9368042729496329,3.0768552412645818
1.9378026256676482,-1.9231447587354182
1.9388009783856635,1.0768552412645818
1.9397993311036787,13.076855241264582
1.940797683821694,16.07685524126458
1.9417960365397093,15.076855241264582
1.9427943892577246,12.076855241264582
1.94379274197574,10.076855241264582
1.9447910946937552,7.076855241264582
1.9457894474117705,4.076855241264582
1.9467878001297858,5.076855241264582
1.9477861528478009,8.076855241264582
1.9487845055658162,-0.9231447587354182
1.9497828582838315,-13.923144758735418
1.9507812110018468,-15.923144758735418
1.951779563719862,-17.92314475873542
1.9527779164378773,-20.92314475873542
1.9537762691558926,-18.92314475873542
1.954774621873908,-8.923144758735418
1.9557729745919232,-2.9231447587354182
1.9567713273099385,3.0768552412645818
1.9577696800279538,-0.9231447587354182
1.958768032745969,2.0768552412645818
1.9597663854639842,14.076855241264582
1.9607647381819995,16.07685524126458
1.9617630909000148,14.076855241264582
1.96276144361803,13.076855241264582
1.9637597963360454,16.07685524126458
1.9647581490540607,12.076855241264582
1.965756501772076,5.076855241264582
1.9667548544900912,5.076855241264582
1.9677532072081065,5.076855241264582
1.9687515599261218,-1.9231447587354182
1.9697499126441371,-13.923144758735418
1.9707482653621522,-17.92314475873542
1.9717466180801675,-17.92314475873542
1.9727449707981828,-17.92314475873542
1.973743323516198,-14.923144758735418
1.9747416762342134,-10.923144758735418
1.9757400289522287,-2.9231447587354182
1.976738381670244,2.0768552412645818
1.9777367343882593,-2.9231447587354182
1.9787350871062745,0.07685524126458176
1.9797334398242898,12.076855241264582
1.9807317925423051,16.07685524126458
1.9817301452603202,15.076855241264582
1.9827284979783355,13.076855241264582
1.9837268506963508,11.076855241264582
1.984725203414366,8.076855241264582
1.9857235561323814,5.076855241264582
1.9867219088503967,5.076855241264582
1.987720261568412,5.076855241264582
1.9887186142864273,-1.9231447587354182
1.9897169670044426,-13.923144758735418
1.9907153197224579,-15.923144758735418
1.9917136724404731,-17.92314475873542
1.9927120251584884,-17.92314475873542
1.9937103778765035,-17.92314475873542
1.9947087305945188,-9.923144758735418
1.995707083312534,-2.9231447587354182
1.9967054360305494,1.0768552412645818
1.9977037887485647,-2.9231447587354182
1.99870214146658,2.0768552412645818
1.9997004941845953,14.076855241264582
2.0006988469026106,16.07685524126458
2.001697199620626,15.076855241264582
2.002695552338641,15.076855241264582
2.0036939050566565,12.076855241264582
2.0046922577746717,9.076855241264582
2.005690610492687,4.076855241264582
2.0066889632107023,5.076855241264582
2.0076873159287176,6.076855241264582
2.008685668646733,-1.9231447587354182
2.009684021364748,-12.923144758735418
2.010682374082763,-14.923144758735418
2.0116807268007784,-17.92314475873542
2.0126790795187937,-19.92314475873542
2.013677432236809,-15.923144758735418
2.0146757849548242,-10.923144758735418
2.0156741376728395,-3.9231447587354182
2.016672490390855,3.0768552412645818
2.01767084310887,-1.9231447587354182
2.0186691958268854,3.0768552412645818
2.0196675485449007,14.076855241264582
2.020665901262916,17.07685524126458
2.0216642539809313,13.076855241264582
2.0226626066989466,14.076855241264582
2.023660959416962,12.076855241264582
2.024659312134977,6.076855241264582
2.0256576648529925,4.076855241264582
2.0266560175710078,5.076855241264582
2.027654370289023,7.076855241264582
2.0286527230070384,0.07685524126458176
2.0296510757250537,-10.923144758735418
2.030649428443069,-14.923144758735418
2.0316477811610842,-16.92314475873542
2.0326461338790995,-18.92314475873542
2.0336444865971144,-14.923144758735418
2.0346428393151297,-9.923144758735418
2.035641192033145,-6.923144758735418
2.0366395447511603,1.0768552412645818
2.0376378974691756,-1.9231447587354182
2.038636250187191,3.0768552412645818
2.039634602905206,13.076855241264582
2.0406329556232214,13.076855241264582
2.0416313083412367,16.07685524126458
2.042629661059252,14.076855241264582
2.0436280137772673,13.076855241264582
2.0446263664952826,8.076855241264582
2.045624719213298,6.076855241264582
2.046623071931313,4.076855241264582
2.0476214246493285,5.076855241264582
2.048619777367344,-0.9231447587354182
2.049618130085359,-13.923144758735418
2.0506164828033744,-15.923144758735418
2.0516148355213897,-14.923144758735418
2.052613188239405,-19.92314475873542
2.0536115409574203,-16.92314475873542
2.0546098936754356,-9.923144758735418
2.055608246393451,-3.9231447587354182
2.0566065991114657,1.0768552412645818
2.057604951829481,-2.9231447587354182
2.0586033045474963,2.0768552412645818
2.0596016572655116,13.076855241264582
2.060600009983527,15.076855241264582
2.061598362701542,17.07685524126458
2.0625967154195575,15.076855241264582
2.0635950681375728,12.076855241264582
2.064593420855588,9.076855241264582
2.0655917735736034,6.076855241264582
2.0665901262916186,5.076855241264582
2.067588479009634,8.076855241264582
2.0685868317276492,0.07685524126458176
2.0695851844456645,-13.923144758735418
2.07058353716368,-16.92314475873542
2.071581889881695,-15.923144758735418
2.0725802425997104,-18.92314475873542
2.0735785953177257,-16.92314475873542
2.074576948035741,-11.923144758735418
2.0755753007537563,-2.9231447587354182
2.0765736534717716,4.076855241264582
2.077572006189787,-0.9231447587354182
2.078570358907802,4.076855241264582
2.079568711625817,13.076855241264582
2.0805670643438323,13.076855241264582
2.0815654170618476,15.076855241264582
2.082563769779863,14.076855241264582
2.083562122497878,14.076855241264582
2.0845604752158935,7.076855241264582
2.085558827933909,6.076855241264582
2.086557180651924,6.076855241264582
2.0875555333699394,5.076855241264582
2.0885538860879547,-1.9231447587354182
2.08955223880597,-12.923144758735418
2.0905505915239853,-17.92314475873542
2.0915489442420006,-16.92314475873542
2.092547296960016,-18.92314475873542
2.093545649678031,-15.923144758735418
2.0945440023960464,-9.923144758735418
2.0955423551140617,-3.9231447587354182
2.096540707832077,1.0768552412645818
2.0975390605500923,-0.9231447587354182
2.0985374132681076,2.0768552412645818
2.099535765986123,14.076855241264582
2.100534118704138,15.076855241264582
2.1015324714221535,17.07685524126458
2.1025308241401683,14.076855241264582
2.1035291768581836,11.076855241264582
2.104527529576199,8.076855241264582
2.1055258822942142,6.076855241264582
2.1065242350122295,6.076855241264582
2.107522587730245,4.076855241264582
2.10852094044826,1.0768552412645818
2.1095192931662754,-10.923144758735418
2.1105176458842907,-15.923144758735418
2.111515998602306,-18.92314475873542
2.1125143513203213,-19.92314475873542
2.1135127040383366,-18.92314475873542
2.114511056756352,-7.923144758735418
2.115509409474367,-2.9231447587354182
2.1165077621923825,4.076855241264582
2.1175061149103978,-2.9231447587354182
2.118504467628413,4.076855241264582
2.1195028203464283,13.076855241264582
2.1205011730644436,14.076855241264582
2.121499525782459,13.076855241264582
2.1224978785004742,14.076855241264582
2.1234962312184895,13.076855241264582
2.124494583936505,9.076855241264582
2.1254929366545197,5.076855241264582
2.126491289372535,4.076855241264582
2.1274896420905502,5.076855241264582
2.1284879948085655,-1.9231447587354182
2.129486347526581,-11.923144758735418
2.130484700244596,-14.923144758735418
2.1314830529626114,-17.92314475873542
2.1324814056806267,-19.92314475873542
2.133479758398642,-17.92314475873542
2.1344781111166573,-10.923144758735418
2.1354764638346726,-1.9231447587354182
2.136474816552688,3.0768552412645818
2.137473169270703,-1.9231447587354182
2.1384715219887185,3.0768552412645818
2.1394698747067338,13.076855241264582
2.140468227424749,14.076855241264582
2.1414665801427644,14.076855241264582
2.1424649328607797,16.07685524126458
2.143463285578795,14.076855241264582
2.1444616382968102,8.076855241264582
2.1454599910148255,3.0768552412645818
2.146458343732841,4.076855241264582
2.147456696450856,5.076855241264582
2.148455049168871,0.07685524126458176
2.1494534018868863,-15.923144758735418
2.1504517546049016,-15.923144758735418
2.151450107322917,-16.92314475873542
2.152448460040932,-18.92314475873542
2.1534468127589474,-17.92314475873542
2.1544451654769627,-11.923144758735418
2.155443518194978,-3.9231447587354182
2.1564418709129933,3.0768552412645818
2.1574402236310086,1.0768552412645818
2.158438576349024,6.076855241264582
2.159436929067039,16.07685524126458
2.1604352817850545,12.076855241264582
2.16143363450307,12.076855241264582
2.162431987221085,15.076855241264582
2.1634303399391004,11.076855241264582
2.1644286926571157,7.076855241264582
2.165427045375131,5.076855241264582
2.1664253980931463,4.076855241264582
2.1674237508111616,5.076855241264582
2.168422103529177,-1.9231447587354182
2.169420456247192,-11.923144758735418
2.1704188089652074,-15.923144758735418
2.1714171616832223,-16.92314475873542
2.1724155144012376,-18.92314475873542
2.173413867119253,-15.923144758735418
2.174412219837268,-10.923144758735418
2.1754105725552835,-5.923144758735418
2.1764089252732988,0.07685524126458176
2.177407277991314,-0.9231447587354182
2.1784056307093294,4.076855241264582
2.1794039834273446,13.076855241264582
2.18040233614536,17.07685524126458
2.1814006888633752,14.076855241264582
2.1823990415813905,14.076855241264582
2.183397394299406,12.076855241264582
2.184395747017421,10.076855241264582
2.1853940997354364,4.076855241264582
2.1863924524534517,4.076855241264582
2.187390805171467,6.076855241264582
2.1883891578894823,-2.9231447587354182
2.1893875106074976,-12.923144758735418
2.190385863325513,-14.923144758735418
2.191384216043528,-15.923144758735418
2.1923825687615435,-19.92314475873542
2.1933809214795588,-15.923144758735418
2.1943792741975736,-8.923144758735418
2.195377626915589,-4.923144758735418
2.196375979633604,2.0768552412645818
2.1973743323516195,-2.9231447587354182
2.198372685069635,5.076855241264582
2.19937103778765,12.076855241264582
2.2003693905056654,13.076855241264582
2.2013677432236807,12.076855241264582
2.202366095941696,17.07685524126458
2.2033644486597113,11.076855241264582
2.2043628013777266,5.076855241264582
2.205361154095742,4.076855241264582
2.206359506813757,5.076855241264582
2.2073578595317724,6.076855241264582
2.2083562122497877,0.07685524126458176
2.209354564967803,-10.923144758735418
2.2103529176858183,-16.92314475873542
2.2113512704038336,-19.92314475873542
2.212349623121849,-18.92314475873542
2.213347975839864,-17.92314475873542
2.2143463285578795,-8.923144758735418
2.215344681275895,-2.9231447587354182
2.21634303399391,3.0768552412645818
2.217341386711925,-1.9231447587354182
2.2183397394299402,3.0768552412645818
2.2193380921479555,13.076855241264582
2.220336444865971,17.07685524126458
2.221334797583986,15.076855241264582
2.2223331503020014,16.07685524126458
2.2233315030200167,12.076855241264582
2.224329855738032,8.076855241264582
2.2253282084560473,5.076855241264582
2.2263265611740626,3.0768552412645818
2.227324913892078,6.076855241264582
2.228323266610093,-0.9231447587354182
2.2293216193281085,-10.923144758735418
2.2303199720461238,-16.92314475873542
2.231318324764139,-18.92314475873542
2.2323166774821543,-19.92314475873542
2.2333150302001696,-18.92314475873542
2.234313382918185,-10.923144758735418
2.2353117356362002,-3.9231447587354182
2.2363100883542155,3.0768552412645818
2.237308441072231,-1.9231447587354182
2.238306793790246,2.0768552412645818
2.2393051465082614,14.076855241264582
2.2403034992262763,16.07685524126458
2.2413018519442915,16.07685524126458
2.242300204662307,16.07685524126458
2.243298557380322,14.076855241264582
2.2442969100983374,8.076855241264582
2.2452952628163527,4.076855241264582
2.246293615534368,2.0768552412645818
2.2472919682523833,4.076855241264582
2.2482903209703986,-1.9231447587354182
2.249288673688414,-12.923144758735418
2.250287026406429,-14.923144758735418
2.2512853791244445,-17.92314475873542
2.25228373184246,-17.92314475873542
2.253282084560475,-16.92314475873542
2.2542804372784904,-10.923144758735418
2.2552787899965057,-3.9231447587354182
2.256277142714521,2.0768552412645818
2.2572754954325362,-3.9231447587354182
2.2582738481505515,1.0768552412645818
2.259272200868567,14.076855241264582
2.260270553586582,15.076855241264582
2.2612689063045974,13.076855241264582
2.2622672590226127,15.076855241264582
2.2632656117406276,12.076855241264582
2.264263964458643,10.076855241264582
2.265262317176658,7.076855241264582
2.2662606698946735,5.076855241264582
2.2672590226126887,4.076855241264582
2.268257375330704,-1.9231447587354182
2.2692557280487193,-14.923144758735418
2.2702540807667346,-14.923144758735418
2.27125243348475,-15.923144758735418
2.272250786202765,-19.92314475873542
2.2732491389207805,-19.92314475873542
2.274247491638796,-10.923144758735418
2.275245844356811,-3.9231447587354182
2.2762441970748264,1.0768552412645818
2.2772425497928417,1.0768552412645818
2.278240902510857,4.076855241264582
2.2792392552288723,12.076855241264582
2.2802376079468876,14.076855241264582
2.281235960664903,17.07685524126458
2.282234313382918,14.076855241264582
2.2832326661009335,12.076855241264582
2.2842310188189487,8.076855241264582
2.285229371536964,4.076855241264582
2.286227724254979,4.076855241264582
2.287226076972994,4.076855241264582
2.2882244296910095,-2.9231447587354182
2.2892227824090248,-10.923144758735418
2.29022113512704,-14.923144758735418
2.2912194878450554,-14.923144758735418
2.2922178405630707,-17.92314475873542
2.293216193281086,-16.92314475873542
2.2942145459991012,-10.923144758735418
2.2952128987171165,-3.9231447587354182
2.296211251435132,1.0768552412645818
2.297209604153147,-2.9231447587354182
2.2982079568711624,3.0768552412645818
2.2992063095891777,12.076855241264582
2.300204662307193,14.076855241264582
2.3012030150252083,15.076855241264582
2.3022013677432236,17.07685524126458
2.303199720461239,12.076855241264582
2.304198073179254,9.076855241264582
2.3051964258972695,4.076855241264582
2.3061947786152848,6.076855241264582
2.3071931313333,8.076855241264582
2.3081914840513154,-0.9231447587354182
2.30918983676933,-10.923144758735418
2.3101881894873455,-17.92314475873542
2.311186542205361,-18.92314475873542
2.312184894923376,-18.92314475873542
2.3131832476413914,-16.92314475873542
2.3141816003594067,-9.923144758735418
2.315179953077422,-3.9231447587354182
2.3161783057954373,-0.9231447587354182
2.3171766585134526,-3.9231447587354182
2.318175011231468,3.0768552412645818
2.319173363949483,14.076855241264582
2.3201717166674984,13.076855241264582
2.3211700693855137,14.076855241264582
2.322168422103529,15.076855241264582
2.3231667748215443,14.076855241264582
2.3241651275395596,10.076855241264582
2.325163480257575,5.076855241264582
2.32616183297559,4.076855241264582
2.3271601856936055,5.076855241264582
2.328158538411621,-1.9231447587354182
2.329156891129636,-10.923144758735418
2.3301552438476514,-16.92314475873542
2.3311535965656667,-14.923144758735418
2.3321519492836815,-18.92314475873542
2.333150302001697,-15.923144758735418
2.334148654719712,-10.923144758735418
2.3351470074377274,-4.923144758735418
2.3361453601557427,2.0768552412645818
2.337143712873758,-1.9231447587354182
2.3381420655917733,0.07685524126458176
2.3391404183097886,12.076855241264582
2.340138771027804,14.076855241264582
2.341137123745819,17.07685524126458
2.3421354764638345,16.07685524126458
2.3431338291818498,12.076855241264582
2.344132181899865,8.076855241264582
2.3451305346178803,5.076855241264582
2.3461288873358956,7.076855241264582
2.347127240053911,5.076855241264582
2.3481255927719262,-0.9231447587354182
2.3491239454899415,-14.923144758735418
2.350122298207957,-16.92314475873542
2.351120650925972,-15.923144758735418
2.3521190036439874,-19.92314475873542
2.3531173563620027,-18.92314475873542
2.354115709080018,-9.923144758735418
2.355114061798033,-2.9231447587354182
2.356112414516048,3.0768552412645818
2.3571107672340634,-1.9231447587354182
2.3581091199520787,3.0768552412645818
2.359107472670094,12.076855241264582
2.3601058253881093,14.076855241264582
2.3611041781061246,15.076855241264582
2.36210253082414,14.076855241264582
2.363100883542155,13.076855241264582
2.3640992362601705,8.076855241264582
2.365097588978186,4.076855241264582
2.366095941696201,4.076855241264582
2.3670942944142164,6.076855241264582
2.3680926471322317,-1.9231447587354182
2.369090999850247,-12.923144758735418
2.3700893525682623,-14.923144758735418
2.3710877052862775,-17.92314475873542
2.372086058004293,-17.92314475873542
2.373084410722308,-17.92314475873542
2.3740827634403234,-7.923144758735418
2.3750811161583387,-3.9231447587354182
2.376079468876354,1.0768552412645818
2.3770778215943693,-1.9231447587354182
2.378076174312384,-0.9231447587354182
2.3790745270303995,16.07685524126458
2.3800728797484147,16.07685524126458
2.38107123246643,14.076855241264582
2.3820695851844453,14.076855241264582
2.3830679379024606,12.076855241264582
2.384066290620476,10.076855241264582
2.385064643338491,4.076855241264582
2.3860629960565065,4.076855241264582
2.387061348774522,5.076855241264582
2.388059701492537,-1.9231447587354182
2.3890580542105524,-11.923144758735418
2.3900564069285677,-15.923144758735418
2.391054759646583,-15.923144758735418
2.3920531123645983,-18.92314475873542
2.3930514650826136,-16.92314475873542
2.394049817800629,-11.923144758735418
2.395048170518644,-3.9231447587354182
2.3960465232366595,1.0768552412645818
2.3970448759546747,-0.9231447587354182
2.39804322867269,3.0768552412645818
2.3990415813907053,13.076855241264582
2.4000399341087206,16.07685524126458
2.4010382868267355,14.076855241264582
2.4020366395447508,14.076855241264582
2.403034992262766,12.076855241264582
2.4040333449807814,6.076855241264582
2.4050316976987967,5.076855241264582
2.406030050416812,6.076855241264582
2.4070284031348272,7.076855241264582
2.4080267558528425,0.07685524126458176
2.409025108570858,-12.923144758735418
2.410023461288873,-16.92314475873542
2.4110218140068884,-15.923144758735418
2.4120201667249037,-18.92314475873542
2.413018519442919,-16.92314475873542
2.4140168721609343,-9.923144758735418
2.4150152248789496,-3.9231447587354182
2.416013577596965,2.0768552412645818
2.41701193031498,-1.9231447587354182
2.4180102830329955,4.076855241264582
2.4190086357510108,12.076855241264582
2.420006988469026,15.076855241264582
2.4210053411870414,14.076855241264582
2.4220036939050567,14.076855241264582
2.423002046623072,13.076855241264582
2.424000399341087,8.076855241264582
2.424998752059102,6.076855241264582
2.4259971047771174,3.0768552412645818
2.4269954574951327,6.076855241264582
2.427993810213148,-1.9231447587354182
2.4289921629311633,-12.923144758735418
2.4299905156491786,-16.92314475873542
2.430988868367194,-16.92314475873542
2.431987221085209,-16.92314475873542
2.4329855738032244,-17.92314475873542
2.4339839265212397,-9.923144758735418
2.434982279239255,-5.923144758735418
2.4359806319572703,3.0768552412645818
2.4369789846752856,-0.9231447587354182
2.437977337393301,4.076855241264582
2.438975690111316,11.076855241264582
2.4399740428293315,16.07685524126458
2.440972395547347,13.076855241264582
2.441970748265362,16.07685524126458
2.4429691009833774,12.076855241264582
2.4439674537013927,7.076855241264582
2.444965806419408,5.076855241264582
2.4459641591374233,5.076855241264582
2.446962511855438,4.076855241264582
2.4479608645734534,-3.9231447587354182
2.4489592172914687,-15.923144758735418
2.449957570009484,-18.92314475873542
2.4509559227274993,-17.92314475873542
2.4519542754455146,-16.92314475873542
2.45295262816353,-15.923144758735418
2.453950980881545,-9.923144758735418
2.4549493335995605,-3.9231447587354182
2.4559476863175758,1.0768552412645818
2.456946039035591,-1.9231447587354182
2.4579443917536064,4.076855241264582
2.4589427444716216,12.076855241264582
2.459941097189637,16.07685524126458
2.4609394499076522,14.076855241264582
2.4619378026256675,14.076855241264582
2.462936155343683,15.076855241264582
2.463934508061698,7.076855241264582
2.4649328607797134,5.076855241264582
2.4659312134977287,5.076855241264582
2.466929566215744,6.076855241264582
2.4679279189337593,-3.9231447587354182
2.4689262716517746,-11.923144758735418
2.4699246243697894,-17.92314475873542
2.4709229770878047,-18.92314475873542
2.47192132980582,-20.92314475873542
2.4729196825238353,-17.92314475873542
2.4739180352418506,-8.923144758735418
2.474916387959866,-2.9231447587354182
2.475914740677881,2.0768552412645818
2.4769130933958965,-0.9231447587354182
2.477911446113912,2.0768552412645818
2.478909798831927,14.076855241264582
2.4799081515499424,15.076855241264582
2.4809065042679577,14.076855241264582
2.481904856985973,15.076855241264582
2.4829032097039883,12.076855241264582
2.4839015624220036,8.076855241264582
2.484899915140019,6.076855241264582
2.485898267858034,6.076855241264582
2.4868966205760494,5.076855241264582
2.4878949732940647,-0.9231447587354182
2.48889332601208,-10.923144758735418
2.4898916787300953,-13.923144758735418
2.4908900314481106,-17.92314475873542
2.491888384166126,-19.92314475873542
2.4928867368841408,-17.92314475873542
2.493885089602156,-12.923144758735418
2.4948834423201713,-3.9231447587354182
2.4958817950381866,2.0768552412645818
2.496880147756202,-1.9231447587354182
2.4978785004742172,5.076855241264582
2.4988768531922325,13.076855241264582
2.499875205910248,14.076855241264582
2.500873558628263,13.076855241264582
2.5018719113462784,16.07685524126458
2.5028702640642937,10.076855241264582
2.503868616782309,8.076855241264582
2.5048669695003243,4.076855241264582
2.5058653222183396,5.076855241264582
2.506863674936355,8.076855241264582
2.50786202765437,-1.9231447587354182
2.5088603803723855,-11.923144758735418
2.5098587330904008,-16.92314475873542
2.510857085808416,-19.92314475873542
2.5118554385264313,-21.92314475873542
2.5128537912444466,-15.923144758735418
2.513852143962462,-11.923144758735418
2.514850496680477,-3.9231447587354182
2.515848849398492,2.0768552412645818
2.5168472021165074,-2.9231447587354182
2.5178455548345227,5.076855241264582
2.518843907552538,15.076855241264582
2.5198422602705532,13.076855241264582
2.5208406129885685,15.076855241264582
2.521838965706584,17.07685524126458
2.522837318424599,12.076855241264582
2.5238356711426144,6.076855241264582
2.5248340238606297,4.076855241264582
2.525832376578645,4.076855241264582
2.5268307292966603,5.076855241264582
2.5278290820146756,0.07685524126458176
2.528827434732691,-14.923144758735418
2.529825787450706,-15.923144758735418
2.5308241401687215,-14.923144758735418
2.5318224928867368,-17.92314475873542
2.532820845604752,-15.923144758735418
2.5338191983227674,-11.923144758735418
2.5348175510407827,-1.9231447587354182
2.535815903758798,2.0768552412645818
2.5368142564768132,0.07685524126458176
2.5378126091948285,5.076855241264582
2.5388109619128434,15.076855241264582
2.5398093146308587,15.076855241264582
2.540807667348874,12.076855241264582
2.5418060200668893,13.076855241264582
2.5428043727849046,14.076855241264582
2.54380272550292,7.076855241264582
2.544801078220935,3.0768552412645818
2.5457994309389504,4.076855241264582
2.5467977836569657,6.076855241264582
2.547796136374981,-0.9231447587354182
2.5487944890929963,-12.923144758735418
2.5497928418110116,-17.92314475873542
2.550791194529027,-17.92314475873542
2.551789547247042,-19.92314475873542
2.5527878999650575,-16.92314475873542
2.553786252683073,-8.923144758735418
2.554784605401088,-3.9231447587354182
2.5557829581191034,1.0768552412645818
2.5567813108371187,0.07685524126458176
2.557779663555134,4.076855241264582
2.5587780162731493,12.076855241264582
2.5597763689911646,12.076855241264582
2.56077472170918,13.076855241264582
2.5617730744271947,16.07685524126458
2.56277142714521,13.076855241264582
2.5637697798632253,12.076855241264582
2.5647681325812406,4.076855241264582
2.565766485299256,5.076855241264582
2.566764838017271,6.076855241264582
2.5677631907352865,-0.9231447587354182
2.5687615434533018,-13.923144758735418
2.569759896171317,-14.923144758735418
2.5707582488893324,-15.923144758735418
2.5717566016073476,-19.92314475873542
2.572754954325363,-15.923144758735418
2.5737533070433782,-8.923144758735418
2.5747516597613935,-4.923144758735418
2.575750012479409,0.07685524126458176
2.576748365197424,-2.9231447587354182
2.5777467179154394,2.0768552412645818
2.5787450706334547,12.076855241264582
2.57974342335147,16.07685524126458
2.5807417760694853,15.076855241264582
2.5817401287875006,16.07685524126458
2.582738481505516,13.076855241264582
2.583736834223531,7.076855241264582
2.584735186941546,3.0768552412645818
2.5857335396595613,5.076855241264582
2.5867318923775766,8.076855241264582
2.587730245095592,-2.9231447587354182
2.588728597813607,-12.923144758735418
2.5897269505316225,-16.92314475873542
2.590725303249638,-15.923144758735418
2.591723655967653,-19.92314475873542
2.5927220086856684,-14.923144758735418
2.5937203614036837,-9.923144758735418
2.594718714121699,-2.9231447587354182
2.5957170668397143,1.0768552412645818
2.5967154195577296,1.0768552412645818
2.597713772275745,5.076855241264582
2.59871212499376,10.076855241264582
2.5997104777117754,15.076855241264582
2.6007088304297907,12.076855241264582
2.601707183147806,14.076855241264582
2.6027055358658213,11.076855241264582
2.6037038885838366,8.076855241264582
2.604702241301852,6.076855241264582
2.605700594019867,7.076855241264582
2.6066989467378825,6.076855241264582
2.6076972994558973,-1.9231447587354182
2.6086956521739126,-14.923144758735418
2.609694004891928,-18.92314475873542
2.6106923576099432,-15.923144758735418
2.6116907103279585,-20.92314475873542
2.612689063045974,-17.92314475873542
2.613687415763989,-9.923144758735418
2.6146857684820044,-2.9231447587354182
2.6156841212000197,3.0768552412645818
2.616682473918035,-1.9231447587354182
2.6176808266360503,4.076855241264582
2.6186791793540656,14.076855241264582
2.619677532072081,17.07685524126458
2.620675884790096,16.07685524126458
2.6216742375081115,14.076855241264582
2.6226725902261268,12.076855241264582
2.623670942944142,7.076855241264582
2.6246692956621573,4.076855241264582
2.6256676483801726,5.076855241264582
2.626666001098188,6.076855241264582
2.6276643538162032,-3.9231447587354182
2.6286627065342185,-13.923144758735418
2.629661059252234,-16.92314475873542
2.6306594119702487,-16.92314475873542
2.631657764688264,-19.92314475873542
2.6326561174062793,-15.923144758735418
2.6336544701242945,-8.923144758735418
2.63465282284231,-1.9231447587354182
2.635651175560325,1.0768552412645818
2.6366495282783404,-2.9231447587354182
2.6376478809963557,6.076855241264582
2.638646233714371,12.076855241264582
2.6396445864323863,13.076855241264582
2.6406429391504016,13.076855241264582
2.641641291868417,14.076855241264582
2.642639644586432,12.076855241264582
2.6436379973044475,9.076855241264582
2.644636350022463,5.076855241264582
2.645634702740478,3.0768552412645818
2.6466330554584934,5.076855241264582
2.6476314081765087,-2.9231447587354182
2.648629760894524,-10.923144758735418
2.6496281136125392,-12.923144758735418
2.6506264663305545,-17.92314475873542
2.65162481904857,-19.92314475873542
2.652623171766585,-15.923144758735418
2.6536215244846,-9.923144758735418
2.6546198772026153,-5.923144758735418
2.6556182299206306,1.0768552412645818
2.656616582638646,-2.9231447587354182
2.657614935356661,4.076855241264582
2.6586132880746765,12.076855241264582
2.6596116407926917,14.076855241264582
2.660609993510707,17.07685524126458
2.6616083462287223,15.076855241264582
2.6626066989467376,14.076855241264582
2.663605051664753,9.076855241264582
2.664603404382768,4.076855241264582
2.6656017571007835,4.076855241264582
2.666600109818799,7.076855241264582
2.667598462536814,-1.9231447587354182
2.6685968152548294,-14.923144758735418
2.6695951679728447,-15.923144758735418
2.67059352069086,-17.92314475873542
2.6715918734088753,-18.92314475873542
2.6725902261268906,-14.923144758735418
2.673588578844906,-9.923144758735418
2.674586931562921,-2.9231447587354182
2.6755852842809364,3.0768552412645818
2.6765836369989513,-1.9231447587354182
2.6775819897169666,4.076855241264582
2.678580342434982,12.076855241264582
2.679578695152997,13.076855241264582
2.6805770478710125,13.076855241264582
2.6815754005890278,14.076855241264582
2.682573753307043,12.076855241264582
2.6835721060250584,8.076855241264582
2.6845704587430737,4.076855241264582
2.685568811461089,5.076855241264582
2.6865671641791042,5.076855241264582
2.6875655168971195,-2.9231447587354182
2.688563869615135,-11.923144758735418
2.68956222233315,-15.923144758735418
2.6905605750511654,-14.923144758735418
2.6915589277691807,-18.92314475873542
2.692557280487196,-16.92314475873542
2.6935556332052113,-9.923144758735418
2.6945539859232266,-2.9231447587354182
2.695552338641242,3.0768552412645818
2.696550691359257,0.07685524126458176
2.6975490440772725,2.0768552412645818
2.6985473967952878,12.076855241264582
2.6995457495133026,13.076855241264582
2.700544102231318,16.07685524126458
2.701542454949333,17.07685524126458
2.7025408076673485,11.076855241264582
2.703539160385364,8.076855241264582
2.704537513103379,4.076855241264582
2.7055358658213944,5.076855241264582
2.7065342185394097,6.076855241264582
2.707532571257425,-0.9231447587354182
2.7085309239754403,-12.923144758735418
2.7095292766934556,-15.923144758735418
2.710527629411471,-18.92314475873542
2.711525982129486,-19.92314475873542
2.7125243348475014,-15.923144758735418
2.7135226875655167,-9.923144758735418
2.714521040283532,-2.9231447587354182
2.7155193930015473,2.0768552412645818
2.7165177457195626,-1.9231447587354182
2.717516098437578,5.076855241264582
2.718514451155593,12.076855241264582
2.7195128038736085,15.076855241264582
2.720511156591624,15.076855241264582
2.721509509309639,13.076855241264582
2.722507862027654,12.076855241264582
2.7235062147456692,7.076855241264582
2.7245045674636845,4.076855241264582
2.7255029201817,5.076855241264582
2.726501272899715,4.076855241264582
2.7274996256177304,-2.9231447587354182
2.7284979783357457,-14.923144758735418
2.729496331053761,-15.923144758735418
2.7304946837717763,-14.923144758735418
2.7314930364897916,-16.92314475873542
2.732491389207807,-16.92314475873542
2.733489741925822,-10.923144758735418
2.7344880946438375,-3.9231447587354182
2.7354864473618528,1.0768552412645818
2.736484800079868,-1.9231447587354182
2.7374831527978833,3.0768552412645818
2.7384815055158986,14.076855241264582
2.739479858233914,14.076855241264582
2.7404782109519292,16.07685524126458
2.7414765636699445,12.076855241264582
2.74247491638796,12.076855241264582
2.743473269105975,8.076855241264582
2.7444716218239904,7.076855241264582
2.7454699745420053,5.076855241264582
2.7464683272600205,6.076855241264582
2.747466679978036,-0.9231447587354182
2.748465032696051,-11.923144758735418
2.7494633854140664,-17.92314475873542
2.7504617381320817,-16.92314475873542
2.751460090850097,-19.92314475873542
2.7524584435681123,-18.92314475873542
2.7534567962861276,-10.923144758735418
2.754455149004143,-4.923144758735418
2.755453501722158,2.0768552412645818
2.7564518544401735,-2.9231447587354182
2.757450207158189,2.0768552412645818
2.758448559876204,14.076855241264582
2.7594469125942194,13.076855241264582
2.7604452653122347,16.07685524126458
2.76144361803025,15.076855241264582
2.7624419707482653,14.076855241264582
2.7634403234662805,9.076855241264582
2.764438676184296,5.076855241264582
2.765437028902311,4.076855241264582
2.7664353816203264,5.076855241264582
2.7674337343383417,-0.9231447587354182
2.7684320870563566,-12.923144758735418
2.769430439774372,-15.923144758735418
2.770428792492387,-17.92314475873542
2.7714271452104025,-17.92314475873542
2.7724254979284177,-17.92314475873542
2.773423850646433,-10.923144758735418
2.7744222033644483,-2.9231447587354182
2.7754205560824636,1.0768552412645818
2.776418908800479,-0.9231447587354182
2.777417261518494,1.0768552412645818
2.7784156142365095,14.076855241264582
2.779413966954525,12.076855241264582
2.78041231967254,16.07685524126458
2.7814106723905554,17.07685524126458
2.7824090251085707,13.076855241264582
2.783407377826586,7.076855241264582
2.7844057305446013,4.076855241264582
2.7854040832626166,5.076855241264582
2.786402435980632,3.0768552412645818
2.787400788698647,0.07685524126458176
2.7883991414166625,-12.923144758735418
2.7893974941346777,-15.923144758735418
2.790395846852693,-17.92314475873542
2.791394199570708,-16.92314475873542
2.792392552288723,-15.923144758735418
2.7933909050067385,-8.923144758735418
2.7943892577247538,-2.9231447587354182
2.795387610442769,3.0768552412645818
2.7963859631607844,-0.9231447587354182
2.7973843158787997,6.076855241264582
2.798382668596815,13.076855241264582
2.7993810213148302,14.076855241264582
2.8003793740328455,17.07685524126458
2.801377726750861,16.07685524126458
2.802376079468876,10.076855241264582
2.8033744321868914,8.076855241264582
2.8043727849049067,5.076855241264582
2.805371137622922,4.076855241264582
2.8063694903409373,5.076855241264582
2.8073678430589526,0.07685524126458176
2.808366195776968,-11.923144758735418
2.809364548494983,-14.923144758735418
2.8103629012129985,-15.923144758735418
2.8113612539310138,-16.92314475873542
2.812359606649029,-15.923144758735418
2.8133579593670444,-10.923144758735418
2.814356312085059,-5.923144758735418
2.8153546648030745,1.0768552412645818
2.81635301752109,-2.9231447587354182
2.817351370239105,2.0768552412645818
2.8183497229571204,13.076855241264582
2.8193480756751357,13.076855241264582
2.820346428393151,16.07685524126458
2.8213447811111663,15.076855241264582
2.8223431338291816,13.076855241264582
2.823341486547197,8.076855241264582
2.824339839265212,4.076855241264582
2.8253381919832274,5.076855241264582
2.8263365447012427,4.076855241264582
2.827334897419258,-1.9231447587354182
2.8283332501372733,-12.923144758735418
2.8293316028552886,-16.92314475873542
2.830329955573304,-18.92314475873542
2.831328308291319,-17.92314475873542
2.8323266610093345,-16.92314475873542
2.83332501372735,-11.923144758735418
2.834323366445365,-3.9231447587354182
2.8353217191633804,3.0768552412645818
2.8363200718813957,-1.9231447587354182
2.8373184245994105,5.076855241264582
2.838316777317426,13.076855241264582
2.839315130035441,17.07685524126458
2.8403134827534564,16.07685524126458
2.8413118354714717,15.076855241264582
2.842310188189487,11.076855241264582
2.8433085409075023,8.076855241264582
2.8443068936255176,5.076855241264582
2.845305246343533,6.076855241264582
2.846303599061548,7.076855241264582
2.8473019517795635,-1.9231447587354182
2.8483003044975788,-12.923144758735418
2.849298657215594,-18.92314475873542
2.8502970099336093,-19.92314475873542
2.8512953626516246,-19.92314475873542
2.85229371536964,-13.923144758735418
2.8532920680876552,-8.923144758735418
2.8542904208056705,-0.9231447587354182
2.855288773523686,0.07685524126458176
2.856287126241701,-1.9231447587354182
2.8572854789597164,5.076855241264582
2.8582838316777317,14.076855241264582
2.859282184395747,15.076855241264582
2.860280537113762,12.076855241264582
2.861278889831777,16.07685524126458
2.8622772425497924,14.076855241264582
2.8632755952678077,5.076855241264582
2.864273947985823,5.076855241264582
2.8652723007038383,5.076855241264582
2.8662706534218536,5.076855241264582
2.867269006139869,-2.9231447587354182
2.868267358857884,-11.923144758735418
2.8692657115758995,-18.92314475873542
2.870264064293915,-19.92314475873542
2.87126241701193,-19.92314475873542
2.8722607697299454,-15.923144758735418
2.8732591224479607,-7.923144758735418
2.874257475165976,-2.9231447587354182
2.8752558278839913,1.0768552412645818
2.8762541806020065,-0.9231447587354182
2.877252533320022,2.0768552412645818
2.878250886038037,13.076855241264582
2.8792492387560524,16.07685524126458
2.8802475914740677,13.076855241264582
2.881245944192083,15.076855241264582
2.8822442969100983,13.076855241264582
2.883242649628113,7.076855241264582
2.8842410023461285,4.076855241264582
2.8852393550641438,5.076855241264582
2.886237707782159,4.076855241264582
2.8872360605001743,-2.9231447587354182
2.8882344132181896,-13.923144758735418
2.889232765936205,-14.923144758735418
2.89023111865422,-17.92314475873542
2.8912294713722355,-19.92314475873542
2.892227824090251,-16.92314475873542
2.893226176808266,-8.923144758735418
2.8942245295262814,-4.923144758735418
2.8952228822442967,3.0768552412645818
2.896221234962312,0.07685524126458176
2.8972195876803273,4.076855241264582
2.8982179403983426,15.076855241264582
2.899216293116358,14.076855241264582
2.900214645834373,15.076855241264582
2.9012129985523885,14.076855241264582
2.9022113512704037,11.076855241264582
2.903209703988419,6.076855241264582
2.9042080567064343,5.076855241264582
2.9052064094244496,5.076855241264582
2.9062047621424645,6.076855241264582
2.9072031148604798,-1.9231447587354182
2.908201467578495,-11.923144758735418
2.9091998202965104,-15.923144758735418
2.9101981730145257,-12.923144758735418
2.911196525732541,-19.92314475873542
2.9121948784505562,-17.92314475873542
2.9131932311685715,-10.923144758735418
2.914191583886587,-3.9231447587354182
2.915189936604602,2.0768552412645818
2.9161882893226174,0.07685524126458176
2.9171866420406327,2.0768552412645818
2.918184994758648,12.076855241264582
2.9191833474766633,13.076855241264582
2.9201817001946786,17.07685524126458
2.921180052912694,14.076855241264582
2.922178405630709,12.076855241264582
2.9231767583487245,8.076855241264582
2.9241751110667398,4.076855241264582
2.925173463784755,5.076855241264582
2.9261718165027704,6.076855241264582
2.9271701692207857,-2.9231447587354182
2.928168521938801,-13.923144758735418
2.929166874656816,-15.923144758735418
2.930165227374831,-17.92314475873542
2.9311635800928464,-19.92314475873542
2.9321619328108617,-17.92314475873542
2.933160285528877,-9.923144758735418
2.9341586382468923,-5.923144758735418
2.9351569909649076,1.0768552412645818
2.936155343682923,2.0768552412645818
2.937153696400938,4.076855241264582
2.9381520491189534,14.076855241264582
2.9391504018369687,14.076855241264582
2.940148754554984,14.076855241264582
2.9411471072729993,13.076855241264582
2.9421454599910146,13.076855241264582
2.94314381270903,9.076855241264582
2.944142165427045,4.076855241264582
2.9451405181450605,4.076855241264582
2.946138870863076,5.076855241264582
2.947137223581091,-1.9231447587354182
2.9481355762991064,-12.923144758735418
2.9491339290171217,-15.923144758735418
2.950132281735137,-14.923144758735418
2.9511306344531523,-17.92314475873542
2.952128987171167,-18.92314475873542
2.9531273398891824,-10.923144758735418
2.9541256926071977,-1.9231447587354182
2.955124045325213,1.0768552412645818
2.9561223980432283,-2.9231447587354182
2.9571207507612436,1.0768552412645818
2.958119103479259,12.076855241264582
2.959117456197274,14.076855241264582
2.9601158089152895,14.076855241264582
2.9611141616333048,14.076855241264582
2.96211251435132,14.076855241264582
2.9631108670693354,8.076855241264582
2.9641092197873506,5.076855241264582
2.965107572505366,5.076855241264582
2.9661059252233812,6.076855241264582
2.9671042779413965,-3.9231447587354182
2.968102630659412,-14.923144758735418
2.969100983377427,-16.92314475873542
2.9700993360954424,-14.923144758735418
2.9710976888134577,-17.92314475873542
2.972096041531473,-16.92314475873542
2.9730943942494883,-9.923144758735418
2.9740927469675036,-4.923144758735418
2.9750910996855184,2.0768552412645818
2.9760894524035337,-0.9231447587354182
2.977087805121549,6.076855241264582
2.9780861578395643,13.076855241264582
2.9790845105575796,13.076855241264582
2.980082863275595,15.076855241264582
2.98108121599361,13.076855241264582
2.9820795687116255,11.076855241264582
2.983077921429641,8.076855241264582
2.984076274147656,5.076855241264582
2.9850746268656714,4.076855241264582
2.9860729795836867,5.076855241264582
2.987071332301702,-1.9231447587354182
2.9880696850197173,-14.923144758735418
2.9890680377377326,-16.92314475873542
2.990066390455748,-17.92314475873542
2.991064743173763,-16.92314475873542
2.9920630958917784,-17.92314475873542
2.9930614486097937,-10.923144758735418
2.994059801327809,-2.9231447587354182
2.9950581540458243,0.07685524126458176
2.9960565067638396,-2.9231447587354182
2.997054859481855,3.0768552412645818
2.9980532121998698,14.076855241264582
2.999051564917885,15.076855241264582
3.0000499176359003,13.076855241264582
3.0010482703539156,17.07685524126458
3.002046623071931,15.076855241264582
3.0030449757899462,8.076855241264582
3.0040433285079615,4.076855241264582
3.005041681225977,4.076855241264582
3.006040033943992,6.076855241264582
3.0070383866620074,-1.9231447587354182
3.0080367393800227,-17.92314475873542
3.009035092098038,-16.92314475873542
3.0100334448160533,-14.923144758735418
3.0110317975340686,-18.92314475873542
3.012030150252084,-16.92314475873542
3.013028502970099,-11.923144758735418
3.0140268556881145,-2.9231447587354182
3.0150252084061298,1.0768552412645818
3.016023561124145,-0.9231447587354182
3.0170219138421603,5.076855241264582
3.0180202665601756,14.076855241264582
3.019018619278191,14.076855241264582
3.0200169719962062,15.076855241264582
3.021015324714221,14.076855241264582
3.0220136774322364,12.076855241264582
3.0230120301502517,7.076855241264582
3.024010382868267,4.076855241264582
3.0250087355862822,5.076855241264582
3.0260070883042975,4.076855241264582
3.027005441022313,-2.9231447587354182
3.028003793740328,-13.923144758735418
3.0290021464583434,-15.923144758735418
3.0300004991763587,-17.92314475873542
3.030998851894374,-19.92314475873542
3.0319972046123893,-17.92314475873542
3.0329955573304046,-8.923144758735418
3.03399391004842,-2.9231447587354182
3.034992262766435,3.0768552412645818
3.0359906154844505,-1.9231447587354182
3.0369889682024658,4.076855241264582
3.037987320920481,12.076855241264582
3.0389856736384964,13.076855241264582
3.0399840263565117,15.076855241264582
3.040982379074527,14.076855241264582
3.0419807317925422,14.076855241264582
3.0429790845105575,12.076855241264582
3.0439774372285724,7.076855241264582
3.0449757899465877,5.076855241264582
3.045974142664603,2.0768552412645818
3.0469724953826183,-4.923144758735418
3.0479708481006336,-13.923144758735418
3.048969200818649,-16.92314475873542
3.049967553536664,-16.92314475873542
3.0509659062546794,-17.92314475873542
3.0519642589726947,-16.92314475873542
3.05296261169071,-9.923144758735418
3.0539609644087253,-2.9231447587354182
3.0549593171267406,3.0768552412645818
3.055957669844756,0.07685524126458176
3.056956022562771,3.0768552412645818
3.0579543752807865,13.076855241264582
3.058952727998802,16.07685524126458
3.059951080716817,15.076855241264582
3.0609494334348324,15.076855241264582
3.0619477861528477,11.076855241264582
3.062946138870863,7.076855241264582
3.0639444915888783,5.076855241264582
3.0649428443068936,6.076855241264582
3.065941197024909,7.076855241264582
3.0669395497429237,-3.9231447587354182
3.067937902460939,-14.923144758735418
3.0689362551789543,-15.923144758735418
3.0699346078969696,-15.923144758735418
3.070932960614985,-17.92314475873542
3.071931313333,-16.92314475873542
3.0729296660510155,-7.923144758735418
3.0739280187690308,-4.923144758735418
3.074926371487046,0.07685524126458176
3.0759247242050614,-1.9231447587354182
3.0769230769230766,4.076855241264582
3.077921429641092,14.076855241264582
3.0789197823591072,14.076855241264582
3.0799181350771225,15.076855241264582
3.080916487795138,15.076855241264582
3.081914840513153,12.076855241264582
3.0829131932311684,8.076855241264582
3.0839115459491837,5.076855241264582
3.084909898667199,5.076855241264582
3.0859082513852143,5.076855241264582
3.0869066041032296,-1.9231447587354182
3.087904956821245,-13.923144758735418
3.08890330953926,-18.92314475873542
3.0899016622572755,-17.92314475873542
3.0909000149752903,-16.92314475873542
3.0918983676933056,-14.923144758735418
3.092896720411321,-9.923144758735418
3.093895073129336,-2.9231447587354182
3.0948934258473515,1.0768552412645818
3.095891778565367,-1.9231447587354182
3.096890131283382,6.076855241264582
3.0978884840013974,14.076855241264582
3.0988868367194127,12.076855241264582
3.099885189437428,13.076855241264582
3.1008835421554433,14.076855241264582
3.1018818948734586,13.076855241264582
3.102880247591474,8.076855241264582
3.103878600309489,3.0768552412645818
3.1048769530275044,4.076855241264582
3.1058753057455197,4.076855241264582
3.106873658463535,-0.9231447587354182
3.1078720111815503,-12.923144758735418
3.1088703638995656,-16.92314475873542
3.109868716617581,-17.92314475873542
3.110867069335596,-19.92314475873542
3.1118654220536115,-18.92314475873542
3.112863774771627,-10.923144758735418
3.1138621274896416,-1.9231447587354182
3.114860480207657,2.0768552412645818
3.1158588329256722,-2.9231447587354182
3.1168571856436875,5.076855241264582
3.117855538361703,14.076855241264582
3.118853891079718,16.07685524126458
3.1198522437977334,15.076855241264582
3.1208505965157487,13.076855241264582
3.121848949233764,12.076855241264582
3.1228473019517793,9.076855241264582
3.1238456546697946,4.076855241264582
3.12484400738781,4.076855241264582
3.125842360105825,4.076855241264582
3.1268407128238405,-0.9231447587354182
3.1278390655418558,-12.923144758735418
3.128837418259871,-16.92314475873542
3.1298357709778863,-16.92314475873542
3.1308341236959016,-19.92314475873542
3.131832476413917,-15.923144758735418
3.1328308291319322,-10.923144758735418
3.1338291818499475,-3.9231447587354182
3.134827534567963,3.0768552412645818
3.135825887285978,0.07685524126458176
3.136824240003993,5.076855241264582
3.1378225927220083,13.076855241264582
3.1388209454400235,15.076855241264582
3.139819298158039,14.076855241264582
3.140817650876054,15.076855241264582
3.1418160035940694,14.076855241264582
3.1428143563120847,7.076855241264582
3.1438127090301,5.076855241264582
3.1448110617481153,6.076855241264582
3.1458094144661306,6.076855241264582
3.146807767184146,-2.9231447587354182
3.147806119902161,-13.923144758735418
3.1488044726201765,-17.92314475873542
3.149802825338192,-14.923144758735418
3.150801178056207,-18.92314475873542
3.1517995307742224,-14.923144758735418
3.1527978834922377,-10.923144758735418
3.153796236210253,-4.923144758735418
3.1547945889282683,-0.9231447587354182
3.1557929416462835,-1.9231447587354182
3.156791294364299,3.0768552412645818
3.157789647082314,14.076855241264582
3.1587879998003294,14.076855241264582
3.1597863525183443,15.076855241264582
3.1607847052363596,17.07685524126458
3.161783057954375,13.076855241264582
3.16278141067239,8.076855241264582
