Time,EMG
0.0,-14.250998336106477
0.0009983527180152747,-14.250998336106477
0.0019967054360305494,-13.250998336106477
0.002995058154045824,-10.250998336106477
0.003993410872061099,-10.250998336106477
0.004991763590076374,-7.250998336106477
0.005990116308091648,-8.250998336106477
0.006988469026106923,-5.250998336106477
0.007986821744122198,-4.250998336106477
0.008985174462137473,-3.250998336106477
0.009983527180152748,-0.2509983361064769
0.010981879898168023,-1.250998336106477
0.011980232616183296,-3.250998336106477
0.01297858533419857,-2.250998336106477
0.013976938052213846,-5.250998336106477
0.01497529077022912,-5.250998336106477
0.015973643488244395,-3.250998336106477
0.01697199620625967,-5.250998336106477
0.017970348924274945,-2.250998336106477
0.01896870164229022,-4.250998336106477
0.019967054360305495,-6.250998336106477
0.02096540707832077,-5.250998336106477
0.021963759796336045,-3.250998336106477
0.02296211251435132,-3.250998336106477
0.02396046523236659,-3.250998336106477
0.024958817950381868,-3.250998336106477
0.02595717066839714,-1.250998336106477
0.026955523386412418,0.7490016638935231
0.02795387610442769,3.749001663893523
0.028952228822442968,2.749001663893523
0.02995058154045824,0.7490016638935231
0.030948934258473518,1.749001663893523
0.03194728697648879,0.7490016638935231
0.032945639694504064,0.7490016638935231
0.03394399241251934,-2.250998336106477
0.03494234513053462,-2.250998336106477
0.03594069784854989,-4.250998336106477
0.036939050566565164,-4.250998336106477
0.03793740328458044,-2.250998336106477
0.03893575600259572,-5.250998336106477
0.03993410872061099,-3.250998336106477
0.040932461438626264,-2.250998336106477
0.04193081415664154,-0.2509983361064769
0.04292916687465681,-0.2509983361064769
0.04392751959267209,-1.250998336106477
0.04492587231068736,0.7490016638935231
0.04592422502870264,3.749001663893523
0.04692257774671791,1.749001663893523
0.04792093046473318,-0.2509983361064769
0.04891928318274846,1.749001663893523
0.049917635900763736,2.749001663893523
0.05091598861877901,2.749001663893523
0.05191434133679428,2.749001663893523
0.05291269405480956,1.749001663893523
0.053911046772824836,-1.250998336106477
0.05490939949084011,-0.2509983361064769
0.05590775220885538,-3.250998336106477
0.056906104926870656,-3.250998336106477
0.057904457644885936,-1.250998336106477
0.05890281036290121,-3.250998336106477
0.05990116308091648,-1.250998336106477
0.060899515798931755,-3.250998336106477
0.061897868516947036,-3.250998336106477
0.0628962212349623,-3.250998336106477
0.06389457395297758,-0.2509983361064769
0.06489292667099286,0.7490016638935231
0.06589127938900813,-4.250998336106477
0.06688963210702341,0.7490016638935231
0.06788798482503867,0.7490016638935231
0.06888633754305395,2.749001663893523
0.06988469026106923,2.749001663893523
0.0708830429790845,2.749001663893523
0.07188139569709978,2.749001663893523
0.07287974841511505,2.749001663893523
0.07387810113313033,-0.2509983361064769
0.07487645385114561,-2.250998336106477
0.07587480656916087,-2.250998336106477
0.07687315928717615,-3.250998336106477
0.07787151200519143,-3.250998336106477
0.0788698647232067,-3.250998336106477
0.07986821744122198,-3.250998336106477
0.08086657015923725,-2.250998336106477
0.08186492287725253,-2.250998336106477
0.08286327559526781,-1.250998336106477
0.08386162831328307,0.7490016638935231
0.08485998103129835,3.749001663893523
0.08585833374931362,3.749001663893523
0.0868566864673289,2.749001663893523
0.08785503918534418,1.749001663893523
0.08885339190335945,4.749001663893523
0.08985174462137473,2.749001663893523
0.09085009733938999,-0.2509983361064769
0.09184845005740527,-2.250998336106477
0.09284680277542055,-3.250998336106477
0.09384515549343582,-6.250998336106477
0.0948435082114511,-7.250998336106477
0.09584186092946637,-7.250998336106477
0.09684021364748165,-6.250998336106477
0.09783856636549693,-6.250998336106477
0.09883691908351219,-9.250998336106477
0.09983527180152747,-6.250998336106477
0.10083362451954275,-10.250998336106477
0.10183197723755802,-3.250998336106477
0.1028303299555733,-2.250998336106477
0.10382868267358857,-3.250998336106477
0.10482703539160385,-3.250998336106477
0.10582538810961913,-1.250998336106477
0.10682374082763439,1.749001663893523
0.10782209354564967,3.749001663893523
0.10882044626366494,2.749001663893523
0.10981879898168022,2.749001663893523
0.1108171516996955,2.749001663893523
0.11181550441771076,-1.250998336106477
0.11281385713572605,-3.250998336106477
0.11381220985374131,-3.250998336106477
0.11481056257175659,-3.250998336106477
0.11580891528977187,-5.250998336106477
0.11680726800778714,-7.250998336106477
0.11780562072580242,-5.250998336106477
0.1188039734438177,-3.250998336106477
0.11980232616183296,-3.250998336106477
0.12080067887984824,-3.250998336106477
0.12179903159786351,-3.250998336106477
0.12279738431587879,-2.250998336106477
0.12379573703389407,-1.250998336106477
0.12479408975190934,-1.250998336106477
0.1257924424699246,-1.250998336106477
0.1267907951879399,-0.2509983361064769
0.12778914790595516,1.749001663893523
0.12878750062397043,1.749001663893523
0.12978585334198572,3.749001663893523
0.130784206060001,-0.2509983361064769
0.13178255877801626,-2.250998336106477
0.13278091149603155,-3.250998336106477
0.13377926421404682,-7.250998336106477
0.13477761693206208,-8.250998336106477
0.13577596965007735,-10.250998336106477
0.13677432236809264,-11.250998336106477
0.1377726750861079,-9.250998336106477
0.13877102780412318,-8.250998336106477
0.13976938052213847,-7.250998336106477
0.14076773324015374,-8.250998336106477
0.141766085958169,-12.250998336106477
0.1427644386761843,-10.250998336106477
0.14376279139419956,-8.250998336106477
0.14476114411221483,-8.250998336106477
0.1457594968302301,-3.250998336106477
0.1467578495482454,-1.250998336106477
0.14775620226626066,-0.2509983361064769
0.14875455498427592,-5.250998336106477
0.14975290770229122,-38.25099833610648
0.15075126042030648,-67.25099833610648
0.15174961313832175,-82.25099833610648
0.15274796585633704,-87.25099833610648
0.1537463185743523,-83.25099833610648
0.15474467129236757,-79.25099833610648
0.15574302401038287,-73.25099833610648
0.15674137672839814,-64.25099833610648
0.1577397294464134,-56.25099833610648
0.15873808216442867,-48.25099833610648
0.15973643488244396,-42.25099833610648
0.16073478760045923,-36.25099833610648
0.1617331403184745,-24.250998336106477
0.1627314930364898,-17.250998336106477
0.16372984575450505,-5.250998336106477
0.16472819847252032,0.7490016638935231
0.16572655119053561,6.749001663893523
0.16672490390855088,10.749001663893523
0.16772325662656615,14.749001663893523
0.1687216093445814,17.749001663893523
0.1697199620625967,17.749001663893523
0.17071831478061197,16.749001663893523
0.17171666749862724,18.749001663893523
0.17271502021664253,15.749001663893523
0.1737133729346578,13.749001663893523
0.17471172565267307,15.749001663893523
0.17571007837068836,16.749001663893523
0.17670843108870363,18.749001663893523
0.1777067838067189,23.749001663893523
0.1787051365247342,23.749001663893523
0.17970348924274945,23.749001663893523
0.18070184196076472,24.749001663893523
0.18170019467877999,27.749001663893523
0.18269854739679528,27.749001663893523
0.18369690011481055,26.749001663893523
0.1846952528328258,23.749001663893523
0.1856936055508411,24.749001663893523
0.18669195826885637,21.749001663893523
0.18769031098687164,24.749001663893523
0.18868866370488693,24.749001663893523
0.1896870164229022,23.749001663893523
0.19068536914091747,23.749001663893523
0.19168372185893273,20.749001663893523
0.19268207457694803,17.749001663893523
0.1936804272949633,14.749001663893523
0.19467878001297856,10.749001663893523
0.19567713273099385,5.749001663893523
0.19667548544900912,3.749001663893523
0.19767383816702438,0.7490016638935231
0.19867219088503968,-3.250998336106477
0.19967054360305495,-7.250998336106477
0.2006688963210702,-15.250998336106477
0.2016672490390855,-15.250998336106477
0.20266560175710077,-14.250998336106477
0.20366395447511604,-13.250998336106477
0.2046623071931313,-11.250998336106477
0.2056606599111466,-7.250998336106477
0.20665901262916186,-5.250998336106477
0.20765736534717713,-3.250998336106477
0.20865571806519242,-5.250998336106477
0.2096540707832077,-2.250998336106477
0.21065242350122296,-0.2509983361064769
0.21165077621923825,1.749001663893523
0.21264912893725352,3.749001663893523
0.21364748165526878,2.749001663893523
0.21464583437328408,2.749001663893523
0.21564418709129934,3.749001663893523
0.2166425398093146,-0.2509983361064769
0.21764089252732988,-2.250998336106477
0.21863924524534517,-0.2509983361064769
0.21963759796336044,1.749001663893523
0.2206359506813757,5.749001663893523
0.221634303399391,7.749001663893523
0.22263265611740626,7.749001663893523
0.22363100883542153,9.749001663893523
0.22462936155343682,11.749001663893523
0.2256277142714521,10.749001663893523
0.22662606698946736,14.749001663893523
0.22762441970748262,18.749001663893523
0.22862277242549792,21.749001663893523
0.22962112514351318,33.74900166389352
0.23061947786152845,35.74900166389352
0.23161783057954374,52.74900166389352
0.232616183297559,112.74900166389352
0.23361453601557428,141.74900166389352
0.23461288873358957,151.74900166389352
0.23561124145160484,138.74900166389352
0.2366095941696201,119.74900166389352
0.2376079468876354,93.74900166389352
0.23860629960565066,66.74900166389352
0.23960465232366593,40.74900166389352
0.2406030050416812,20.749001663893523
0.2416013577596965,6.749001663893523
0.24259971047771176,-10.250998336106477
0.24359806319572702,-21.250998336106477
0.24459641591374232,-34.25099833610648
0.24559476863175758,-46.25099833610648
0.24659312134977285,-51.25099833610648
0.24759147406778814,-57.25099833610648
0.2485898267858034,-60.25099833610648
0.24958817950381867,-56.25099833610648
0.25058653222183397,-54.25099833610648
0.2515848849398492,-52.25099833610648
0.2525832376578645,-56.25099833610648
0.2535815903758798,-59.25099833610648
0.25457994309389503,-59.25099833610648
0.2555782958119103,-55.25099833610648
0.2565766485299256,-50.25099833610648
0.25757500124794086,-42.25099833610648
0.25857335396595615,-36.25099833610648
0.25957170668397145,-34.25099833610648
0.2605700594019867,-31.250998336106477
0.261568412120002,-28.250998336106477
0.2625667648380173,-24.250998336106477
0.2635651175560325,-19.250998336106477
0.2645634702740478,-22.250998336106477
0.2655618229920631,-26.250998336106477
0.26656017571007834,-24.250998336106477
0.26755852842809363,-24.250998336106477
0.2685568811461089,-22.250998336106477
0.26955523386412417,-21.250998336106477
0.27055358658213946,-21.250998336106477
0.2715519393001547,-23.250998336106477
0.27255029201817,-21.250998336106477
0.2735486447361853,-19.250998336106477
0.2745469974542005,-16.250998336106477
0.2755453501722158,-15.250998336106477
0.2765437028902311,-15.250998336106477
0.27754205560824635,-15.250998336106477
0.27854040832626165,-14.250998336106477
0.27953876104427694,-18.250998336106477
0.2805371137622922,-20.250998336106477
0.2815354664803075,-20.250998336106477
0.28253381919832277,-19.250998336106477
0.283532171916338,-24.250998336106477
0.2845305246343533,-25.250998336106477
0.2855288773523686,-20.250998336106477
0.28652723007038383,-12.250998336106477
0.2875255827883991,-8.250998336106477
0.2885239355064144,-3.250998336106477
0.28952228822442966,-3.250998336106477
0.29052064094244495,-1.250998336106477
0.2915189936604602,-0.2509983361064769
0.2925173463784755,1.749001663893523
0.2935156990964908,0.7490016638935231
0.294514051814506,2.749001663893523
0.2955124045325213,1.749001663893523
0.2965107572505366,1.749001663893523
0.29750910996855184,1.749001663893523
0.29850746268656714,1.749001663893523
0.29950581540458243,4.749001663893523
0.30050416812259767,4.749001663893523
0.30150252084061296,8.749001663893523
0.30250087355862826,8.749001663893523
0.3034992262766435,11.749001663893523
0.3044975789946588,11.749001663893523
0.3054959317126741,11.749001663893523
0.3064942844306893,14.749001663893523
0.3074926371487046,11.749001663893523
0.3084909898667199,10.749001663893523
0.30948934258473515,11.749001663893523
0.31048769530275044,8.749001663893523
0.31148604802076574,8.749001663893523
0.312484400738781,8.749001663893523
0.31348275345679627,6.749001663893523
0.3144811061748115,5.749001663893523
0.3154794588928268,7.749001663893523
0.3164778116108421,8.749001663893523
0.31747616432885734,10.749001663893523
0.31847451704687263,8.749001663893523
0.3194728697648879,8.749001663893523
0.32047122248290316,10.749001663893523
0.32146957520091846,11.749001663893523
0.32246792791893375,9.749001663893523
0.323466280636949,9.749001663893523
0.3244646333549643,11.749001663893523
0.3254629860729796,9.749001663893523
0.3264613387909948,7.749001663893523
0.3274596915090101,8.749001663893523
0.3284580442270254,7.749001663893523
0.32945639694504064,7.749001663893523
0.33045474966305594,4.749001663893523
0.33145310238107123,3.749001663893523
0.33245145509908647,2.749001663893523
0.33344980781710176,2.749001663893523
0.33444816053511706,0.7490016638935231
0.3354465132531323,0.7490016638935231
0.3364448659711476,0.7490016638935231
0.3374432186891628,2.749001663893523
0.3384415714071781,-1.250998336106477
0.3394399241251934,-2.250998336106477
0.34043827684320865,-2.250998336106477
0.34143662956122395,-3.250998336106477
0.34243498227923924,-1.250998336106477
0.3434333349972545,-2.250998336106477
0.3444316877152698,-1.250998336106477
0.34543004043328507,-0.2509983361064769
0.3464283931513003,0.7490016638935231
0.3474267458693156,2.749001663893523
0.3484250985873309,1.749001663893523
0.34942345130534613,0.7490016638935231
0.3504218040233614,0.7490016638935231
0.3514201567413767,-1.250998336106477
0.35241850945939196,-2.250998336106477
0.35341686217740725,-3.250998336106477
0.35441521489542255,0.7490016638935231
0.3554135676134378,-3.250998336106477
0.3564119203314531,-5.250998336106477
0.3574102730494684,-5.250998336106477
0.3584086257674836,-5.250998336106477
0.3594069784854989,-2.250998336106477
0.36040533120351415,-1.250998336106477
0.36140368392152944,-0.2509983361064769
0.36240203663954473,3.749001663893523
0.36340038935755997,6.749001663893523
0.36439874207557527,4.749001663893523
0.36539709479359056,3.749001663893523
0.3663954475116058,7.749001663893523
0.3673938002296211,7.749001663893523
0.3683921529476364,8.749001663893523
0.3693905056656516,6.749001663893523
0.3703888583836669,5.749001663893523
0.3713872111016822,4.749001663893523
0.37238556381969745,5.749001663893523
0.37338391653771275,4.749001663893523
0.37438226925572804,3.749001663893523
0.3753806219737433,0.7490016638935231
0.37637897469175857,1.749001663893523
0.37737732740977387,0.7490016638935231
0.3783756801277891,1.749001663893523
0.3793740328458044,0.7490016638935231
0.3803723855638197,2.749001663893523
0.38137073828183493,1.749001663893523
0.3823690909998502,0.7490016638935231
0.38336744371786546,0.7490016638935231
0.38436579643588076,1.749001663893523
0.38536414915389605,2.749001663893523
0.3863625018719113,3.749001663893523
0.3873608545899266,6.749001663893523
0.3883592073079419,4.749001663893523
0.3893575600259571,2.749001663893523
0.3903559127439724,5.749001663893523
0.3913542654619877,4.749001663893523
0.39235261818000294,5.749001663893523
0.39335097089801824,2.749001663893523
0.39434932361603353,2.749001663893523
0.39534767633404877,0.7490016638935231
0.39634602905206406,0.7490016638935231
0.39734438177007936,2.749001663893523
0.3983427344880946,0.7490016638935231
0.3993410872061099,2.749001663893523
0.4003394399241252,1.749001663893523
0.4013377926421404,1.749001663893523
0.4023361453601557,1.749001663893523
0.403334498078171,2.749001663893523
0.40433285079618625,3.749001663893523
0.40533120351420154,4.749001663893523
0.40632955623221684,5.749001663893523
0.4073279089502321,7.749001663893523
0.40832626166824737,5.749001663893523
0.4093246143862626,5.749001663893523
0.4103229671042779,7.749001663893523
0.4113213198222932,4.749001663893523
0.41231967254030844,4.749001663893523
0.41331802525832373,3.749001663893523
0.414316377976339,2.749001663893523
0.41531473069435426,0.7490016638935231
0.41631308341236956,1.749001663893523
0.41731143613038485,0.7490016638935231
0.4183097888484001,-0.2509983361064769
0.4193081415664154,-0.2509983361064769
0.4203064942844307,0.7490016638935231
0.4213048470024459,2.749001663893523
0.4223031997204612,2.749001663893523
0.4233015524384765,3.749001663893523
0.42429990515649174,4.749001663893523
0.42529825787450704,6.749001663893523
0.42629661059252233,5.749001663893523
0.42729496331053757,6.749001663893523
0.42829331602855286,3.749001663893523
0.42929166874656816,3.749001663893523
0.4302900214645834,3.749001663893523
0.4312883741825987,3.749001663893523
0.4322867269006139,4.749001663893523
0.4332850796186292,2.749001663893523
0.4342834323366445,1.749001663893523
0.43528178505465975,0.7490016638935231
0.43628013777267505,3.749001663893523
0.43727849049069034,6.749001663893523
0.4382768432087056,9.749001663893523
0.4392751959267209,8.749001663893523
0.44027354864473617,8.749001663893523
0.4412719013627514,10.749001663893523
0.4422702540807667,7.749001663893523
0.443268606798782,7.749001663893523
0.44426695951679723,4.749001663893523
0.4452653122348125,5.749001663893523
0.4462636649528278,7.749001663893523
0.44726201767084306,6.749001663893523
0.44826037038885835,7.749001663893523
0.44925872310687365,4.749001663893523
0.4502570758248889,5.749001663893523
0.4512554285429042,6.749001663893523
0.4522537812609195,7.749001663893523
0.4532521339789347,5.749001663893523
0.45425048669695,5.749001663893523
0.45524883941496525,4.749001663893523
0.45624719213298054,4.749001663893523
0.45724554485099583,2.749001663893523
0.45824389756901107,3.749001663893523
0.45924225028702637,3.749001663893523
0.46024060300504166,3.749001663893523
0.4612389557230569,2.749001663893523
0.4622373084410722,5.749001663893523
0.4632356611590875,12.749001663893523
0.4642340138771027,12.749001663893523
0.465232366595118,14.749001663893523
0.4662307193131333,13.749001663893523
0.46722907203114855,13.749001663893523
0.46822742474916385,13.749001663893523
0.46922577746717914,14.749001663893523
0.4702241301851944,10.749001663893523
0.47122248290320967,11.749001663893523
0.47222083562122497,12.749001663893523
0.4732191883392402,10.749001663893523
0.4742175410572555,7.749001663893523
0.4752158937752708,8.749001663893523
0.47621424649328603,5.749001663893523
0.4772125992113013,5.749001663893523
0.47821095192931656,4.749001663893523
0.47920930464733186,4.749001663893523
0.48020765736534715,6.749001663893523
0.4812060100833624,9.749001663893523
0.4822043628013777,9.749001663893523
0.483202715519393,12.749001663893523
0.4842010682374082,18.749001663893523
0.4851994209554235,19.749001663893523
0.4861977736734388,20.749001663893523
0.48719612639145404,19.749001663893523
0.48819447910946934,18.749001663893523
0.48919283182748463,17.749001663893523
0.49019118454549987,13.749001663893523
0.49118953726351516,12.749001663893523
0.49218788998153046,12.749001663893523
0.4931862426995457,8.749001663893523
0.494184595417561,7.749001663893523
0.4951829481355763,7.749001663893523
0.4961813008535915,4.749001663893523
0.4971796535716068,3.749001663893523
0.4981780062896221,2.749001663893523
0.49917635900763735,2.749001663893523
0.5001747117256526,3.749001663893523
0.5011730644436679,4.749001663893523
0.5021714171616832,4.749001663893523
0.5031697698796984,6.749001663893523
0.5041681225977137,14.749001663893523
0.505166475315729,22.749001663893523
0.5061648280337443,26.749001663893523
0.5071631807517596,24.749001663893523
0.5081615334697749,21.749001663893523
0.5091598861877901,20.749001663893523
0.5101582389058054,16.749001663893523
0.5111565916238207,16.749001663893523
0.512154944341836,12.749001663893523
0.5131532970598512,9.749001663893523
0.5141516497778664,7.749001663893523
0.5151500024958817,2.749001663893523
0.516148355213897,0.7490016638935231
0.5171467079319123,-3.250998336106477
0.5181450606499276,-3.250998336106477
0.5191434133679429,-3.250998336106477
0.5201417660859581,-0.2509983361064769
0.5211401188039734,0.7490016638935231
0.5221384715219887,0.7490016638935231
0.523136824240004,0.7490016638935231
0.5241351769580193,3.749001663893523
0.5251335296760345,1.749001663893523
0.5261318823940497,-0.2509983361064769
0.527130235112065,-1.250998336106477
0.5281285878300803,-4.250998336106477
0.5291269405480956,-5.250998336106477
0.5301252932661109,-4.250998336106477
0.5311236459841262,-6.250998336106477
0.5321219987021414,-5.250998336106477
0.5331203514201567,-4.250998336106477
0.534118704138172,-4.250998336106477
0.5351170568561873,-7.250998336106477
0.5361154095742026,-10.250998336106477
0.5371137622922177,-8.250998336106477
0.538112115010233,-8.250998336106477
0.5391104677282483,-8.250998336106477
0.5401088204462636,-7.250998336106477
0.5411071731642789,-7.250998336106477
0.5421055258822942,-9.250998336106477
0.5431038786003094,-8.250998336106477
0.5441022313183247,-7.250998336106477
0.54510058403634,-7.250998336106477
0.5460989367543553,-7.250998336106477
0.5470972894723706,-4.250998336106477
0.5480956421903859,-7.250998336106477
0.549093994908401,-8.250998336106477
0.5500923476264163,-5.250998336106477
0.5510907003444316,-10.250998336106477
0.5520890530624469,-8.250998336106477
0.5530874057804622,-10.250998336106477
0.5540857584984775,-11.250998336106477
0.5550841112164927,-11.250998336106477
0.556082463934508,-11.250998336106477
0.5570808166525233,-10.250998336106477
0.5580791693705386,-10.250998336106477
0.5590775220885539,-8.250998336106477
0.5600758748065691,-9.250998336106477
0.5610742275245844,-7.250998336106477
0.5620725802425997,-2.250998336106477
0.563070932960615,-5.250998336106477
0.5640692856786302,-6.250998336106477
0.5650676383966455,-8.250998336106477
0.5660659911146607,-6.250998336106477
0.567064343832676,-6.250998336106477
0.5680626965506913,-5.250998336106477
0.5690610492687066,-7.250998336106477
0.5700594019867219,-6.250998336106477
0.5710577547047372,-7.250998336106477
0.5720561074227524,-8.250998336106477
0.5730544601407677,-10.250998336106477
0.574052812858783,-9.250998336106477
0.5750511655767983,-9.250998336106477
0.5760495182948135,-11.250998336106477
0.5770478710128288,-11.250998336106477
0.578046223730844,-12.250998336106477
0.5790445764488593,-10.250998336106477
0.5800429291668746,-10.250998336106477
0.5810412818848899,-7.250998336106477
0.5820396346029052,-7.250998336106477
0.5830379873209204,-7.250998336106477
0.5840363400389357,-6.250998336106477
0.585034692756951,-5.250998336106477
0.5860330454749663,-2.250998336106477
0.5870313981929816,-2.250998336106477
0.5880297509109969,-2.250998336106477
0.589028103629012,-4.250998336106477
0.5900264563470273,-8.250998336106477
0.5910248090650426,-4.250998336106477
0.5920231617830579,-4.250998336106477
0.5930215145010732,-8.250998336106477
0.5940198672190885,-8.250998336106477
0.5950182199371037,-10.250998336106477
0.596016572655119,-10.250998336106477
0.5970149253731343,-11.250998336106477
0.5980132780911496,-9.250998336106477
0.5990116308091649,-7.250998336106477
0.6000099835271802,-8.250998336106477
0.6010083362451953,-4.250998336106477
0.6020066889632106,-8.250998336106477
0.6030050416812259,-7.250998336106477
0.6040033943992412,-1.250998336106477
0.6050017471172565,-0.2509983361064769
0.6060000998352717,-0.2509983361064769
0.606998452553287,-0.2509983361064769
0.6079968052713023,-0.2509983361064769
0.6089951579893176,1.749001663893523
0.6099935107073329,-1.250998336106477
0.6109918634253482,-1.250998336106477
0.6119902161433634,-2.250998336106477
0.6129885688613786,-2.250998336106477
0.6139869215793939,-1.250998336106477
0.6149852742974092,-3.250998336106477
0.6159836270154245,-4.250998336106477
0.6169819797334398,-6.250998336106477
0.617980332451455,-5.250998336106477
0.6189786851694703,-6.250998336106477
0.6199770378874856,-4.250998336106477
0.6209753906055009,-2.250998336106477
0.6219737433235162,-3.250998336106477
0.6229720960415315,0.7490016638935231
0.6239704487595467,-0.2509983361064769
0.624968801477562,0.7490016638935231
0.6259671541955772,0.7490016638935231
0.6269655069135925,0.7490016638935231
0.6279638596316078,1.749001663893523
0.628962212349623,0.7490016638935231
0.6299605650676383,2.749001663893523
0.6309589177856536,0.7490016638935231
0.6319572705036689,0.7490016638935231
0.6329556232216842,-2.250998336106477
0.6339539759396995,-4.250998336106477
0.6349523286577147,-1.250998336106477
0.63595068137573,-4.250998336106477
0.6369490340937453,-4.250998336106477
0.6379473868117606,-4.250998336106477
0.6389457395297758,-3.250998336106477
0.6399440922477911,-3.250998336106477
0.6409424449658063,-3.250998336106477
0.6419407976838216,-2.250998336106477
0.6429391504018369,-1.250998336106477
0.6439375031198522,-0.2509983361064769
0.6449358558378675,0.7490016638935231
0.6459342085558828,-0.2509983361064769
0.646932561273898,1.749001663893523
0.6479309139919133,1.749001663893523
0.6489292667099286,0.7490016638935231
0.6499276194279439,1.749001663893523
0.6509259721459592,-0.2509983361064769
0.6519243248639743,-0.2509983361064769
0.6529226775819896,-0.2509983361064769
0.6539210303000049,-0.2509983361064769
0.6549193830180202,1.749001663893523
0.6559177357360355,-0.2509983361064769
0.6569160884540508,-0.2509983361064769
0.657914441172066,-3.250998336106477
0.6589127938900813,-0.2509983361064769
0.6599111466080966,-1.250998336106477
0.6609094993261119,1.749001663893523
0.6619078520441272,0.7490016638935231
0.6629062047621425,-1.250998336106477
0.6639045574801576,0.7490016638935231
0.6649029101981729,0.7490016638935231
0.6659012629161882,0.7490016638935231
0.6668996156342035,2.749001663893523
0.6678979683522188,1.749001663893523
0.6688963210702341,2.749001663893523
0.6698946737882493,-0.2509983361064769
0.6708930265062646,-1.250998336106477
0.6718913792242799,-3.250998336106477
0.6728897319422952,-3.250998336106477
0.6738880846603105,-5.250998336106477
0.6748864373783257,-6.250998336106477
0.675884790096341,-8.250998336106477
0.6768831428143562,-6.250998336106477
0.6778814955323715,-7.250998336106477
0.6788798482503868,-3.250998336106477
0.6798782009684021,-2.250998336106477
0.6808765536864173,-3.250998336106477
0.6818749064044326,-2.250998336106477
0.6828732591224479,0.7490016638935231
0.6838716118404632,-2.250998336106477
0.6848699645584785,-2.250998336106477
0.6858683172764938,-1.250998336106477
0.686866669994509,0.7490016638935231
0.6878650227125243,-0.2509983361064769
0.6888633754305395,0.7490016638935231
0.6898617281485548,0.7490016638935231
0.6908600808665701,-3.250998336106477
0.6918584335845854,-0.2509983361064769
0.6928567863026006,-2.250998336106477
0.6938551390206159,-3.250998336106477
0.6948534917386312,-3.250998336106477
0.6958518444566465,-6.250998336106477
0.6968501971746618,-7.250998336106477
0.697848549892677,-3.250998336106477
0.6988469026106923,-5.250998336106477
0.6998452553287076,-5.250998336106477
0.7008436080467229,-3.250998336106477
0.7018419607647381,-2.250998336106477
0.7028403134827534,0.7490016638935231
0.7038386662007686,1.749001663893523
0.7048370189187839,0.7490016638935231
0.7058353716367992,1.749001663893523
0.7068337243548145,0.7490016638935231
0.7078320770728298,0.7490016638935231
0.7088304297908451,0.7490016638935231
0.7098287825088603,-1.250998336106477
0.7108271352268756,-2.250998336106477
0.7118254879448909,-1.250998336106477
0.7128238406629062,-2.250998336106477
0.7138221933809215,-2.250998336106477
0.7148205460989367,-2.250998336106477
0.7158188988169519,-4.250998336106477
0.7168172515349672,-3.250998336106477
0.7178156042529825,-8.250998336106477
0.7188139569709978,-5.250998336106477
0.7198123096890131,-6.250998336106477
0.7208106624070283,-4.250998336106477
0.7218090151250436,-1.250998336106477
0.7228073678430589,-0.2509983361064769
0.7238057205610742,1.749001663893523
0.7248040732790895,0.7490016638935231
0.7258024259971048,0.7490016638935231
0.7268007787151199,0.7490016638935231
0.7277991314331352,2.749001663893523
0.7287974841511505,-1.250998336106477
0.7297958368691658,0.7490016638935231
0.7307941895871811,0.7490016638935231
0.7317925423051964,-1.250998336106477
0.7327908950232116,-3.250998336106477
0.7337892477412269,-2.250998336106477
0.7347876004592422,-3.250998336106477
0.7357859531772575,-3.250998336106477
0.7367843058952728,-5.250998336106477
0.7377826586132881,-4.250998336106477
0.7387810113313033,-3.250998336106477
0.7397793640493185,-6.250998336106477
0.7407777167673338,-2.250998336106477
0.7417760694853491,-1.250998336106477
0.7427744222033644,-3.250998336106477
0.7437727749213796,-3.250998336106477
0.7447711276393949,-1.250998336106477
0.7457694803574102,1.749001663893523
0.7467678330754255,3.749001663893523
0.7477661857934408,3.749001663893523
0.7487645385114561,3.749001663893523
0.7497628912294713,2.749001663893523
0.7507612439474866,1.749001663893523
0.7517595966655019,-0.2509983361064769
0.7527579493835171,0.7490016638935231
0.7537563021015324,-2.250998336106477
0.7547546548195477,-2.250998336106477
0.7557530075375629,-1.250998336106477
0.7567513602555782,-3.250998336106477
0.7577497129735935,-3.250998336106477
0.7587480656916088,-1.250998336106477
0.7597464184096241,-5.250998336106477
0.7607447711276394,-3.250998336106477
0.7617431238456546,-1.250998336106477
0.7627414765636699,-0.2509983361064769
0.7637398292816852,-2.250998336106477
0.7647381819997005,-0.2509983361064769
0.7657365347177157,1.749001663893523
0.7667348874357309,2.749001663893523
0.7677332401537462,2.749001663893523
0.7687315928717615,2.749001663893523
0.7697299455897768,1.749001663893523
0.7707282983077921,0.7490016638935231
0.7717266510258074,-0.2509983361064769
0.7727250037438226,-3.250998336106477
0.7737233564618379,-2.250998336106477
0.7747217091798532,-3.250998336106477
0.7757200618978685,-4.250998336106477
0.7767184146158838,-5.250998336106477
0.777716767333899,-5.250998336106477
0.7787151200519142,-3.250998336106477
0.7797134727699295,-2.250998336106477
0.7807118254879448,-3.250998336106477
0.7817101782059601,-0.2509983361064769
0.7827085309239754,-1.250998336106477
0.7837068836419907,-2.250998336106477
0.7847052363600059,-0.2509983361064769
0.7857035890780212,0.7490016638935231
0.7867019417960365,3.749001663893523
0.7877002945140518,5.749001663893523
0.7886986472320671,3.749001663893523
0.7896969999500824,1.749001663893523
0.7906953526680975,2.749001663893523
0.7916937053861128,-1.250998336106477
0.7926920581041281,-2.250998336106477
0.7936904108221434,-2.250998336106477
0.7946887635401587,-5.250998336106477
0.7956871162581739,-4.250998336106477
0.7966854689761892,-3.250998336106477
0.7976838216942045,-3.250998336106477
0.7986821744122198,-3.250998336106477
0.7996805271302351,-3.250998336106477
0.8006788798482504,-3.250998336106477
0.8016772325662656,-2.250998336106477
0.8026755852842808,0.7490016638935231
0.8036739380022961,0.7490016638935231
0.8046722907203114,1.749001663893523
0.8056706434383267,0.7490016638935231
0.806668996156342,2.749001663893523
0.8076673488743572,0.7490016638935231
0.8086657015923725,2.749001663893523
0.8096640543103878,2.749001663893523
0.8106624070284031,-2.250998336106477
0.8116607597464184,-1.250998336106477
0.8126591124644337,-3.250998336106477
0.8136574651824489,-1.250998336106477
0.8146558179004642,-1.250998336106477
0.8156541706184794,-3.250998336106477
0.8166525233364947,-1.250998336106477
0.81765087605451,-2.250998336106477
0.8186492287725252,-4.250998336106477
0.8196475814905405,-3.250998336106477
0.8206459342085558,-3.250998336106477
0.8216442869265711,-3.250998336106477
0.8226426396445864,0.7490016638935231
0.8236409923626017,0.7490016638935231
0.8246393450806169,0.7490016638935231
0.8256376977986322,1.749001663893523
0.8266360505166475,3.749001663893523
0.8276344032346628,2.749001663893523
0.828632755952678,2.749001663893523
0.8296311086706933,1.749001663893523
0.8306294613887085,1.749001663893523
0.8316278141067238,1.749001663893523
0.8326261668247391,-1.250998336106477
0.8336245195427544,-1.250998336106477
0.8346228722607697,0.7490016638935231
0.835621224978785,-2.250998336106477
0.8366195776968002,-2.250998336106477
0.8376179304148155,-2.250998336106477
0.8386162831328308,-4.250998336106477
0.8396146358508461,-4.250998336106477
0.8406129885688614,-0.2509983361064769
0.8416113412868765,-2.250998336106477
0.8426096940048918,0.7490016638935231
0.8436080467229071,0.7490016638935231
0.8446063994409224,-0.2509983361064769
0.8456047521589377,-0.2509983361064769
0.846603104876953,0.7490016638935231
0.8476014575949682,3.749001663893523
0.8485998103129835,1.749001663893523
0.8495981630309988,0.7490016638935231
0.8505965157490141,2.749001663893523
0.8515948684670294,0.7490016638935231
0.8525932211850447,-2.250998336106477
0.8535915739030598,-2.250998336106477
0.8545899266210751,-0.2509983361064769
0.8555882793390904,-4.250998336106477
0.8565866320571057,-4.250998336106477
0.857584984775121,-4.250998336106477
0.8585833374931363,-3.250998336106477
0.8595816902111515,-2.250998336106477
0.8605800429291668,-1.250998336106477
0.8615783956471821,0.7490016638935231
0.8625767483651974,0.7490016638935231
0.8635751010832127,2.749001663893523
0.8645734538012279,0.7490016638935231
0.8655718065192431,2.749001663893523
0.8665701592372584,0.7490016638935231
0.8675685119552737,1.749001663893523
0.868566864673289,2.749001663893523
0.8695652173913043,0.7490016638935231
0.8705635701093195,-1.250998336106477
0.8715619228273348,-2.250998336106477
0.8725602755453501,-1.250998336106477
0.8735586282633654,-3.250998336106477
0.8745569809813807,-3.250998336106477
0.875555333699396,-3.250998336106477
0.8765536864174112,-2.250998336106477
0.8775520391354265,-2.250998336106477
0.8785503918534417,0.7490016638935231
0.879548744571457,-0.2509983361064769
0.8805470972894723,-0.2509983361064769
0.8815454500074876,-0.2509983361064769
0.8825438027255028,0.7490016638935231
0.8835421554435181,-0.2509983361064769
0.8845405081615334,-0.2509983361064769
0.8855388608795487,-0.2509983361064769
0.886537213597564,0.7490016638935231
0.8875355663155792,1.749001663893523
0.8885339190335945,2.749001663893523
0.8895322717516098,0.7490016638935231
0.890530624469625,-1.250998336106477
0.8915289771876403,-0.2509983361064769
0.8925273299056556,0.7490016638935231
0.8935256826236708,-0.2509983361064769
0.8945240353416861,-3.250998336106477
0.8955223880597014,-4.250998336106477
0.8965207407777167,-4.250998336106477
0.897519093495732,-4.250998336106477
0.8985174462137473,0.7490016638935231
0.8995157989317625,-2.250998336106477
0.9005141516497778,0.7490016638935231
0.9015125043677931,-1.250998336106477
0.9025108570858084,1.749001663893523
0.9035092098038237,0.7490016638935231
0.904507562521839,3.749001663893523
0.9055059152398541,4.749001663893523
0.9065042679578694,3.749001663893523
0.9075026206758847,3.749001663893523
0.9085009733939,1.749001663893523
0.9094993261119153,0.7490016638935231
0.9104976788299305,0.7490016638935231
0.9114960315479458,1.749001663893523
0.9124943842659611,-0.2509983361064769
0.9134927369839764,-2.250998336106477
0.9144910897019917,-3.250998336106477
0.915489442420007,-2.250998336106477
0.9164877951380221,-3.250998336106477
0.9174861478560374,-5.250998336106477
0.9184845005740527,-5.250998336106477
0.919482853292068,-4.250998336106477
0.9204812060100833,-1.250998336106477
0.9214795587280986,-0.2509983361064769
0.9224779114461138,1.749001663893523
0.9234762641641291,-1.250998336106477
0.9244746168821444,2.749001663893523
0.9254729696001597,1.749001663893523
0.926471322318175,2.749001663893523
0.9274696750361903,2.749001663893523
0.9284680277542054,3.749001663893523
0.9294663804722207,2.749001663893523
0.930464733190236,2.749001663893523
0.9314630859082513,-0.2509983361064769
0.9324614386262666,-2.250998336106477
0.9334597913442818,-3.250998336106477
0.9344581440622971,-3.250998336106477
0.9354564967803124,-4.250998336106477
0.9364548494983277,-3.250998336106477
0.937453202216343,-4.250998336106477
0.9384515549343583,-1.250998336106477
0.9394499076523735,-1.250998336106477
0.9404482603703888,-0.2509983361064769
0.941446613088404,0.7490016638935231
0.9424449658064193,0.7490016638935231
0.9434433185244346,-0.2509983361064769
0.9444416712424499,-0.2509983361064769
0.9454400239604651,1.749001663893523
0.9464383766784804,1.749001663893523
0.9474367293964957,2.749001663893523
0.948435082114511,2.749001663893523
0.9494334348325263,0.7490016638935231
0.9504317875505416,-1.250998336106477
0.9514301402685568,0.7490016638935231
0.9524284929865721,-0.2509983361064769
0.9534268457045874,-3.250998336106477
0.9544251984226026,-2.250998336106477
0.9554235511406179,-1.250998336106477
0.9564219038586331,-2.250998336106477
0.9574202565766484,-3.250998336106477
0.9584186092946637,-2.250998336106477
0.959416962012679,-2.250998336106477
0.9604153147306943,-3.250998336106477
0.9614136674487096,-0.2509983361064769
0.9624120201667248,2.749001663893523
0.9634103728847401,2.749001663893523
0.9644087256027554,0.7490016638935231
0.9654070783207707,0.7490016638935231
0.966405431038786,0.7490016638935231
0.9674037837568012,0.7490016638935231
0.9684021364748164,-0.2509983361064769
0.9694004891928317,-0.2509983361064769
0.970398841910847,0.7490016638935231
0.9713971946288623,-3.250998336106477
0.9723955473468776,-2.250998336106477
0.9733939000648929,-2.250998336106477
0.9743922527829081,-2.250998336106477
0.9753906055009234,-1.250998336106477
0.9763889582189387,-1.250998336106477
0.977387310936954,-2.250998336106477
0.9783856636549693,0.7490016638935231
0.9793840163729844,-0.2509983361064769
0.9803823690909997,1.749001663893523
0.981380721809015,-0.2509983361064769
0.9823790745270303,-2.250998336106477
0.9833774272450456,1.749001663893523
0.9843757799630609,3.749001663893523
0.9853741326810761,1.749001663893523
0.9863724853990914,0.7490016638935231
0.9873708381171067,3.749001663893523
0.988369190835122,0.7490016638935231
0.9893675435531373,-0.2509983361064769
0.9903658962711526,-1.250998336106477
0.9913642489891678,0.7490016638935231
0.992362601707183,-0.2509983361064769
0.9933609544251983,-0.2509983361064769
0.9943593071432136,-1.250998336106477
0.9953576598612289,-2.250998336106477
0.9963560125792442,-2.250998336106477
0.9973543652972594,-0.2509983361064769
0.9983527180152747,-2.250998336106477
0.99935107073329,-4.250998336106477
1.0003494234513053,-2.250998336106477
1.0013477761693206,0.7490016638935231
1.0023461288873359,0.7490016638935231
1.0033444816053512,-0.2509983361064769
1.0043428343233665,-2.250998336106477
1.0053411870413815,-1.250998336106477
1.0063395397593968,-0.2509983361064769
1.0073378924774121,0.7490016638935231
1.0083362451954274,3.749001663893523
1.0093345979134427,1.749001663893523
1.010332950631458,0.7490016638935231
1.0113313033494733,0.7490016638935231
1.0123296560674886,1.749001663893523
1.0133280087855039,0.7490016638935231
1.0143263615035192,-2.250998336106477
1.0153247142215345,-1.250998336106477
1.0163230669395498,0.7490016638935231
1.0173214196575648,-0.2509983361064769
1.0183197723755801,-2.250998336106477
1.0193181250935954,-4.250998336106477
1.0203164778116107,-6.250998336106477
1.021314830529626,-2.250998336106477
1.0223131832476413,-2.250998336106477
1.0233115359656566,-0.2509983361064769
1.024309888683672,1.749001663893523
1.0253082414016872,2.749001663893523
1.0263065941197025,3.749001663893523
1.0273049468377178,0.7490016638935231
1.0283032995557329,-0.2509983361064769
1.0293016522737481,-0.2509983361064769
1.0303000049917634,-0.2509983361064769
1.0312983577097787,-3.250998336106477
1.032296710427794,-6.250998336106477
1.0332950631458093,-8.250998336106477
1.0342934158638246,-7.250998336106477
1.03529176858184,-8.250998336106477
1.0362901212998552,-8.250998336106477
1.0372884740178705,-6.250998336106477
1.0382868267358858,-4.250998336106477
1.039285179453901,-4.250998336106477
1.0402835321719162,-1.250998336106477
1.0412818848899315,0.7490016638935231
1.0422802376079467,1.749001663893523
1.043278590325962,3.749001663893523
1.0442769430439773,2.749001663893523
1.0452752957619926,0.7490016638935231
1.046273648480008,2.749001663893523
1.0472720011980232,1.749001663893523
1.0482703539160385,0.7490016638935231
1.0492687066340538,3.749001663893523
1.050267059352069,1.749001663893523
1.0512654120700842,3.749001663893523
1.0522637647880995,2.749001663893523
1.0532621175061148,1.749001663893523
1.05426047022413,0.7490016638935231
1.0552588229421453,2.749001663893523
1.0562571756601606,-0.2509983361064769
1.057255528378176,-2.250998336106477
1.0582538810961912,-3.250998336106477
1.0592522338142065,-3.250998336106477
1.0602505865322218,-6.250998336106477
1.0612489392502371,-6.250998336106477
1.0622472919682524,-6.250998336106477
1.0632456446862675,-4.250998336106477
1.0642439974042828,-5.250998336106477
1.065242350122298,-4.250998336106477
1.0662407028403134,-3.250998336106477
1.0672390555583287,-0.2509983361064769
1.068237408276344,-0.2509983361064769
1.0692357609943592,0.7490016638935231
1.0702341137123745,-0.2509983361064769
1.0712324664303898,-4.250998336106477
1.0722308191484051,-0.2509983361064769
1.0732291718664204,0.7490016638935231
1.0742275245844355,-0.2509983361064769
1.0752258773024508,-2.250998336106477
1.076224230020466,-2.250998336106477
1.0772225827384814,-5.250998336106477
1.0782209354564967,-3.250998336106477
1.079219288174512,-2.250998336106477
1.0802176408925273,-2.250998336106477
1.0812159936105425,1.749001663893523
1.0822143463285578,3.749001663893523
1.0832126990465731,2.749001663893523
1.0842110517645884,1.749001663893523
1.0852094044826037,2.749001663893523
1.0862077572006188,7.749001663893523
1.087206109918634,4.749001663893523
1.0882044626366494,3.749001663893523
1.0892028153546647,5.749001663893523
1.09020116807268,6.749001663893523
1.0911995207906953,4.749001663893523
1.0921978735087106,4.749001663893523
1.0931962262267259,4.749001663893523
1.0941945789447411,8.749001663893523
1.0951929316627564,5.749001663893523
1.0961912843807717,4.749001663893523
1.0971896370987868,3.749001663893523
1.098187989816802,5.749001663893523
1.0991863425348174,4.749001663893523
1.1001846952528327,6.749001663893523
1.101183047970848,5.749001663893523
1.1021814006888633,5.749001663893523
1.1031797534068786,6.749001663893523
1.1041781061248939,6.749001663893523
1.1051764588429092,6.749001663893523
1.1061748115609245,7.749001663893523
1.1071731642789397,3.749001663893523
1.108171516996955,3.749001663893523
1.1091698697149701,3.749001663893523
1.1101682224329854,0.7490016638935231
1.1111665751510007,0.7490016638935231
1.112164927869016,-1.250998336106477
1.1131632805870313,0.7490016638935231
1.1141616333050466,-2.250998336106477
1.1151599860230619,-5.250998336106477
1.1161583387410772,-5.250998336106477
1.1171566914590925,-5.250998336106477
1.1181550441771078,-3.250998336106477
1.119153396895123,-7.250998336106477
1.1201517496131381,-4.250998336106477
1.1211501023311534,-2.250998336106477
1.1221484550491687,-1.250998336106477
1.123146807767184,-3.250998336106477
1.1241451604851993,0.7490016638935231
1.1251435132032146,2.749001663893523
1.12614186592123,1.749001663893523
1.1271402186392452,1.749001663893523
1.1281385713572605,2.749001663893523
1.1291369240752758,1.749001663893523
1.130135276793291,1.749001663893523
1.1311336295113064,-1.250998336106477
1.1321319822293214,-3.250998336106477
1.1331303349473367,-1.250998336106477
1.134128687665352,-4.250998336106477
1.1351270403833673,-6.250998336106477
1.1361253931013826,-5.250998336106477
1.137123745819398,-6.250998336106477
1.1381220985374132,-4.250998336106477
1.1391204512554285,-1.250998336106477
1.1401188039734438,-4.250998336106477
1.141117156691459,-0.2509983361064769
1.1421155094094744,-0.2509983361064769
1.1431138621274894,2.749001663893523
1.1441122148455047,1.749001663893523
1.14511056756352,4.749001663893523
1.1461089202815353,4.749001663893523
1.1471072729995506,2.749001663893523
1.148105625717566,1.749001663893523
1.1491039784355812,0.7490016638935231
1.1501023311535965,-0.2509983361064769
1.1511006838716118,-1.250998336106477
1.152099036589627,-1.250998336106477
1.1530973893076424,-2.250998336106477
1.1540957420256577,-6.250998336106477
1.1550940947436728,-6.250998336106477
1.156092447461688,-6.250998336106477
1.1570908001797033,-7.250998336106477
1.1580891528977186,-3.250998336106477
1.159087505615734,-2.250998336106477
1.1600858583337492,0.7490016638935231
1.1610842110517645,0.7490016638935231
1.1620825637697798,2.749001663893523
1.163080916487795,0.7490016638935231
1.1640792692058104,1.749001663893523
1.1650776219238257,4.749001663893523
1.1660759746418408,4.749001663893523
1.167074327359856,2.749001663893523
1.1680726800778714,4.749001663893523
1.1690710327958866,4.749001663893523
1.170069385513902,0.7490016638935231
1.1710677382319172,-6.250998336106477
1.1720660909499325,-8.250998336106477
1.1730644436679478,-5.250998336106477
1.1740627963859631,-4.250998336106477
1.1750611491039784,-5.250998336106477
1.1760595018219937,-7.250998336106477
1.177057854540009,-5.250998336106477
1.178056207258024,-4.250998336106477
1.1790545599760394,-3.250998336106477
1.1800529126940547,-4.250998336106477
1.18105126541207,-0.2509983361064769
1.1820496181300852,0.7490016638935231
1.1830479708481005,0.7490016638935231
1.1840463235661158,0.7490016638935231
1.1850446762841311,4.749001663893523
1.1860430290021464,3.749001663893523
1.1870413817201617,3.749001663893523
1.188039734438177,6.749001663893523
1.189038087156192,1.749001663893523
1.1900364398742074,3.749001663893523
1.1910347925922227,0.7490016638935231
1.192033145310238,0.7490016638935231
1.1930314980282533,-0.2509983361064769
1.1940298507462686,-1.250998336106477
1.1950282034642838,-4.250998336106477
1.1960265561822991,-9.250998336106477
1.1970249089003144,-6.250998336106477
1.1980232616183297,-5.250998336106477
1.199021614336345,-2.250998336106477
1.2000199670543603,-1.250998336106477
1.2010183197723754,-0.2509983361064769
1.2020166724903907,3.749001663893523
1.203015025208406,1.749001663893523
1.2040133779264213,2.749001663893523
1.2050117306444366,5.749001663893523
1.2060100833624519,7.749001663893523
1.2070084360804672,5.749001663893523
1.2080067887984824,1.749001663893523
1.2090051415164977,2.749001663893523
1.210003494234513,2.749001663893523
1.2110018469525283,-0.2509983361064769
1.2120001996705434,0.7490016638935231
1.2129985523885587,0.7490016638935231
1.213996905106574,-3.250998336106477
1.2149952578245893,-6.250998336106477
1.2159936105426046,-9.250998336106477
1.2169919632606199,-7.250998336106477
1.2179903159786352,-8.250998336106477
1.2189886686966505,-5.250998336106477
1.2199870214146658,-4.250998336106477
1.220985374132681,-1.250998336106477
1.2219837268506963,1.749001663893523
1.2229820795687116,2.749001663893523
1.2239804322867267,2.749001663893523
1.224978785004742,3.749001663893523
1.2259771377227573,4.749001663893523
1.2269754904407726,4.749001663893523
1.2279738431587879,6.749001663893523
1.2289721958768032,3.749001663893523
1.2299705485948185,3.749001663893523
1.2309689013128338,-0.2509983361064769
1.231967254030849,-3.250998336106477
1.2329656067488644,0.7490016638935231
1.2339639594668796,0.7490016638935231
1.2349623121848947,-4.250998336106477
1.23596066490291,-3.250998336106477
1.2369590176209253,-4.250998336106477
1.2379573703389406,-3.250998336106477
1.238955723056956,-6.250998336106477
1.2399540757749712,-2.250998336106477
1.2409524284929865,1.749001663893523
1.2419507812110018,-0.2509983361064769
1.242949133929017,1.749001663893523
1.2439474866470324,4.749001663893523
1.2449458393650477,5.749001663893523
1.245944192083063,4.749001663893523
1.246942544801078,6.749001663893523
1.2479408975190933,5.749001663893523
1.2489392502371086,3.749001663893523
1.249937602955124,3.749001663893523
1.2509359556731392,2.749001663893523
1.2519343083911545,-2.250998336106477
1.2529326611091698,-0.2509983361064769
1.253931013827185,-2.250998336106477
1.2549293665452004,-8.250998336106477
1.2559277192632157,-5.250998336106477
1.256926071981231,-6.250998336106477
1.257924424699246,-2.250998336106477
1.2589227774172613,-2.250998336106477
1.2599211301352766,-4.250998336106477
1.260919482853292,-2.250998336106477
1.2619178355713072,-1.250998336106477
1.2629161882893225,-1.250998336106477
1.2639145410073378,2.749001663893523
1.264912893725353,3.749001663893523
1.2659112464433684,5.749001663893523
1.2669095991613837,2.749001663893523
1.267907951879399,2.749001663893523
1.2689063045974143,2.749001663893523
1.2699046573154293,1.749001663893523
1.2709030100334446,-0.2509983361064769
1.27190136275146,-1.250998336106477
1.2728997154694752,-2.250998336106477
1.2738980681874905,-2.250998336106477
1.2748964209055058,-5.250998336106477
1.275894773623521,-5.250998336106477
1.2768931263415364,-3.250998336106477
1.2778914790595517,-3.250998336106477
1.278889831777567,-3.250998336106477
1.2798881844955823,-4.250998336106477
1.2808865372135974,-3.250998336106477
1.2818848899316126,-3.250998336106477
1.282883242649628,-1.250998336106477
1.2838815953676432,-2.250998336106477
1.2848799480856585,1.749001663893523
1.2858783008036738,5.749001663893523
1.2868766535216891,4.749001663893523
1.2878750062397044,3.749001663893523
1.2888733589577197,3.749001663893523
1.289871711675735,3.749001663893523
1.2908700643937503,2.749001663893523
1.2918684171117656,-0.2509983361064769
1.2928667698297807,2.749001663893523
1.293865122547796,0.7490016638935231
1.2948634752658112,-2.250998336106477
1.2958618279838265,-4.250998336106477
1.2968601807018418,-6.250998336106477
1.2978585334198571,-8.250998336106477
1.2988568861378724,-4.250998336106477
1.2998552388558877,-4.250998336106477
1.300853591573903,-4.250998336106477
1.3018519442919183,-3.250998336106477
1.3028502970099336,-3.250998336106477
1.3038486497279487,-1.250998336106477
1.304847002445964,0.7490016638935231
1.3058453551639793,3.749001663893523
1.3068437078819946,4.749001663893523
1.3078420606000098,4.749001663893523
1.3088404133180251,4.749001663893523
1.3098387660360404,3.749001663893523
1.3108371187540557,2.749001663893523
1.311835471472071,0.7490016638935231
1.3128338241900863,2.749001663893523
1.3138321769081016,0.7490016638935231
1.314830529626117,-3.250998336106477
1.315828882344132,-3.250998336106477
1.3168272350621473,-2.250998336106477
1.3178255877801626,-2.250998336106477
1.3188239404981779,-3.250998336106477
1.3198222932161932,-5.250998336106477
1.3208206459342084,-3.250998336106477
1.3218189986522237,-0.2509983361064769
1.322817351370239,-2.250998336106477
1.3238157040882543,-2.250998336106477
1.3248140568062696,2.749001663893523
1.325812409524285,3.749001663893523
1.3268107622423,3.749001663893523
1.3278091149603153,0.7490016638935231
1.3288074676783306,2.749001663893523
1.3298058203963459,4.749001663893523
1.3308041731143612,2.749001663893523
1.3318025258323765,3.749001663893523
1.3328008785503918,0.7490016638935231
1.333799231268407,1.749001663893523
1.3347975839864223,-3.250998336106477
1.3357959367044376,0.7490016638935231
1.336794289422453,-4.250998336106477
1.3377926421404682,-5.250998336106477
1.3387909948584833,-6.250998336106477
1.3397893475764986,-5.250998336106477
1.3407877002945139,-3.250998336106477
1.3417860530125292,-0.2509983361064769
1.3427844057305445,-2.250998336106477
1.3437827584485598,-1.250998336106477
1.344781111166575,0.7490016638935231
1.3457794638845904,2.749001663893523
1.3467778166026056,2.749001663893523
1.347776169320621,2.749001663893523
1.3487745220386362,7.749001663893523
1.3497728747566513,5.749001663893523
1.3507712274746666,3.749001663893523
1.351769580192682,2.749001663893523
1.3527679329106972,3.749001663893523
1.3537662856287125,3.749001663893523
1.3547646383467278,0.7490016638935231
1.355762991064743,-2.250998336106477
1.3567613437827584,-3.250998336106477
1.3577596965007737,-3.250998336106477
1.358758049218789,-5.250998336106477
1.3597564019368042,-4.250998336106477
1.3607547546548195,-2.250998336106477
1.3617531073728346,-3.250998336106477
1.36275146009085,-1.250998336106477
1.3637498128088652,-1.250998336106477
1.3647481655268805,1.749001663893523
1.3657465182448958,3.749001663893523
1.366744870962911,2.749001663893523
1.3677432236809264,3.749001663893523
1.3687415763989417,4.749001663893523
1.369739929116957,4.749001663893523
1.3707382818349723,4.749001663893523
1.3717366345529876,4.749001663893523
1.3727349872710026,4.749001663893523
1.373733339989018,2.749001663893523
1.3747316927070332,0.7490016638935231
1.3757300454250485,-2.250998336106477
1.3767283981430638,-2.250998336106477
1.377726750861079,-0.2509983361064769
1.3787251035790944,-3.250998336106477
1.3797234562971097,-5.250998336106477
1.380721809015125,-4.250998336106477
1.3817201617331403,-6.250998336106477
1.3827185144511556,-6.250998336106477
1.3837168671691709,-5.250998336106477
1.384715219887186,-1.250998336106477
1.3857135726052012,0.7490016638935231
1.3867119253232165,0.7490016638935231
1.3877102780412318,4.749001663893523
1.388708630759247,5.749001663893523
1.3897069834772624,3.749001663893523
1.3907053361952777,4.749001663893523
1.391703688913293,3.749001663893523
1.3927020416313083,7.749001663893523
1.3937003943493236,4.749001663893523
1.3946987470673389,-0.2509983361064769
1.395697099785354,-3.250998336106477
1.3966954525033692,-4.250998336106477
1.3976938052213845,-5.250998336106477
1.3986921579393998,-5.250998336106477
1.3996905106574151,-4.250998336106477
1.4006888633754304,-2.250998336106477
1.4016872160934457,-5.250998336106477
1.402685568811461,-5.250998336106477
1.4036839215294763,-4.250998336106477
1.4046822742474916,-3.250998336106477
1.4056806269655069,3.749001663893523
1.4066789796835222,3.749001663893523
1.4076773324015373,3.749001663893523
1.4086756851195525,4.749001663893523
1.4096740378375678,6.749001663893523
1.4106723905555831,7.749001663893523
1.4116707432735984,4.749001663893523
1.4126690959916137,6.749001663893523
1.413667448709629,2.749001663893523
1.4146658014276443,0.7490016638935231
1.4156641541456596,-2.250998336106477
1.416662506863675,-4.250998336106477
1.4176608595816902,-5.250998336106477
1.4186592122997053,-11.250998336106477
1.4196575650177206,-8.250998336106477
1.4206559177357359,-7.250998336106477
1.4216542704537511,-8.250998336106477
1.4226526231717664,-9.250998336106477
1.4236509758897817,-8.250998336106477
1.424649328607797,-1.250998336106477
1.4256476813258123,1.749001663893523
1.4266460340438276,-2.250998336106477
1.427644386761843,0.7490016638935231
1.4286427394798582,5.749001663893523
1.4296410921978735,5.749001663893523
1.4306394449158886,7.749001663893523
1.4316377976339039,7.749001663893523
1.4326361503519192,8.749001663893523
1.4336345030699345,3.749001663893523
1.4346328557879497,2.749001663893523
1.435631208505965,-2.250998336106477
1.4366295612239803,-5.250998336106477
1.4376279139419956,-6.250998336106477
1.438626266660011,-10.250998336106477
1.4396246193780262,-8.250998336106477
1.4406229720960415,-8.250998336106477
1.4416213248140566,-8.250998336106477
1.4426196775320719,-9.250998336106477
1.4436180302500872,-6.250998336106477
1.4446163829681025,0.7490016638935231
1.4456147356861178,-1.250998336106477
1.446613088404133,-0.2509983361064769
1.4476114411221483,5.749001663893523
1.4486097938401636,6.749001663893523
1.449608146558179,5.749001663893523
1.4506064992761942,8.749001663893523
1.4516048519942095,7.749001663893523
1.4526032047122248,8.749001663893523
1.4536015574302399,8.749001663893523
1.4545999101482552,0.7490016638935231
1.4555982628662705,-0.2509983361064769
1.4565966155842858,-5.250998336106477
1.457594968302301,-5.250998336106477
1.4585933210203164,-10.250998336106477
1.4595916737383317,-11.250998336106477
1.460590026456347,-7.250998336106477
1.4615883791743622,-7.250998336106477
1.4625867318923775,-10.250998336106477
1.4635850846103928,-8.250998336106477
1.464583437328408,0.7490016638935231
1.4655817900464232,1.749001663893523
1.4665801427644385,0.7490016638935231
1.4675784954824538,4.749001663893523
1.468576848200469,3.749001663893523
1.4695752009184844,7.749001663893523
1.4705735536364997,6.749001663893523
1.471571906354515,4.749001663893523
1.4725702590725303,10.749001663893523
1.4735686117905455,7.749001663893523
1.4745669645085608,2.749001663893523
1.4755653172265761,0.7490016638935231
1.4765636699445912,-5.250998336106477
1.4775620226626065,-7.250998336106477
1.4785603753806218,-9.250998336106477
1.479558728098637,-7.250998336106477
1.4805570808166524,-8.250998336106477
1.4815554335346677,-10.250998336106477
1.482553786252683,-11.250998336106477
1.4835521389706983,-7.250998336106477
1.4845504916887136,-4.250998336106477
1.4855488444067289,-3.250998336106477
1.4865471971247441,-2.250998336106477
1.4875455498427592,3.749001663893523
1.4885439025607745,9.749001663893523
1.4895422552787898,9.749001663893523
1.490540607996805,10.749001663893523
1.4915389607148204,8.749001663893523
1.4925373134328357,10.749001663893523
1.493535666150851,3.749001663893523
1.4945340188688663,-1.250998336106477
1.4955323715868816,-4.250998336106477
1.4965307243048969,-3.250998336106477
1.4975290770229122,-4.250998336106477
1.4985274297409275,-9.250998336106477
1.4995257824589425,-8.250998336106477
1.5005241351769578,-9.250998336106477
1.5015224878949731,-9.250998336106477
1.5025208406129884,-8.250998336106477
1.5035191933310037,-8.250998336106477
1.504517546049019,-1.250998336106477
1.5055158987670343,2.749001663893523
1.5065142514850496,-0.2509983361064769
1.5075126042030649,5.749001663893523
1.5085109569210802,6.749001663893523
1.5095093096390955,8.749001663893523
1.5105076623571105,7.749001663893523
1.5115060150751258,7.749001663893523
1.5125043677931411,9.749001663893523
1.5135027205111564,4.749001663893523
1.5145010732291717,-1.250998336106477
1.515499425947187,-1.250998336106477
1.5164977786652023,-5.250998336106477
1.5174961313832176,-8.250998336106477
1.5184944841012329,-13.250998336106477
1.5194928368192482,-9.250998336106477
1.5204911895372635,-5.250998336106477
1.5214895422552788,-8.250998336106477
1.5224878949732938,-7.250998336106477
1.5234862476913091,-7.250998336106477
1.5244846004093244,-0.2509983361064769
1.5254829531273397,4.749001663893523
1.526481305845355,2.749001663893523
1.5274796585633703,2.749001663893523
1.5284780112813856,6.749001663893523
1.529476363999401,8.749001663893523
1.5304747167174162,9.749001663893523
1.5314730694354315,5.749001663893523
1.5324714221534468,8.749001663893523
1.5334697748714619,3.749001663893523
1.5344681275894771,-1.250998336106477
1.5354664803074924,0.7490016638935231
1.5364648330255077,-2.250998336106477
1.537463185743523,-9.250998336106477
1.5384615384615383,-9.250998336106477
1.5394598911795536,-8.250998336106477
1.540458243897569,-8.250998336106477
1.5414565966155842,-8.250998336106477
1.5424549493335995,-8.250998336106477
1.5434533020516148,-9.250998336106477
1.54445165476963,-3.250998336106477
1.5454500074876452,3.749001663893523
1.5464483602056605,0.7490016638935231
1.5474467129236757,4.749001663893523
1.548445065641691,7.749001663893523
1.5494434183597063,7.749001663893523
1.5504417710777216,9.749001663893523
1.551440123795737,7.749001663893523
1.5524384765137522,10.749001663893523
1.5534368292317675,3.749001663893523
1.5544351819497828,1.749001663893523
1.555433534667798,-1.250998336106477
1.5564318873858134,-5.250998336106477
1.5574302401038285,-6.250998336106477
1.5584285928218438,-11.250998336106477
1.559426945539859,-11.250998336106477
1.5604252982578743,-9.250998336106477
1.5614236509758896,-8.250998336106477
1.562422003693905,-8.250998336106477
1.5634203564119202,-8.250998336106477
1.5644187091299355,-1.250998336106477
1.5654170618479508,4.749001663893523
1.5664154145659661,3.749001663893523
1.5674137672839814,4.749001663893523
1.5684121200019965,7.749001663893523
1.5694104727200118,6.749001663893523
1.570408825438027,7.749001663893523
1.5714071781560424,6.749001663893523
1.5724055308740577,8.749001663893523
1.573403883592073,4.749001663893523
1.5744022363100882,0.7490016638935231
1.5754005890281035,-1.250998336106477
1.5763989417461188,-3.250998336106477
1.5773972944641341,-6.250998336106477
1.5783956471821494,-8.250998336106477
1.5793939999001647,-10.250998336106477
1.5803923526181798,-7.250998336106477
1.581390705336195,-6.250998336106477
1.5823890580542104,-7.250998336106477
1.5833874107722257,-4.250998336106477
1.584385763490241,0.7490016638935231
1.5853841162082563,0.7490016638935231
1.5863824689262715,2.749001663893523
1.5873808216442868,4.749001663893523
1.5883791743623021,6.749001663893523
1.5893775270803174,7.749001663893523
1.5903758797983327,9.749001663893523
1.5913742325163478,7.749001663893523
1.592372585234363,6.749001663893523
1.5933709379523784,3.749001663893523
1.5943692906703937,-2.250998336106477
1.595367643388409,-3.250998336106477
1.5963659961064243,-6.250998336106477
1.5973643488244396,-8.250998336106477
1.5983627015424549,-8.250998336106477
1.5993610542604701,-8.250998336106477
1.6003594069784854,-8.250998336106477
1.6013577596965007,-4.250998336106477
1.602356112414516,-5.250998336106477
1.603354465132531,-3.250998336106477
1.6043528178505464,2.749001663893523
1.6053511705685617,3.749001663893523
1.606349523286577,0.7490016638935231
1.6073478760045923,4.749001663893523
1.6083462287226076,5.749001663893523
1.6093445814406229,7.749001663893523
1.6103429341586382,8.749001663893523
1.6113412868766535,7.749001663893523
1.6123396395946687,5.749001663893523
1.613337992312684,2.749001663893523
1.6143363450306991,-2.250998336106477
1.6153346977487144,-6.250998336106477
1.6163330504667297,-8.250998336106477
1.617331403184745,-8.250998336106477
1.6183297559027603,-10.250998336106477
1.6193281086207756,-9.250998336106477
1.6203264613387909,-6.250998336106477
1.6213248140568062,-5.250998336106477
1.6223231667748215,-3.250998336106477
1.6233215194928368,-0.2509983361064769
1.624319872210852,3.749001663893523
1.6253182249288673,3.749001663893523
1.6263165776468824,3.749001663893523
1.6273149303648977,5.749001663893523
1.628313283082913,5.749001663893523
1.6293116358009283,5.749001663893523
1.6303099885189436,5.749001663893523
1.631308341236959,6.749001663893523
1.6323066939549742,7.749001663893523
1.6333050466729895,4.749001663893523
1.6343033993910048,-5.250998336106477
1.63530175210902,-5.250998336106477
1.6363001048270354,-5.250998336106477
1.6372984575450504,-6.250998336106477
1.6382968102630657,-10.250998336106477
1.639295162981081,-9.250998336106477
1.6402935156990963,-5.250998336106477
1.6412918684171116,-3.250998336106477
1.642290221135127,-3.250998336106477
1.6432885738531422,-0.2509983361064769
1.6442869265711575,2.749001663893523
1.6452852792891728,4.749001663893523
1.646283632007188,4.749001663893523
1.6472819847252034,3.749001663893523
1.6482803374432187,7.749001663893523
1.6492786901612337,4.749001663893523
1.650277042879249,3.749001663893523
1.6512753955972643,5.749001663893523
1.6522737483152796,5.749001663893523
1.653272101033295,0.7490016638935231
1.6542704537513102,-6.250998336106477
1.6552688064693255,-7.250998336106477
1.6562671591873408,-8.250998336106477
1.657265511905356,-10.250998336106477
1.6582638646233714,-10.250998336106477
1.6592622173413867,-5.250998336106477
1.6602605700594018,-4.250998336106477
1.661258922777417,-1.250998336106477
1.6622572754954323,-2.250998336106477
1.6632556282134476,-1.250998336106477
1.664253980931463,6.749001663893523
1.6652523336494782,6.749001663893523
1.6662506863674935,4.749001663893523
1.6672490390855088,7.749001663893523
1.668247391803524,7.749001663893523
1.6692457445215394,7.749001663893523
1.6702440972395547,4.749001663893523
1.67124244995757,2.749001663893523
1.672240802675585,2.749001663893523
1.6732391553936004,-0.2509983361064769
1.6742375081116156,-5.250998336106477
1.675235860829631,-6.250998336106477
1.6762342135476462,-7.250998336106477
1.6772325662656615,-7.250998336106477
1.6782309189836768,-8.250998336106477
1.6792292717016921,-13.250998336106477
1.6802276244197074,-6.250998336106477
1.6812259771377227,-4.250998336106477
1.682224329855738,-3.250998336106477
1.683222682573753,4.749001663893523
1.6842210352917684,7.749001663893523
1.6852193880097837,6.749001663893523
1.686217740727799,5.749001663893523
1.6872160934458142,6.749001663893523
1.6882144461638295,7.749001663893523
1.6892127988818448,6.749001663893523
1.6902111515998601,3.749001663893523
1.6912095043178754,0.7490016638935231
1.6922078570358907,4.749001663893523
1.693206209753906,-2.250998336106477
1.6942045624719213,-8.250998336106477
1.6952029151899364,-9.250998336106477
1.6962012679079517,-7.250998336106477
1.697199620625967,-7.250998336106477
1.6981979733439823,-11.250998336106477
1.6991963260619976,-8.250998336106477
1.7001946787800128,-5.250998336106477
1.7011930314980281,-1.250998336106477
1.7021913842160434,-2.250998336106477
1.7031897369340587,-1.250998336106477
1.704188089652074,4.749001663893523
1.7051864423700893,7.749001663893523
1.7061847950881044,7.749001663893523
1.7071831478061197,4.749001663893523
1.708181500524135,4.749001663893523
1.7091798532421503,5.749001663893523
1.7101782059601656,5.749001663893523
1.7111765586781809,2.749001663893523
1.7121749113961962,3.749001663893523
1.7131732641142114,-1.250998336106477
1.7141716168322267,-2.250998336106477
1.715169969550242,-10.250998336106477
1.7161683222682573,-11.250998336106477
1.7171666749862726,-10.250998336106477
1.7181650277042877,-12.250998336106477
1.719163380422303,-7.250998336106477
1.7201617331403183,-4.250998336106477
1.7211600858583336,-1.250998336106477
1.7221584385763489,-0.2509983361064769
1.7231567912943642,0.7490016638935231
1.7241551440123795,5.749001663893523
1.7251534967303948,7.749001663893523
1.72615184944841,4.749001663893523
1.7271502021664253,6.749001663893523
1.7281485548844406,7.749001663893523
1.7291469076024557,8.749001663893523
1.730145260320471,4.749001663893523
1.7311436130384863,4.749001663893523
1.7321419657565016,3.749001663893523
1.7331403184745169,0.7490016638935231
1.7341386711925322,-4.250998336106477
1.7351370239105475,-8.250998336106477
1.7361353766285628,-10.250998336106477
1.737133729346578,-8.250998336106477
1.7381320820645934,-9.250998336106477
1.7391304347826086,-8.250998336106477
1.740128787500624,-6.250998336106477
1.741127140218639,-2.250998336106477
1.7421254929366543,-3.250998336106477
1.7431238456546696,-0.2509983361064769
1.744122198372685,4.749001663893523
1.7451205510907002,7.749001663893523
1.7461189038087155,4.749001663893523
1.7471172565267308,8.749001663893523
1.748115609244746,7.749001663893523
1.7491139619627614,3.749001663893523
1.7501123146807767,3.749001663893523
1.751110667398792,2.749001663893523
1.752109020116807,2.749001663893523
1.7531073728348223,-0.2509983361064769
1.7541057255528376,-5.250998336106477
1.755104078270853,-6.250998336106477
1.7561024309888682,-7.250998336106477
1.7571007837068835,-8.250998336106477
1.7580991364248988,-13.250998336106477
1.759097489142914,-8.250998336106477
1.7600958418609294,-4.250998336106477
1.7610941945789447,-3.250998336106477
1.76209254729696,-1.250998336106477
1.7630909000149753,2.749001663893523
1.7640892527329903,4.749001663893523
1.7650876054510056,7.749001663893523
1.766085958169021,6.749001663893523
1.7670843108870362,3.749001663893523
1.7680826636050515,5.749001663893523
1.7690810163230668,8.749001663893523
1.770079369041082,3.749001663893523
1.7710777217590974,3.749001663893523
1.7720760744771127,5.749001663893523
1.773074427195128,1.749001663893523
1.7740727799131433,-5.250998336106477
1.7750711326311583,-8.250998336106477
1.7760694853491736,-8.250998336106477
1.777067838067189,-10.250998336106477
1.7780661907852042,-10.250998336106477
1.7790645435032195,-10.250998336106477
1.7800628962212348,-4.250998336106477
1.78106124893925,-2.250998336106477
1.7820596016572654,-2.250998336106477
1.7830579543752807,2.749001663893523
1.784056307093296,6.749001663893523
1.7850546598113113,5.749001663893523
1.7860530125293266,4.749001663893523
1.7870513652473416,5.749001663893523
1.788049717965357,6.749001663893523
1.7890480706833722,3.749001663893523
1.7900464234013875,3.749001663893523
1.7910447761194028,2.749001663893523
1.7920431288374181,1.749001663893523
1.7930414815554334,-2.250998336106477
1.7940398342734487,-6.250998336106477
1.795038186991464,-9.250998336106477
1.7960365397094793,-9.250998336106477
1.7970348924274946,-6.250998336106477
1.7980332451455097,-7.250998336106477
1.799031597863525,-5.250998336106477
1.8000299505815403,-5.250998336106477
1.8010283032995555,-2.250998336106477
1.8020266560175708,-3.250998336106477
1.8030250087355861,0.7490016638935231
1.8040233614536014,6.749001663893523
1.8050217141716167,5.749001663893523
1.806020066889632,3.749001663893523
1.8070184196076473,7.749001663893523
1.8080167723256626,7.749001663893523
1.809015125043678,1.749001663893523
1.810013477761693,0.7490016638935231
1.8110118304797083,-3.250998336106477
1.8120101831977236,0.7490016638935231
1.8130085359157389,3.749001663893523
1.8140068886337541,-5.250998336106477
1.8150052413517694,-4.250998336106477
1.8160035940697847,-3.250998336106477
1.8170019467878,-7.250998336106477
1.8180002995058153,-10.250998336106477
1.8189986522238306,2.749001663893523
1.819997004941846,7.749001663893523
1.820995357659861,1.749001663893523
1.8219937103778763,3.749001663893523
1.8229920630958916,4.749001663893523
1.8239904158139069,4.749001663893523
1.8249887685319222,4.749001663893523
1.8259871212499375,0.7490016638935231
1.8269854739679527,0.7490016638935231
1.827983826685968,4.749001663893523
1.8289821794039833,4.749001663893523
1.8299805321219986,1.749001663893523
1.830978884840014,-0.2509983361064769
1.8319772375580292,0.7490016638935231
1.8329755902760443,-2.250998336106477
1.8339739429940596,-6.250998336106477
1.8349722957120749,-8.250998336106477
1.8359706484300902,-4.250998336106477
1.8369690011481055,-4.250998336106477
1.8379673538661208,-4.250998336106477
1.838965706584136,-4.250998336106477
1.8399640593021513,-8.250998336106477
1.8409624120201666,-13.250998336106477
1.841960764738182,-18.250998336106477
1.8429591174561972,-14.250998336106477
1.8439574701742123,-23.250998336106477
1.8449558228922276,9.749001663893523
1.8459541756102429,33.74900166389352
1.8469525283282582,27.749001663893523
1.8479508810462735,28.749001663893523
1.8489492337642888,20.749001663893523
1.849947586482304,2.749001663893523
1.8509459392003194,-7.250998336106477
1.8519442919183347,15.749001663893523
1.85294264463635,17.749001663893523
1.8539409973543652,1.749001663893523
1.8549393500723805,-12.250998336106477
1.8559377027903956,-17.250998336106477
1.856936055508411,-13.250998336106477
1.8579344082264262,-0.2509983361064769
1.8589327609444415,5.749001663893523
1.8599311136624568,-3.250998336106477
1.860929466380472,-6.250998336106477
1.8619278190984874,-11.250998336106477
1.8629261718165027,-6.250998336106477
1.863924524534518,25.749001663893523
1.8649228772525333,11.749001663893523
1.8659212299705485,-1.250998336106477
1.8669195826885636,-3.250998336106477
1.867917935406579,2.749001663893523
1.8689162881245942,0.7490016638935231
1.8699146408426095,-2.250998336106477
1.8709129935606248,-2.250998336106477
1.87191134627864,3.749001663893523
1.8729096989966554,-0.2509983361064769
1.8739080517146707,-5.250998336106477
1.874906404432686,-7.250998336106477
1.8759047571507013,-2.250998336106477
1.8769031098687166,-3.250998336106477
1.8779014625867319,-6.250998336106477
1.878899815304747,-4.250998336106477
1.8798981680227622,-1.250998336106477
1.8808965207407775,0.7490016638935231
1.8818948734587928,1.749001663893523
1.882893226176808,-1.250998336106477
1.8838915788948234,-2.250998336106477
1.8848899316128387,-3.250998336106477
1.885888284330854,-2.250998336106477
1.8868866370488693,-1.250998336106477
1.8878849897668846,2.749001663893523
1.8888833424848999,-0.2509983361064769
1.889881695202915,-2.250998336106477
1.8908800479209302,-11.250998336106477
1.8918784006389455,4.749001663893523
1.8928767533569608,28.749001663893523
1.8938751060749761,-2.250998336106477
1.8948734587929914,-20.250998336106477
1.8958718115110067,-20.250998336106477
1.896870164229022,-29.250998336106477
1.8978685169470373,-8.250998336106477
1.8988668696650526,50.74900166389352
1.8998652223830679,22.749001663893523
1.9008635751010832,-20.250998336106477
1.9018619278190982,-42.25099833610648
1.9028602805371135,-10.250998336106477
1.9038586332551288,2.749001663893523
1.9048569859731441,-13.250998336106477
1.9058553386911594,0.7490016638935231
1.9068536914091747,39.74900166389352
1.90785204412719,5.749001663893523
1.9088503968452053,57.74900166389352
1.9098487495632206,95.74900166389352
1.9108471022812359,22.749001663893523
1.9118454549992512,-11.250998336106477
1.9128438077172663,-32.25099833610648
1.9138421604352815,-22.250998336106477
1.9148405131532968,-26.250998336106477
1.9158388658713121,-47.25099833610648
1.9168372185893274,-20.250998336106477
1.9178355713073427,5.749001663893523
1.918833924025358,2.749001663893523
1.9198322767433733,58.74900166389352
1.9208306294613886,23.749001663893523
1.921828982179404,8.749001663893523
1.9228273348974192,29.749001663893523
1.9238256876154345,10.749001663893523
1.9248240403334496,-8.250998336106477
1.9258223930514649,-18.250998336106477
1.9268207457694801,-20.250998336106477
1.9278190984874954,-23.250998336106477
1.9288174512055107,-19.250998336106477
1.929815803923526,2.749001663893523
1.9308141566415413,-18.250998336106477
1.9318125093595566,6.749001663893523
1.932810862077572,39.74900166389352
1.9338092147955872,-8.250998336106477
1.9348075675136025,-20.250998336106477
1.9358059202316176,-36.25099833610648
1.9368042729496329,-36.25099833610648
1.9378026256676482,-15.250998336106477
1.9388009783856635,-2.250998336106477
1.9397993311036787,35.74900166389352
1.940797683821694,15.749001663893523
1.9417960365397093,14.749001663893523
1.9427943892577246,58.74900166389352
1.94379274197574,18.749001663893523
1.9447910946937552,-9.250998336106477
1.9457894474117705,-32.25099833610648
1.9467878001297858,-27.250998336106477
1.9477861528478009,27.749001663893523
1.9487845055658162,18.749001663893523
1.9497828582838315,29.749001663893523
1.9507812110018468,12.749001663893523
1.951779563719862,2.749001663893523
1.9527779164378773,-17.250998336106477
1.9537762691558926,-31.250998336106477
1.954774621873908,-38.25099833610648
1.9557729745919232,-40.25099833610648
1.9567713273099385,-11.250998336106477
1.9577696800279538,29.749001663893523
1.958768032745969,12.749001663893523
1.9597663854639842,47.74900166389352
1.9607647381819995,8.749001663893523
1.9617630909000148,8.749001663893523
1.96276144361803,10.749001663893523
1.9637597963360454,4.749001663893523
1.9647581490540607,0.7490016638935231
1.965756501772076,-6.250998336106477
1.9667548544900912,2.749001663893523
1.9677532072081065,27.749001663893523
1.9687515599261218,16.749001663893523
1.9697499126441371,9.749001663893523
1.9707482653621522,-9.250998336106477
1.9717466180801675,5.749001663893523
1.9727449707981828,1.749001663893523
1.973743323516198,-0.2509983361064769
1.9747416762342134,-5.250998336106477
1.9757400289522287,-9.250998336106477
1.976738381670244,-8.250998336106477
1.9777367343882593,-11.250998336106477
1.9787350871062745,-11.250998336106477
1.9797334398242898,-18.250998336106477
1.9807317925423051,11.749001663893523
1.9817301452603202,-4.250998336106477
1.9827284979783355,5.749001663893523
1.9837268506963508,4.749001663893523
1.984725203414366,-0.2509983361064769
1.9857235561323814,-1.250998336106477
1.9867219088503967,5.749001663893523
1.987720261568412,-2.250998336106477
1.9887186142864273,-11.250998336106477
1.9897169670044426,11.749001663893523
1.9907153197224579,0.7490016638935231
1.9917136724404731,-12.250998336106477
1.9927120251584884,-45.25099833610648
1.9937103778765035,-24.250998336106477
1.9947087305945188,-36.25099833610648
1.995707083312534,2.749001663893523
1.9967054360305494,56.74900166389352
1.9977037887485647,67.74900166389352
1.99870214146658,20.749001663893523
1.9997004941845953,4.749001663893523
2.0006988469026106,-17.250998336106477
2.001697199620626,-2.250998336106477
2.002695552338641,20.749001663893523
2.0036939050566565,3.749001663893523
2.0046922577746717,29.749001663893523
2.005690610492687,3.749001663893523
2.0066889632107023,-32.25099833610648
2.0076873159287176,-57.25099833610648
2.008685668646733,-90.25099833610648
2.009684021364748,-56.25099833610648
2.010682374082763,8.749001663893523
2.0116807268007784,74.74900166389352
2.0126790795187937,150.74900166389352
2.013677432236809,69.74900166389352
2.0146757849548242,28.749001663893523
2.0156741376728395,-20.250998336106477
2.016672490390855,-8.250998336106477
2.01767084310887,2.749001663893523
2.0186691958268854,-10.250998336106477
2.0196675485449007,-5.250998336106477
2.020665901262916,-3.250998336106477
2.0216642539809313,-9.250998336106477
2.0226626066989466,-7.250998336106477
2.023660959416962,0.7490016638935231
2.024659312134977,0.7490016638935231
2.0256576648529925,-1.250998336106477
2.0266560175710078,-0.2509983361064769
2.027654370289023,0.7490016638935231
2.0286527230070384,0.7490016638935231
2.0296510757250537,0.7490016638935231
2.030649428443069,-2.250998336106477
2.0316477811610842,-1.250998336106477
2.0326461338790995,-0.2509983361064769
2.0336444865971144,-8.250998336106477
2.0346428393151297,-7.250998336106477
2.035641192033145,-6.250998336106477
2.0366395447511603,-8.250998336106477
2.0376378974691756,-10.250998336106477
2.038636250187191,-9.250998336106477
2.039634602905206,-8.250998336106477
2.0406329556232214,-7.250998336106477
2.0416313083412367,-7.250998336106477
2.042629661059252,-0.2509983361064769
2.0436280137772673,5.749001663893523
2.0446263664952826,2.749001663893523
2.045624719213298,3.749001663893523
2.046623071931313,4.749001663893523
2.0476214246493285,3.749001663893523
2.048619777367344,4.749001663893523
2.049618130085359,-0.2509983361064769
2.0506164828033744,1.749001663893523
2.0516148355213897,6.749001663893523
2.052613188239405,5.749001663893523
2.0536115409574203,-4.250998336106477
2.0546098936754356,-3.250998336106477
2.055608246393451,-3.250998336106477
2.0566065991114657,-2.250998336106477
2.057604951829481,-8.250998336106477
2.0586033045474963,-5.250998336106477
2.0596016572655116,-1.250998336106477
2.060600009983527,-2.250998336106477
2.061598362701542,-4.250998336106477
2.0625967154195575,-2.250998336106477
2.0635950681375728,-0.2509983361064769
2.064593420855588,-4.250998336106477
2.0655917735736034,-0.2509983361064769
2.0665901262916186,0.7490016638935231
2.067588479009634,5.749001663893523
2.0685868317276492,0.7490016638935231
2.0695851844456645,2.749001663893523
2.07058353716368,2.749001663893523
2.071581889881695,7.749001663893523
2.0725802425997104,0.7490016638935231
2.0735785953177257,-2.250998336106477
2.074576948035741,-7.250998336106477
2.0755753007537563,-5.250998336106477
2.0765736534717716,-6.250998336106477
2.077572006189787,-9.250998336106477
2.078570358907802,-7.250998336106477
2.079568711625817,-4.250998336106477
2.0805670643438323,-5.250998336106477
2.0815654170618476,-7.250998336106477
2.082563769779863,-2.250998336106477
2.083562122497878,4.749001663893523
2.0845604752158935,3.749001663893523
2.085558827933909,0.7490016638935231
2.086557180651924,3.749001663893523
2.0875555333699394,6.749001663893523
2.0885538860879547,6.749001663893523
2.08955223880597,4.749001663893523
2.0905505915239853,5.749001663893523
2.0915489442420006,6.749001663893523
2.092547296960016,3.749001663893523
2.093545649678031,-2.250998336106477
2.0945440023960464,-5.250998336106477
2.0955423551140617,-5.250998336106477
2.096540707832077,-3.250998336106477
2.0975390605500923,-8.250998336106477
2.0985374132681076,-7.250998336106477
2.099535765986123,-6.250998336106477
2.100534118704138,-5.250998336106477
2.1015324714221535,-4.250998336106477
2.1025308241401683,-3.250998336106477
2.1035291768581836,0.7490016638935231
2.104527529576199,0.7490016638935231
2.1055258822942142,1.749001663893523
2.1065242350122295,3.749001663893523
2.107522587730245,2.749001663893523
2.10852094044826,3.749001663893523
2.1095192931662754,6.749001663893523
2.1105176458842907,5.749001663893523
2.111515998602306,7.749001663893523
2.1125143513203213,5.749001663893523
2.1135127040383366,-3.250998336106477
2.114511056756352,-3.250998336106477
2.115509409474367,-1.250998336106477
2.1165077621923825,-3.250998336106477
2.1175061149103978,-9.250998336106477
2.118504467628413,-5.250998336106477
2.1195028203464283,-4.250998336106477
2.1205011730644436,-2.250998336106477
2.121499525782459,-0.2509983361064769
2.1224978785004742,0.7490016638935231
2.1234962312184895,3.749001663893523
2.124494583936505,1.749001663893523
2.1254929366545197,1.749001663893523
2.126491289372535,1.749001663893523
2.1274896420905502,4.749001663893523
2.1284879948085655,4.749001663893523
2.129486347526581,8.749001663893523
2.130484700244596,5.749001663893523
2.1314830529626114,9.749001663893523
2.1324814056806267,4.749001663893523
2.133479758398642,-2.250998336106477
2.1344781111166573,-1.250998336106477
2.1354764638346726,-5.250998336106477
2.136474816552688,-3.250998336106477
2.137473169270703,-8.250998336106477
2.1384715219887185,-8.250998336106477
2.1394698747067338,-6.250998336106477
2.140468227424749,-4.250998336106477
2.1414665801427644,-6.250998336106477
2.1424649328607797,-2.250998336106477
2.143463285578795,5.749001663893523
2.1444616382968102,8.749001663893523
2.1454599910148255,4.749001663893523
2.146458343732841,5.749001663893523
2.147456696450856,9.749001663893523
2.148455049168871,11.749001663893523
2.1494534018868863,7.749001663893523
2.1504517546049016,5.749001663893523
2.151450107322917,7.749001663893523
2.152448460040932,3.749001663893523
2.1534468127589474,-5.250998336106477
2.1544451654769627,-9.250998336106477
2.155443518194978,-5.250998336106477
2.1564418709129933,-6.250998336106477
2.1574402236310086,-12.250998336106477
2.158438576349024,-11.250998336106477
2.159436929067039,-11.250998336106477
2.1604352817850545,-15.250998336106477
2.16143363450307,-18.250998336106477
2.162431987221085,-12.250998336106477
2.1634303399391004,-11.250998336106477
2.1644286926571157,-11.250998336106477
2.165427045375131,12.749001663893523
2.1664253980931463,24.749001663893523
2.1674237508111616,13.749001663893523
2.168422103529177,4.749001663893523
2.169420456247192,3.749001663893523
2.1704188089652074,2.749001663893523
2.1714171616832223,4.749001663893523
2.1724155144012376,4.749001663893523
2.173413867119253,-3.250998336106477
2.174412219837268,-4.250998336106477
2.1754105725552835,-5.250998336106477
2.1764089252732988,-9.250998336106477
2.177407277991314,-9.250998336106477
2.1784056307093294,-10.250998336106477
2.1794039834273446,-8.250998336106477
2.18040233614536,-8.250998336106477
2.1814006888633752,-7.250998336106477
2.1823990415813905,-3.250998336106477
2.183397394299406,-2.250998336106477
2.184395747017421,-1.250998336106477
2.1853940997354364,0.7490016638935231
2.1863924524534517,2.749001663893523
2.187390805171467,1.749001663893523
2.1883891578894823,2.749001663893523
2.1893875106074976,5.749001663893523
2.190385863325513,5.749001663893523
2.191384216043528,5.749001663893523
2.1923825687615435,1.749001663893523
2.1933809214795588,-1.250998336106477
2.1943792741975736,-5.250998336106477
2.195377626915589,-5.250998336106477
2.196375979633604,-9.250998336106477
2.1973743323516195,-10.250998336106477
2.198372685069635,-11.250998336106477
2.19937103778765,-12.250998336106477
2.2003693905056654,-8.250998336106477
2.2013677432236807,-12.250998336106477
2.202366095941696,-3.250998336106477
2.2033644486597113,7.749001663893523
2.2043628013777266,-0.2509983361064769
2.205361154095742,-3.250998336106477
2.206359506813757,0.7490016638935231
2.2073578595317724,4.749001663893523
2.2083562122497877,3.749001663893523
2.209354564967803,4.749001663893523
2.2103529176858183,3.749001663893523
2.2113512704038336,4.749001663893523
2.212349623121849,2.749001663893523
2.213347975839864,-1.250998336106477
2.2143463285578795,-2.250998336106477
2.215344681275895,-4.250998336106477
2.21634303399391,-8.250998336106477
2.217341386711925,-9.250998336106477
2.2183397394299402,-8.250998336106477
2.2193380921479555,-9.250998336106477
2.220336444865971,-8.250998336106477
2.221334797583986,-9.250998336106477
2.2223331503020014,-10.250998336106477
2.2233315030200167,-5.250998336106477
2.224329855738032,-7.250998336106477
2.2253282084560473,1.749001663893523
2.2263265611740626,19.749001663893523
2.227324913892078,11.749001663893523
2.228323266610093,3.749001663893523
2.2293216193281085,1.749001663893523
2.2303199720461238,5.749001663893523
2.231318324764139,5.749001663893523
2.2323166774821543,4.749001663893523
2.2333150302001696,-2.250998336106477
2.234313382918185,-3.250998336106477
2.2353117356362002,-5.250998336106477
2.2363100883542155,-6.250998336106477
2.237308441072231,-8.250998336106477
2.238306793790246,-8.250998336106477
2.2393051465082614,-7.250998336106477
2.2403034992262763,-6.250998336106477
2.2413018519442915,-4.250998336106477
2.242300204662307,-3.250998336106477
2.243298557380322,-2.250998336106477
2.2442969100983374,-2.250998336106477
2.2452952628163527,0.7490016638935231
2.246293615534368,0.7490016638935231
2.2472919682523833,2.749001663893523
2.2482903209703986,4.749001663893523
2.249288673688414,7.749001663893523
2.250287026406429,7.749001663893523
2.2512853791244445,10.749001663893523
2.25228373184246,2.749001663893523
2.253282084560475,-1.250998336106477
2.2542804372784904,-2.250998336106477
2.2552787899965057,-1.250998336106477
2.256277142714521,-5.250998336106477
2.2572754954325362,-7.250998336106477
2.2582738481505515,-5.250998336106477
2.259272200868567,-5.250998336106477
2.260270553586582,-3.250998336106477
2.2612689063045974,-4.250998336106477
2.2622672590226127,-3.250998336106477
2.2632656117406276,-0.2509983361064769
2.264263964458643,-2.250998336106477
2.265262317176658,0.7490016638935231
2.2662606698946735,2.749001663893523
2.2672590226126887,3.749001663893523
2.268257375330704,5.749001663893523
2.2692557280487193,5.749001663893523
2.2702540807667346,4.749001663893523
2.27125243348475,2.749001663893523
2.272250786202765,0.7490016638935231
2.2732491389207805,-4.250998336106477
2.274247491638796,-3.250998336106477
2.275245844356811,-3.250998336106477
2.2762441970748264,-3.250998336106477
2.2772425497928417,-10.250998336106477
2.278240902510857,-8.250998336106477
2.2792392552288723,-9.250998336106477
2.2802376079468876,-8.250998336106477
2.281235960664903,-7.250998336106477
2.282234313382918,-3.250998336106477
2.2832326661009335,0.7490016638935231
2.2842310188189487,0.7490016638935231
2.285229371536964,0.7490016638935231
2.286227724254979,5.749001663893523
2.287226076972994,4.749001663893523
2.2882244296910095,0.7490016638935231
2.2892227824090248,5.749001663893523
2.29022113512704,4.749001663893523
2.2912194878450554,8.749001663893523
2.2922178405630707,4.749001663893523
2.293216193281086,-4.250998336106477
2.2942145459991012,-3.250998336106477
2.2952128987171165,-3.250998336106477
2.296211251435132,-6.250998336106477
2.297209604153147,-9.250998336106477
2.2982079568711624,-10.250998336106477
2.2992063095891777,-8.250998336106477
2.300204662307193,-6.250998336106477
2.3012030150252083,-4.250998336106477
2.3022013677432236,-2.250998336106477
2.303199720461239,2.749001663893523
2.304198073179254,-0.2509983361064769
2.3051964258972695,-0.2509983361064769
2.3061947786152848,-2.250998336106477
2.3071931313333,3.749001663893523
2.3081914840513154,2.749001663893523
2.30918983676933,3.749001663893523
2.3101881894873455,4.749001663893523
2.311186542205361,5.749001663893523
2.312184894923376,1.749001663893523
2.3131832476413914,-4.250998336106477
2.3141816003594067,-5.250998336106477
2.315179953077422,-3.250998336106477
2.3161783057954373,-5.250998336106477
2.3171766585134526,-9.250998336106477
2.318175011231468,-5.250998336106477
2.319173363949483,-4.250998336106477
2.3201717166674984,-1.250998336106477
2.3211700693855137,-3.250998336106477
2.322168422103529,-0.2509983361064769
2.3231667748215443,1.749001663893523
2.3241651275395596,0.7490016638935231
2.325163480257575,-3.250998336106477
2.32616183297559,0.7490016638935231
2.3271601856936055,6.749001663893523
2.328158538411621,7.749001663893523
2.329156891129636,7.749001663893523
2.3301552438476514,1.749001663893523
2.3311535965656667,4.749001663893523
2.3321519492836815,0.7490016638935231
2.333150302001697,-4.250998336106477
2.334148654719712,-5.250998336106477
2.3351470074377274,-7.250998336106477
2.3361453601557427,-6.250998336106477
2.337143712873758,-9.250998336106477
2.3381420655917733,-7.250998336106477
2.3391404183097886,-9.250998336106477
2.340138771027804,-7.250998336106477
2.341137123745819,-7.250998336106477
2.3421354764638345,-2.250998336106477
2.3431338291818498,2.749001663893523
2.344132181899865,0.7490016638935231
2.3451305346178803,0.7490016638935231
2.3461288873358956,3.749001663893523
2.347127240053911,7.749001663893523
2.3481255927719262,8.749001663893523
2.3491239454899415,8.749001663893523
2.350122298207957,4.749001663893523
2.351120650925972,3.749001663893523
2.3521190036439874,-5.250998336106477
2.3531173563620027,-13.250998336106477
2.354115709080018,-12.250998336106477
2.355114061798033,-13.250998336106477
2.356112414516048,-13.250998336106477
2.3571107672340634,-12.250998336106477
2.3581091199520787,-8.250998336106477
2.359107472670094,-2.250998336106477
2.3601058253881093,-3.250998336106477
2.3611041781061246,-12.250998336106477
2.36210253082414,-12.250998336106477
2.363100883542155,-10.250998336106477
2.3640992362601705,-5.250998336106477
2.365097588978186,-3.250998336106477
2.366095941696201,-0.2509983361064769
2.3670942944142164,4.749001663893523
2.3680926471322317,6.749001663893523
2.369090999850247,9.749001663893523
2.3700893525682623,7.749001663893523
2.3710877052862775,9.749001663893523
2.372086058004293,4.749001663893523
2.373084410722308,0.7490016638935231
2.3740827634403234,-1.250998336106477
2.3750811161583387,-0.2509983361064769
2.376079468876354,-0.2509983361064769
2.3770778215943693,-3.250998336106477
2.378076174312384,-3.250998336106477
2.3790745270303995,0.7490016638935231
2.3800728797484147,-0.2509983361064769
2.38107123246643,-2.250998336106477
2.3820695851844453,1.749001663893523
2.3830679379024606,4.749001663893523
2.384066290620476,-2.250998336106477
2.385064643338491,-3.250998336106477
2.3860629960565065,-2.250998336106477
2.387061348774522,2.749001663893523
2.388059701492537,2.749001663893523
2.3890580542105524,-0.2509983361064769
2.3900564069285677,0.7490016638935231
2.391054759646583,7.749001663893523
2.3920531123645983,3.749001663893523
2.3930514650826136,-2.250998336106477
2.394049817800629,-1.250998336106477
2.395048170518644,0.7490016638935231
2.3960465232366595,-2.250998336106477
2.3970448759546747,-8.250998336106477
2.39804322867269,-8.250998336106477
2.3990415813907053,-5.250998336106477
2.4000399341087206,-4.250998336106477
2.4010382868267355,-4.250998336106477
2.4020366395447508,-2.250998336106477
2.403034992262766,3.749001663893523
2.4040333449807814,1.749001663893523
2.4050316976987967,-0.2509983361064769
2.406030050416812,1.749001663893523
2.4070284031348272,3.749001663893523
2.4080267558528425,6.749001663893523
2.409025108570858,5.749001663893523
2.410023461288873,6.749001663893523
2.4110218140068884,7.749001663893523
2.4120201667249037,3.749001663893523
2.413018519442919,-0.2509983361064769
2.4140168721609343,-0.2509983361064769
2.4150152248789496,-3.250998336106477
2.416013577596965,-5.250998336106477
2.41701193031498,-5.250998336106477
2.4180102830329955,-3.250998336106477
2.4190086357510108,0.7490016638935231
2.420006988469026,1.749001663893523
2.4210053411870414,-3.250998336106477
2.4220036939050567,-2.250998336106477
2.423002046623072,2.749001663893523
2.424000399341087,4.749001663893523
2.424998752059102,4.749001663893523
2.4259971047771174,3.749001663893523
2.4269954574951327,7.749001663893523
2.427993810213148,5.749001663893523
2.4289921629311633,6.749001663893523
2.4299905156491786,4.749001663893523
2.430988868367194,7.749001663893523
2.431987221085209,4.749001663893523
2.4329855738032244,-0.2509983361064769
2.4339839265212397,-2.250998336106477
2.434982279239255,-8.250998336106477
2.4359806319572703,-13.250998336106477
2.4369789846752856,-10.250998336106477
2.437977337393301,-3.250998336106477
2.438975690111316,-1.250998336106477
2.4399740428293315,-3.250998336106477
2.440972395547347,-6.250998336106477
2.441970748265362,-3.250998336106477
2.4429691009833774,4.749001663893523
2.4439674537013927,4.749001663893523
2.444965806419408,3.749001663893523
2.4459641591374233,3.749001663893523
2.446962511855438,5.749001663893523
2.4479608645734534,8.749001663893523
2.4489592172914687,7.749001663893523
2.449957570009484,6.749001663893523
2.4509559227274993,5.749001663893523
2.4519542754455146,3.749001663893523
2.45295262816353,-3.250998336106477
2.453950980881545,-7.250998336106477
2.4549493335995605,-6.250998336106477
2.4559476863175758,-7.250998336106477
2.456946039035591,-6.250998336106477
2.4579443917536064,-8.250998336106477
2.4589427444716216,-6.250998336106477
2.459941097189637,-2.250998336106477
2.4609394499076522,-2.250998336106477
2.4619378026256675,2.749001663893523
2.462936155343683,4.749001663893523
2.463934508061698,2.749001663893523
2.4649328607797134,2.749001663893523
2.4659312134977287,4.749001663893523
2.466929566215744,6.749001663893523
2.4679279189337593,6.749001663893523
2.4689262716517746,3.749001663893523
2.4699246243697894,2.749001663893523
2.4709229770878047,2.749001663893523
2.47192132980582,-0.2509983361064769
2.4729196825238353,-8.250998336106477
2.4739180352418506,-8.250998336106477
2.474916387959866,-5.250998336106477
2.475914740677881,-6.250998336106477
2.4769130933958965,-5.250998336106477
2.477911446113912,-3.250998336106477
2.478909798831927,-3.250998336106477
2.4799081515499424,-0.2509983361064769
2.4809065042679577,-3.250998336106477
2.481904856985973,-0.2509983361064769
2.4829032097039883,0.7490016638935231
2.4839015624220036,3.749001663893523
2.484899915140019,1.749001663893523
2.485898267858034,3.749001663893523
2.4868966205760494,7.749001663893523
2.4878949732940647,9.749001663893523
2.48889332601208,9.749001663893523
2.4898916787300953,2.749001663893523
2.4908900314481106,5.749001663893523
2.491888384166126,-0.2509983361064769
2.4928867368841408,-8.250998336106477
2.493885089602156,-12.250998336106477
2.4948834423201713,-12.250998336106477
2.4958817950381866,-12.250998336106477
2.496880147756202,-9.250998336106477
2.4978785004742172,1.749001663893523
2.4988768531922325,4.749001663893523
2.499875205910248,4.749001663893523
2.500873558628263,4.749001663893523
2.5018719113462784,6.749001663893523
2.5028702640642937,10.749001663893523
2.503868616782309,7.749001663893523
2.5048669695003243,3.749001663893523
2.5058653222183396,3.749001663893523
2.506863674936355,4.749001663893523
2.50786202765437,2.749001663893523
2.5088603803723855,-0.2509983361064769
2.5098587330904008,-0.2509983361064769
2.510857085808416,1.749001663893523
2.5118554385264313,-4.250998336106477
2.5128537912444466,-9.250998336106477
2.513852143962462,-5.250998336106477
2.514850496680477,-2.250998336106477
2.515848849398492,-2.250998336106477
2.5168472021165074,-9.250998336106477
2.5178455548345227,-7.250998336106477
2.518843907552538,-7.250998336106477
2.5198422602705532,-3.250998336106477
2.5208406129885685,-2.250998336106477
2.521838965706584,4.749001663893523
2.522837318424599,4.749001663893523
2.5238356711426144,2.749001663893523
2.5248340238606297,2.749001663893523
2.525832376578645,4.749001663893523
2.5268307292966603,5.749001663893523
2.5278290820146756,4.749001663893523
2.528827434732691,4.749001663893523
2.529825787450706,0.7490016638935231
2.5308241401687215,3.749001663893523
2.5318224928867368,-2.250998336106477
2.532820845604752,-8.250998336106477
2.5338191983227674,-7.250998336106477
2.5348175510407827,-4.250998336106477
2.535815903758798,-5.250998336106477
2.5368142564768132,-11.250998336106477
2.5378126091948285,-10.250998336106477
2.5388109619128434,-3.250998336106477
2.5398093146308587,-0.2509983361064769
2.540807667348874,-0.2509983361064769
2.5418060200668893,2.749001663893523
2.5428043727849046,8.749001663893523
2.54380272550292,9.749001663893523
2.544801078220935,3.749001663893523
2.5457994309389504,1.749001663893523
2.5467977836569657,3.749001663893523
2.547796136374981,0.7490016638935231
2.5487944890929963,0.7490016638935231
2.5497928418110116,-1.250998336106477
2.550791194529027,2.749001663893523
2.551789547247042,0.7490016638935231
2.5527878999650575,-5.250998336106477
2.553786252683073,-9.250998336106477
2.554784605401088,-10.250998336106477
2.5557829581191034,-10.250998336106477
2.5567813108371187,-15.250998336106477
2.557779663555134,-8.250998336106477
2.5587780162731493,5.749001663893523
2.5597763689911646,6.749001663893523
2.56077472170918,0.7490016638935231
2.5617730744271947,2.749001663893523
2.56277142714521,4.749001663893523
2.5637697798632253,5.749001663893523
2.5647681325812406,6.749001663893523
2.565766485299256,10.749001663893523
2.566764838017271,9.749001663893523
2.5677631907352865,2.749001663893523
2.5687615434533018,0.7490016638935231
2.569759896171317,-0.2509983361064769
2.5707582488893324,-1.250998336106477
2.5717566016073476,-2.250998336106477
2.572754954325363,-7.250998336106477
2.5737533070433782,-12.250998336106477
2.5747516597613935,-13.250998336106477
2.575750012479409,-12.250998336106477
2.576748365197424,-14.250998336106477
2.5777467179154394,-7.250998336106477
2.5787450706334547,-4.250998336106477
2.57974342335147,-0.2509983361064769
2.5807417760694853,-2.250998336106477
2.5817401287875006,0.7490016638935231
2.582738481505516,8.749001663893523
2.583736834223531,11.749001663893523
2.584735186941546,14.749001663893523
2.5857335396595613,16.749001663893523
2.5867318923775766,19.749001663893523
2.587730245095592,16.749001663893523
2.588728597813607,10.749001663893523
2.5897269505316225,2.749001663893523
2.590725303249638,4.749001663893523
2.591723655967653,-5.250998336106477
2.5927220086856684,-10.250998336106477
2.5937203614036837,-11.250998336106477
2.594718714121699,-10.250998336106477
2.5957170668397143,-14.250998336106477
2.5967154195577296,-16.250998336106477
2.597713772275745,-12.250998336106477
2.59871212499376,-6.250998336106477
2.5997104777117754,-3.250998336106477
2.6007088304297907,-4.250998336106477
2.601707183147806,0.7490016638935231
2.6027055358658213,4.749001663893523
2.6037038885838366,3.749001663893523
2.604702241301852,3.749001663893523
2.605700594019867,0.7490016638935231
2.6066989467378825,2.749001663893523
2.6076972994558973,2.749001663893523
2.6086956521739126,2.749001663893523
2.609694004891928,3.749001663893523
2.6106923576099432,2.749001663893523
2.6116907103279585,0.7490016638935231
2.612689063045974,-9.250998336106477
2.613687415763989,-2.250998336106477
2.6146857684820044,3.749001663893523
2.6156841212000197,1.749001663893523
2.616682473918035,-5.250998336106477
2.6176808266360503,-6.250998336106477
2.6186791793540656,-8.250998336106477
2.619677532072081,-5.250998336106477
2.620675884790096,-5.250998336106477
2.6216742375081115,-0.2509983361064769
2.6226725902261268,7.749001663893523
2.623670942944142,9.749001663893523
2.6246692956621573,5.749001663893523
2.6256676483801726,2.749001663893523
2.626666001098188,6.749001663893523
2.6276643538162032,9.749001663893523
2.6286627065342185,8.749001663893523
2.629661059252234,9.749001663893523
2.6306594119702487,12.749001663893523
2.631657764688264,5.749001663893523
2.6326561174062793,-1.250998336106477
2.6336544701242945,-6.250998336106477
2.63465282284231,-8.250998336106477
2.635651175560325,-11.250998336106477
2.6366495282783404,-13.250998336106477
2.6376478809963557,-14.250998336106477
2.638646233714371,-10.250998336106477
2.6396445864323863,-7.250998336106477
2.6406429391504016,-8.250998336106477
2.641641291868417,-3.250998336106477
2.642639644586432,3.749001663893523
2.6436379973044475,4.749001663893523
2.644636350022463,7.749001663893523
2.645634702740478,13.749001663893523
2.6466330554584934,15.749001663893523
2.6476314081765087,7.749001663893523
2.648629760894524,5.749001663893523
2.6496281136125392,-0.2509983361064769
2.6506264663305545,-0.2509983361064769
2.65162481904857,-10.250998336106477
2.652623171766585,-15.250998336106477
2.6536215244846,-11.250998336106477
2.6546198772026153,-5.250998336106477
2.6556182299206306,-5.250998336106477
2.656616582638646,-10.250998336106477
2.657614935356661,-8.250998336106477
2.6586132880746765,-2.250998336106477
2.6596116407926917,-0.2509983361064769
2.660609993510707,1.749001663893523
2.6616083462287223,1.749001663893523
2.6626066989467376,7.749001663893523
2.663605051664753,7.749001663893523
2.664603404382768,4.749001663893523
2.6656017571007835,5.749001663893523
2.666600109818799,4.749001663893523
2.667598462536814,5.749001663893523
2.6685968152548294,0.7490016638935231
2.6695951679728447,-2.250998336106477
2.67059352069086,-3.250998336106477
2.6715918734088753,-8.250998336106477
2.6725902261268906,-11.250998336106477
2.673588578844906,-11.250998336106477
2.674586931562921,-1.250998336106477
2.6755852842809364,-0.2509983361064769
2.6765836369989513,-4.250998336106477
2.6775819897169666,-8.250998336106477
2.678580342434982,-3.250998336106477
2.679578695152997,-2.250998336106477
2.6805770478710125,-3.250998336106477
2.6815754005890278,1.749001663893523
2.682573753307043,9.749001663893523
2.6835721060250584,10.749001663893523
2.6845704587430737,7.749001663893523
2.685568811461089,9.749001663893523
2.6865671641791042,12.749001663893523
2.6875655168971195,6.749001663893523
2.688563869615135,2.749001663893523
2.68956222233315,2.749001663893523
2.6905605750511654,3.749001663893523
2.6915589277691807,-4.250998336106477
2.692557280487196,-9.250998336106477
2.6935556332052113,-11.250998336106477
2.6945539859232266,-12.250998336106477
2.695552338641242,-18.250998336106477
2.696550691359257,-23.250998336106477
2.6975490440772725,-22.250998336106477
2.6985473967952878,-16.250998336106477
2.6995457495133026,-6.250998336106477
2.700544102231318,-3.250998336106477
2.701542454949333,0.7490016638935231
2.7025408076673485,7.749001663893523
2.703539160385364,7.749001663893523
2.704537513103379,6.749001663893523
2.7055358658213944,11.749001663893523
2.7065342185394097,12.749001663893523
2.707532571257425,10.749001663893523
2.7085309239754403,7.749001663893523
2.7095292766934556,5.749001663893523
2.710527629411471,5.749001663893523
2.711525982129486,0.7490016638935231
2.7125243348475014,-9.250998336106477
2.7135226875655167,-7.250998336106477
2.714521040283532,-2.250998336106477
2.7155193930015473,-5.250998336106477
2.7165177457195626,-10.250998336106477
2.717516098437578,-10.250998336106477
2.718514451155593,-3.250998336106477
2.7195128038736085,-1.250998336106477
2.720511156591624,-4.250998336106477
2.721509509309639,3.749001663893523
2.722507862027654,11.749001663893523
2.7235062147456692,11.749001663893523
2.7245045674636845,7.749001663893523
2.7255029201817,6.749001663893523
2.726501272899715,10.749001663893523
2.7274996256177304,6.749001663893523
2.7284979783357457,4.749001663893523
2.729496331053761,4.749001663893523
2.7304946837717763,6.749001663893523
2.7314930364897916,-2.250998336106477
2.732491389207807,-5.250998336106477
2.733489741925822,-5.250998336106477
2.7344880946438375,-3.250998336106477
2.7354864473618528,-5.250998336106477
2.736484800079868,-7.250998336106477
2.7374831527978833,-7.250998336106477
2.7384815055158986,-2.250998336106477
2.739479858233914,1.749001663893523
2.7404782109519292,3.749001663893523
2.7414765636699445,3.749001663893523
2.74247491638796,4.749001663893523
2.743473269105975,-3.250998336106477
2.7444716218239904,3.749001663893523
2.7454699745420053,8.749001663893523
2.7464683272600205,2.749001663893523
2.747466679978036,1.749001663893523
2.748465032696051,0.7490016638935231
2.7494633854140664,-3.250998336106477
2.7504617381320817,-6.250998336106477
2.751460090850097,-6.250998336106477
2.7524584435681123,-9.250998336106477
2.7534567962861276,-11.250998336106477
2.754455149004143,-16.250998336106477
2.755453501722158,-10.250998336106477
2.7564518544401735,-11.250998336106477
2.757450207158189,-13.250998336106477
2.758448559876204,-10.250998336106477
2.7594469125942194,-7.250998336106477
2.7604452653122347,-5.250998336106477
2.76144361803025,4.749001663893523
2.7624419707482653,11.749001663893523
2.7634403234662805,12.749001663893523
2.764438676184296,13.749001663893523
2.765437028902311,12.749001663893523
2.7664353816203264,10.749001663893523
2.7674337343383417,4.749001663893523
2.7684320870563566,-0.2509983361064769
2.769430439774372,-2.250998336106477
2.770428792492387,0.7490016638935231
2.7714271452104025,0.7490016638935231
2.7724254979284177,-7.250998336106477
2.773423850646433,-3.250998336106477
2.7744222033644483,-3.250998336106477
2.7754205560824636,-7.250998336106477
2.776418908800479,-11.250998336106477
2.777417261518494,-10.250998336106477
2.7784156142365095,-5.250998336106477
2.779413966954525,-1.250998336106477
2.78041231967254,-4.250998336106477
2.7814106723905554,-4.250998336106477
2.7824090251085707,-6.250998336106477
2.783407377826586,0.7490016638935231
2.7844057305446013,1.749001663893523
2.7854040832626166,8.749001663893523
2.786402435980632,10.749001663893523
2.787400788698647,11.749001663893523
2.7883991414166625,8.749001663893523
2.7893974941346777,3.749001663893523
2.790395846852693,11.749001663893523
2.791394199570708,3.749001663893523
2.792392552288723,-11.250998336106477
2.7933909050067385,-17.250998336106477
2.7943892577247538,-23.250998336106477
2.795387610442769,-22.250998336106477
2.7963859631607844,-20.250998336106477
2.7973843158787997,-13.250998336106477
2.798382668596815,-6.250998336106477
2.7993810213148302,-3.250998336106477
2.8003793740328455,-5.250998336106477
2.801377726750861,-1.250998336106477
2.802376079468876,-4.250998336106477
2.8033744321868914,-1.250998336106477
2.8043727849049067,1.749001663893523
2.805371137622922,7.749001663893523
2.8063694903409373,11.749001663893523
2.8073678430589526,5.749001663893523
2.808366195776968,2.749001663893523
2.809364548494983,0.7490016638935231
2.8103629012129985,-0.2509983361064769
2.8113612539310138,-6.250998336106477
2.812359606649029,-9.250998336106477
2.8133579593670444,-11.250998336106477
2.814356312085059,-10.250998336106477
2.8153546648030745,-10.250998336106477
2.81635301752109,-13.250998336106477
2.817351370239105,-13.250998336106477
2.8183497229571204,-8.250998336106477
2.8193480756751357,-4.250998336106477
2.820346428393151,-0.2509983361064769
2.8213447811111663,5.749001663893523
2.8223431338291816,8.749001663893523
2.823341486547197,9.749001663893523
2.824339839265212,10.749001663893523
2.8253381919832274,12.749001663893523
2.8263365447012427,10.749001663893523
2.827334897419258,11.749001663893523
2.8283332501372733,11.749001663893523
2.8293316028552886,11.749001663893523
2.830329955573304,11.749001663893523
2.831328308291319,5.749001663893523
2.8323266610093345,-1.250998336106477
2.83332501372735,-1.250998336106477
2.834323366445365,0.7490016638935231
2.8353217191633804,3.749001663893523
2.8363200718813957,-2.250998336106477
2.8373184245994105,-2.250998336106477
2.838316777317426,-8.250998336106477
2.839315130035441,-7.250998336106477
2.8403134827534564,-4.250998336106477
2.8413118354714717,-1.250998336106477
2.842310188189487,4.749001663893523
2.8433085409075023,9.749001663893523
2.8443068936255176,1.749001663893523
2.845305246343533,-6.250998336106477
2.846303599061548,-3.250998336106477
2.8473019517795635,-0.2509983361064769
2.8483003044975788,0.7490016638935231
2.849298657215594,-1.250998336106477
2.8502970099336093,5.749001663893523
2.8512953626516246,7.749001663893523
2.85229371536964,2.749001663893523
2.8532920680876552,-7.250998336106477
2.8542904208056705,-8.250998336106477
2.855288773523686,-9.250998336106477
2.856287126241701,-1.250998336106477
2.8572854789597164,-2.250998336106477
2.8582838316777317,0.7490016638935231
2.859282184395747,-1.250998336106477
2.860280537113762,-7.250998336106477
2.861278889831777,-2.250998336106477
2.8622772425497924,4.749001663893523
2.8632755952678077,4.749001663893523
2.864273947985823,-0.2509983361064769
2.8652723007038383,7.749001663893523
2.8662706534218536,19.749001663893523
2.867269006139869,20.749001663893523
2.868267358857884,16.749001663893523
2.8692657115758995,10.749001663893523
2.870264064293915,10.749001663893523
2.87126241701193,-0.2509983361064769
2.8722607697299454,-3.250998336106477
2.8732591224479607,-6.250998336106477
2.874257475165976,-6.250998336106477
2.8752558278839913,-4.250998336106477
2.8762541806020065,-6.250998336106477
2.877252533320022,-6.250998336106477
2.878250886038037,-3.250998336106477
2.8792492387560524,-2.250998336106477
2.8802475914740677,1.749001663893523
2.881245944192083,6.749001663893523
2.8822442969100983,10.749001663893523
2.883242649628113,7.749001663893523
2.8842410023461285,0.7490016638935231
2.8852393550641438,-0.2509983361064769
2.886237707782159,3.749001663893523
2.8872360605001743,-2.250998336106477
2.8882344132181896,-3.250998336106477
2.889232765936205,2.749001663893523
2.89023111865422,9.749001663893523
2.8912294713722355,9.749001663893523
2.892227824090251,-3.250998336106477
2.893226176808266,-5.250998336106477
2.8942245295262814,-7.250998336106477
2.8952228822442967,-8.250998336106477
2.896221234962312,-9.250998336106477
2.8972195876803273,-2.250998336106477
2.8982179403983426,2.749001663893523
2.899216293116358,3.749001663893523
2.900214645834373,2.749001663893523
2.9012129985523885,1.749001663893523
2.9022113512704037,5.749001663893523
2.903209703988419,6.749001663893523
2.9042080567064343,10.749001663893523
2.9052064094244496,15.749001663893523
2.9062047621424645,16.749001663893523
2.9072031148604798,11.749001663893523
2.908201467578495,5.749001663893523
2.9091998202965104,2.749001663893523
2.9101981730145257,5.749001663893523
2.911196525732541,-3.250998336106477
2.9121948784505562,-8.250998336106477
2.9131932311685715,-8.250998336106477
2.914191583886587,-7.250998336106477
2.915189936604602,-9.250998336106477
2.9161882893226174,-9.250998336106477
2.9171866420406327,-6.250998336106477
2.918184994758648,-4.250998336106477
2.9191833474766633,-4.250998336106477
2.9201817001946786,-5.250998336106477
2.921180052912694,-2.250998336106477
2.922178405630709,3.749001663893523
2.9231767583487245,0.7490016638935231
2.9241751110667398,0.7490016638935231
2.925173463784755,2.749001663893523
2.9261718165027704,3.749001663893523
2.9271701692207857,7.749001663893523
2.928168521938801,8.749001663893523
2.929166874656816,6.749001663893523
2.930165227374831,4.749001663893523
2.9311635800928464,-0.2509983361064769
2.9321619328108617,-5.250998336106477
2.933160285528877,-4.250998336106477
2.9341586382468923,-3.250998336106477
2.9351569909649076,-2.250998336106477
2.936155343682923,-1.250998336106477
2.937153696400938,-7.250998336106477
2.9381520491189534,-8.250998336106477
2.9391504018369687,-15.250998336106477
2.940148754554984,-15.250998336106477
2.9411471072729993,-2.250998336106477
2.9421454599910146,3.749001663893523
2.94314381270903,3.749001663893523
2.944142165427045,5.749001663893523
2.9451405181450605,18.749001663893523
2.946138870863076,13.749001663893523
2.947137223581091,1.749001663893523
2.9481355762991064,-7.250998336106477
2.9491339290171217,-8.250998336106477
2.950132281735137,-5.250998336106477
2.9511306344531523,-0.2509983361064769
2.952128987171167,-1.250998336106477
2.9531273398891824,-2.250998336106477
2.9541256926071977,-0.2509983361064769
2.955124045325213,-3.250998336106477
2.9561223980432283,-5.250998336106477
2.9571207507612436,-4.250998336106477
2.958119103479259,-3.250998336106477
2.959117456197274,-3.250998336106477
2.9601158089152895,-8.250998336106477
2.9611141616333048,-2.250998336106477
2.96211251435132,-0.2509983361064769
2.9631108670693354,1.749001663893523
2.9641092197873506,3.749001663893523
2.965107572505366,2.749001663893523
2.9661059252233812,-0.2509983361064769
2.9671042779413965,0.7490016638935231
2.968102630659412,1.749001663893523
2.969100983377427,2.749001663893523
2.9700993360954424,5.749001663893523
2.9710976888134577,5.749001663893523
2.972096041531473,0.7490016638935231
2.9730943942494883,0.7490016638935231
2.9740927469675036,-0.2509983361064769
2.9750910996855184,-4.250998336106477
2.9760894524035337,-8.250998336106477
2.977087805121549,-6.250998336106477
2.9780861578395643,-2.250998336106477
2.9790845105575796,-4.250998336106477
2.980082863275595,-9.250998336106477
2.98108121599361,-8.250998336106477
2.9820795687116255,1.749001663893523
2.983077921429641,4.749001663893523
2.984076274147656,4.749001663893523
2.9850746268656714,8.749001663893523
2.9860729795836867,7.749001663893523
2.987071332301702,7.749001663893523
2.9880696850197173,4.749001663893523
2.9890680377377326,8.749001663893523
2.990066390455748,12.749001663893523
2.991064743173763,6.749001663893523
2.9920630958917784,-0.2509983361064769
2.9930614486097937,-6.250998336106477
2.994059801327809,-6.250998336106477
2.9950581540458243,-0.2509983361064769
2.9960565067638396,2.749001663893523
2.997054859481855,1.749001663893523
2.9980532121998698,-4.250998336106477
2.999051564917885,-10.250998336106477
3.0000499176359003,-10.250998336106477
3.0010482703539156,-2.250998336106477
3.002046623071931,1.749001663893523
3.0030449757899462,8.749001663893523
3.0040433285079615,16.749001663893523
3.005041681225977,12.749001663893523
3.006040033943992,6.749001663893523
3.0070383866620074,1.749001663893523
3.0080367393800227,1.749001663893523
3.009035092098038,-1.250998336106477
3.0100334448160533,3.749001663893523
3.0110317975340686,-4.250998336106477
3.012030150252084,-13.250998336106477
3.013028502970099,-10.250998336106477
3.0140268556881145,-10.250998336106477
3.0150252084061298,-9.250998336106477
3.016023561124145,-10.250998336106477
3.0170219138421603,1.749001663893523
3.0180202665601756,5.749001663893523
3.019018619278191,6.749001663893523
3.0200169719962062,10.749001663893523
3.021015324714221,9.749001663893523
3.0220136774322364,8.749001663893523
3.0230120301502517,3.749001663893523
3.024010382868267,0.7490016638935231
3.0250087355862822,-2.250998336106477
3.0260070883042975,-3.250998336106477
3.027005441022313,-2.250998336106477
3.028003793740328,4.749001663893523
3.0290021464583434,2.749001663893523
3.0300004991763587,3.749001663893523
3.030998851894374,-2.250998336106477
3.0319972046123893,-7.250998336106477
3.0329955573304046,-11.250998336106477
3.03399391004842,-15.250998336106477
3.034992262766435,-15.250998336106477
3.0359906154844505,-11.250998336106477
3.0369889682024658,-7.250998336106477
3.037987320920481,1.749001663893523
3.0389856736384964,6.749001663893523
3.0399840263565117,8.749001663893523
3.040982379074527,4.749001663893523
3.0419807317925422,6.749001663893523
3.0429790845105575,6.749001663893523
3.0439774372285724,6.749001663893523
3.0449757899465877,2.749001663893523
3.045974142664603,5.749001663893523
3.0469724953826183,2.749001663893523
3.0479708481006336,0.7490016638935231
3.048969200818649,2.749001663893523
3.049967553536664,5.749001663893523
3.0509659062546794,2.749001663893523
3.0519642589726947,-3.250998336106477
3.05296261169071,-4.250998336106477
3.0539609644087253,1.749001663893523
3.0549593171267406,2.749001663893523
3.055957669844756,-7.250998336106477
3.056956022562771,-8.250998336106477
3.0579543752807865,-4.250998336106477
3.058952727998802,-7.250998336106477
3.059951080716817,-3.250998336106477
3.0609494334348324,-4.250998336106477
3.0619477861528477,-2.250998336106477
3.062946138870863,-1.250998336106477
3.0639444915888783,-3.250998336106477
3.0649428443068936,-2.250998336106477
3.065941197024909,2.749001663893523
3.0669395497429237,3.749001663893523
3.067937902460939,1.749001663893523
3.0689362551789543,2.749001663893523
3.0699346078969696,8.749001663893523
3.070932960614985,10.749001663893523
3.071931313333,0.7490016638935231
3.0729296660510155,-2.250998336106477
3.0739280187690308,-9.250998336106477
3.074926371487046,-11.250998336106477
3.0759247242050614,-16.250998336106477
3.0769230769230766,-10.250998336106477
3.077921429641092,-3.250998336106477
3.0789197823591072,-4.250998336106477
3.0799181350771225,-5.250998336106477
3.080916487795138,-0.2509983361064769
3.081914840513153,0.7490016638935231
3.0829131932311684,3.749001663893523
3.0839115459491837,4.749001663893523
3.084909898667199,5.749001663893523
3.0859082513852143,7.749001663893523
3.0869066041032296,8.749001663893523
3.087904956821245,8.749001663893523
3.08890330953926,4.749001663893523
3.0899016622572755,3.749001663893523
3.0909000149752903,-6.250998336106477
3.0918983676933056,-12.250998336106477
3.092896720411321,-12.250998336106477
3.093895073129336,-15.250998336106477
3.0948934258473515,-15.250998336106477
3.095891778565367,-9.250998336106477
3.096890131283382,-6.250998336106477
3.0978884840013974,-3.250998336106477
3.0988868367194127,3.749001663893523
3.099885189437428,1.749001663893523
3.1008835421554433,-1.250998336106477
3.1018818948734586,-4.250998336106477
3.102880247591474,-4.250998336106477
3.103878600309489,-3.250998336106477
3.1048769530275044,0.7490016638935231
3.1058753057455197,11.749001663893523
3.106873658463535,12.749001663893523
3.1078720111815503,7.749001663893523
3.1088703638995656,8.749001663893523
3.109868716617581,5.749001663893523
3.110867069335596,5.749001663893523
3.1118654220536115,3.749001663893523
3.112863774771627,5.749001663893523
3.1138621274896416,1.749001663893523
3.114860480207657,-6.250998336106477
3.1158588329256722,-13.250998336106477
3.1168571856436875,-15.250998336106477
3.117855538361703,-13.250998336106477
3.118853891079718,-6.250998336106477
3.1198522437977334,-4.250998336106477
3.1208505965157487,-0.2509983361064769
3.121848949233764,3.749001663893523
3.1228473019517793,-1.250998336106477
3.1238456546697946,3.749001663893523
3.12484400738781,15.749001663893523
3.125842360105825,19.749001663893523
3.1268407128238405,12.749001663893523
3.1278390655418558,13.749001663893523
3.128837418259871,2.749001663893523
3.1298357709778863,-8.250998336106477
3.1308341236959016,-8.250998336106477
3.131832476413917,0.7490016638935231
3.1328308291319322,-3.250998336106477
3.1338291818499475,-3.250998336106477
3.134827534567963,-7.250998336106477
3.135825887285978,-27.250998336106477
3.136824240003993,-16.250998336106477
3.1378225927220083,-6.250998336106477
3.1388209454400235,4.749001663893523
3.139819298158039,10.749001663893523
3.140817650876054,3.749001663893523
3.1418160035940694,-1.250998336106477
3.1428143563120847,-2.250998336106477
3.1438127090301,5.749001663893523
3.1448110617481153,19.749001663893523
3.1458094144661306,20.749001663893523
3.146807767184146,19.749001663893523
3.147806119902161,8.749001663893523
3.1488044726201765,-2.250998336106477
3.149802825338192,-5.250998336106477
3.150801178056207,-8.250998336106477
3.1517995307742224,-6.250998336106477
3.1527978834922377,-18.250998336106477
3.153796236210253,-7.250998336106477
3.1547945889282683,-11.250998336106477
3.1557929416462835,-23.250998336106477
3.156791294364299,-24.250998336106477
3.157789647082314,-23.250998336106477
3.1587879998003294,-8.250998336106477
3.1597863525183443,15.749001663893523
3.1607847052363596,30.749001663893523
3.161783057954375,34.74900166389352
3.16278141067239,24.749001663893523
3.1637797633904055,12.749001663893523
3.1647781161084207,11.749001663893523
3.165776468826436,12.749001663893523
3.1667748215444513,8.749001663893523
3.1677731742624666,-0.2509983361064769
3.168771526980482,-3.250998336106477
3.169769879698497,-0.2509983361064769
3.1707682324165125,-3.250998336106477
3.171766585134528,-16.250998336106477
3.172764937852543,-25.250998336106477
3.1737632905705584,-27.250998336106477
3.1747616432885737,-25.250998336106477
3.175759996006589,-16.250998336106477
3.1767583487246043,-7.250998336106477
3.1777567014426196,6.749001663893523
3.178755054160635,0.7490016638935231
3.17975340687865,4.749001663893523
3.1807517595966655,13.749001663893523
3.1817501123146807,16.749001663893523
3.1827484650326956,11.749001663893523
