Time,EMG
0.0,4.040132890365442
0.000996710854181202,5.040132890365442
0.001993421708362404,10.040132890365442
0.002990132562543606,11.040132890365442
0.003986843416724808,4.040132890365442
0.00498355427090601,6.040132890365442
0.005980265125087212,5.040132890365442
0.006976975979268414,5.040132890365442
0.007973686833449616,2.0401328903654417
0.008970397687630818,-1.9598671096345583
0.00996710854181202,-2.9598671096345583
0.01096381939599322,-5.959867109634558
0.011960530250174423,-3.9598671096345583
0.012957241104355626,-10.959867109634558
0.013953951958536827,-7.959867109634558
0.014950662812718028,-9.959867109634558
0.01594737366689923,-7.959867109634558
0.016944084521080434,-3.9598671096345583
0.017940795375261637,-3.9598671096345583
0.018937506229442836,3.0401328903654417
0.01993421708362404,8.040132890365442
0.02093092793780524,6.040132890365442
0.02192763879198644,9.040132890365442
0.022924349646167644,9.040132890365442
0.023921060500348847,9.040132890365442
0.02491777135453005,5.040132890365442
0.025914482208711252,5.040132890365442
0.02691119306289245,4.040132890365442
0.027907903917073654,2.0401328903654417
0.028904614771254857,-4.959867109634558
0.029901325625436057,-1.9598671096345583
0.03089803647961726,-5.959867109634558
0.03189474733379846,-7.959867109634558
0.032891458187979665,-9.959867109634558
0.03388816904216087,-8.959867109634558
0.03488487989634207,-5.959867109634558
0.03588159075052327,-2.9598671096345583
0.03687830160470447,-2.9598671096345583
0.03787501245888567,-3.9598671096345583
0.038871723313066875,5.040132890365442
0.03986843416724808,3.0401328903654417
0.04086514502142928,3.0401328903654417
0.04186185587561048,8.040132890365442
0.042858566729791686,8.040132890365442
0.04385527758397288,8.040132890365442
0.044851988438154085,9.040132890365442
0.04584869929233529,0.040132890365441654
0.04684541014651649,4.040132890365442
0.04784212100069769,0.040132890365441654
0.048838831854878896,-3.9598671096345583
0.0498355427090601,-0.9598671096345583
0.0508322535632413,-4.959867109634558
0.051828964417422504,-4.959867109634558
0.0528256752716037,-10.959867109634558
0.0538223861257849,-10.959867109634558
0.054819096979966106,-7.959867109634558
0.05581580783414731,-5.959867109634558
0.05681251868832851,-3.9598671096345583
0.057809229542509714,-0.9598671096345583
0.05880594039669092,2.0401328903654417
0.05980265125087211,3.0401328903654417
0.060799362105053316,7.040132890365442
0.06179607295923452,8.040132890365442
0.06279278381341573,9.040132890365442
0.06378949466759692,11.040132890365442
0.06478620552177812,4.040132890365442
0.06578291637595933,1.0401328903654417
0.06677962723014053,3.0401328903654417
0.06777633808432174,5.040132890365442
0.06877304893850293,-1.9598671096345583
0.06976975979268414,2.0401328903654417
0.07076647064686534,-8.959867109634558
0.07176318150104655,-8.959867109634558
0.07275989235522774,-8.959867109634558
0.07375660320940894,-9.959867109634558
0.07475331406359015,-4.959867109634558
0.07575002491777134,-9.959867109634558
0.07674673577195255,-2.9598671096345583
0.07774344662613375,-0.9598671096345583
0.07874015748031496,1.0401328903654417
0.07973686833449616,2.0401328903654417
0.08073357918867735,7.040132890365442
0.08173029004285856,7.040132890365442
0.08272700089703976,10.040132890365442
0.08372371175122097,6.040132890365442
0.08472042260540216,6.040132890365442
0.08571713345958337,4.040132890365442
0.08671384431376457,5.040132890365442
0.08771055516794576,5.040132890365442
0.08870726602212697,-1.9598671096345583
0.08970397687630817,-2.9598671096345583
0.09070068773048938,-5.959867109634558
0.09169739858467058,-8.959867109634558
0.09269410943885178,-7.959867109634558
0.09369082029303298,-10.959867109634558
0.09468753114721419,-2.9598671096345583
0.09568424200139539,-2.9598671096345583
0.09668095285557658,-1.9598671096345583
0.09767766370975779,0.040132890365441654
0.09867437456393899,-1.9598671096345583
0.0996710854181202,2.0401328903654417
0.1006677962723014,6.040132890365442
0.1016645071264826,7.040132890365442
0.1026612179806638,10.040132890365442
0.10365792883484501,3.0401328903654417
0.1046546396890262,5.040132890365442
0.1056513505432074,8.040132890365442
0.10664806139738861,7.040132890365442
0.1076447722515698,3.0401328903654417
0.10864148310575102,-0.9598671096345583
0.10963819395993221,-3.9598671096345583
0.11063490481411342,-9.959867109634558
0.11163161566829462,-11.959867109634558
0.11262832652247581,-9.959867109634558
0.11362503737665702,-7.959867109634558
0.11462174823083822,-7.959867109634558
0.11561845908501943,-6.959867109634558
0.11661516993920062,-1.9598671096345583
0.11761188079338183,-0.9598671096345583
0.11860859164756303,1.0401328903654417
0.11960530250174423,0.040132890365441654
0.12060201335592544,4.040132890365442
0.12159872421010663,12.040132890365442
0.12259543506428784,12.040132890365442
0.12359214591846904,5.040132890365442
0.12458885677265025,12.040132890365442
0.12558556762683146,3.0401328903654417
0.12658227848101264,6.040132890365442
0.12757898933519385,1.0401328903654417
0.12857570018937506,-4.959867109634558
0.12957241104355624,-4.959867109634558
0.13056912189773745,-6.959867109634558
0.13156583275191866,-8.959867109634558
0.13256254360609987,-6.959867109634558
0.13355925446028105,-9.959867109634558
0.13455596531446226,-7.959867109634558
0.13555267616864347,-1.9598671096345583
0.13654938702282465,-2.9598671096345583
0.13754609787700586,-0.9598671096345583
0.13854280873118707,1.0401328903654417
0.13953951958536828,3.0401328903654417
0.14053623043954946,5.040132890365442
0.14153294129373067,5.040132890365442
0.14252965214791188,13.040132890365442
0.1435263630020931,5.040132890365442
0.14452307385627428,9.040132890365442
0.14551978471045549,3.0401328903654417
0.1465164955646367,4.040132890365442
0.14751320641881788,4.040132890365442
0.1485099172729991,-2.9598671096345583
0.1495066281271803,-2.9598671096345583
0.1505033389813615,-6.959867109634558
0.1515000498355427,-7.959867109634558
0.1524967606897239,-10.959867109634558
0.1534934715439051,-9.959867109634558
0.1544901823980863,-6.959867109634558
0.1554868932522675,-5.959867109634558
0.1564836041064487,-5.959867109634558
0.15748031496062992,0.040132890365441654
0.1584770258148111,1.0401328903654417
0.1594737366689923,4.040132890365442
0.16047044752317352,7.040132890365442
0.1614671583773547,9.040132890365442
0.1624638692315359,10.040132890365442
0.16346058008571712,9.040132890365442
0.16445729093989833,4.040132890365442
0.1654540017940795,5.040132890365442
0.16645071264826072,5.040132890365442
0.16744742350244193,3.0401328903654417
0.16844413435662312,-0.9598671096345583
0.16944084521080433,1.0401328903654417
0.17043755606498553,-8.959867109634558
0.17143426691916674,-10.959867109634558
0.17243097777334793,-6.959867109634558
0.17342768862752914,-10.959867109634558
0.17442439948171035,-7.959867109634558
0.17542111033589153,-7.959867109634558
0.17641782119007274,-1.9598671096345583
0.17741453204425395,0.040132890365441654
0.17841124289843516,4.040132890365442
0.17940795375261634,7.040132890365442
0.18040466460679755,4.040132890365442
0.18140137546097876,7.040132890365442
0.18239808631515997,9.040132890365442
0.18339479716934115,5.040132890365442
0.18439150802352236,5.040132890365442
0.18538821887770357,7.040132890365442
0.18638492973188475,5.040132890365442
0.18738164058606596,-0.9598671096345583
0.18837835144024717,-1.9598671096345583
0.18937506229442838,-3.9598671096345583
0.19037177314860956,-7.959867109634558
0.19136848400279077,-7.959867109634558
0.19236519485697198,-10.959867109634558
0.19336190571115316,-10.959867109634558
0.19435861656533437,-3.9598671096345583
0.19535532741951558,-9.959867109634558
0.1963520382736968,-5.959867109634558
0.19734874912787798,1.0401328903654417
0.19834545998205919,2.0401328903654417
0.1993421708362404,4.040132890365442
0.20033888169042158,6.040132890365442
0.2013355925446028,9.040132890365442
0.202332303398784,10.040132890365442
0.2033290142529652,6.040132890365442
0.2043257251071464,4.040132890365442
0.2053224359613276,5.040132890365442
0.2063191468155088,5.040132890365442
0.20731585766969002,2.0401328903654417
0.2083125685238712,-6.959867109634558
0.2093092793780524,-2.9598671096345583
0.21030599023223362,-6.959867109634558
0.2113027010864148,-6.959867109634558
0.212299411940596,-10.959867109634558
0.21329612279477722,-12.959867109634558
0.21429283364895843,-5.959867109634558
0.2152895445031396,-7.959867109634558
0.21628625535732082,-1.9598671096345583
0.21728296621150203,6.040132890365442
0.21827967706568321,1.0401328903654417
0.21927638791986442,4.040132890365442
0.22027309877404563,4.040132890365442
0.22126980962822684,11.040132890365442
0.22226652048240803,8.040132890365442
0.22326323133658924,6.040132890365442
0.22425994219077044,8.040132890365442
0.22525665304495163,4.040132890365442
0.22625336389913284,4.040132890365442
0.22725007475331405,4.040132890365442
0.22824678560749526,-2.9598671096345583
0.22924349646167644,-3.9598671096345583
0.23024020731585765,-3.9598671096345583
0.23123691817003886,-8.959867109634558
0.23223362902422004,-9.959867109634558
0.23323033987840125,-12.959867109634558
0.23422705073258246,-5.959867109634558
0.23522376158676367,-5.959867109634558
0.23622047244094485,-1.9598671096345583
0.23721718329512606,3.0401328903654417
0.23821389414930727,3.0401328903654417
0.23921060500348845,3.0401328903654417
0.24020731585766966,4.040132890365442
0.24120402671185087,6.040132890365442
0.24220073756603208,8.040132890365442
0.24319744842021326,7.040132890365442
0.24419415927439447,5.040132890365442
0.24519087012857568,3.0401328903654417
0.2461875809827569,5.040132890365442
0.24718429183693807,4.040132890365442
0.24818100269111928,0.040132890365441654
0.2491777135453005,-5.959867109634558
0.2501744243994817,-5.959867109634558
0.2511711352536629,-9.959867109634558
0.2521678461078441,-10.959867109634558
0.2531645569620253,-8.959867109634558
0.2541612678162065,-3.9598671096345583
0.2551579786703877,-4.959867109634558
0.2561546895245689,-4.959867109634558
0.2571514003787501,0.040132890365441654
0.2581481112329313,1.0401328903654417
0.2591448220871125,1.0401328903654417
0.2601415329412937,8.040132890365442
0.2611382437954749,7.040132890365442
0.26213495464965614,7.040132890365442
0.2631316655038373,6.040132890365442
0.2641283763580185,6.040132890365442
0.26512508721219974,4.040132890365442
0.2661217980663809,8.040132890365442
0.2671185089205621,1.0401328903654417
0.26811521977474334,2.0401328903654417
0.2691119306289245,-0.9598671096345583
0.2701086414831057,-7.959867109634558
0.27110535233728694,-7.959867109634558
0.2721020631914681,-5.959867109634558
0.2730987740456493,-10.959867109634558
0.27409548489983054,0.040132890365441654
0.2750921957540117,-5.959867109634558
0.27608890660819296,-2.9598671096345583
0.27708561746237415,1.0401328903654417
0.2780823283165553,2.0401328903654417
0.27907903917073656,2.0401328903654417
0.28007575002491775,5.040132890365442
0.28107246087909893,10.040132890365442
0.28206917173328017,11.040132890365442
0.28306588258746135,7.040132890365442
0.28406259344164253,6.040132890365442
0.28505930429582377,5.040132890365442
0.28605601515000495,5.040132890365442
0.2870527260041862,1.0401328903654417
0.28804943685836737,-0.9598671096345583
0.28904614771254855,-5.959867109634558
0.2900428585667298,-10.959867109634558
0.29103956942091097,-8.959867109634558
0.29203628027509215,-8.959867109634558
0.2930329911292734,-9.959867109634558
0.29402970198345457,-5.959867109634558
0.29502641283763575,-2.9598671096345583
0.296023123691817,2.0401328903654417
0.2970198345459982,0.040132890365441654
0.29801654540017936,1.0401328903654417
0.2990132562543606,4.040132890365442
0.3000099671085418,4.040132890365442
0.301006677962723,10.040132890365442
0.3020033888169042,7.040132890365442
0.3030000996710854,7.040132890365442
0.3039968105252666,6.040132890365442
0.3049935213794478,3.0401328903654417
0.305990232233629,4.040132890365442
0.3069869430878102,2.0401328903654417
0.3079836539419914,-1.9598671096345583
0.3089803647961726,1.0401328903654417
0.3099770756503538,-7.959867109634558
0.310973786504535,-11.959867109634558
0.3119704973587162,-9.959867109634558
0.3129672082128974,-8.959867109634558
0.3139639190670786,-4.959867109634558
0.31496062992125984,-2.9598671096345583
0.315957340775441,-2.9598671096345583
0.3169540516296222,0.040132890365441654
0.31795076248380344,0.040132890365441654
0.3189474733379846,5.040132890365442
0.3199441841921658,8.040132890365442
0.32094089504634704,7.040132890365442
0.3219376059005282,10.040132890365442
0.3229343167547094,7.040132890365442
0.32393102760889064,4.040132890365442
0.3249277384630718,5.040132890365442
0.32592444931725306,5.040132890365442
0.32692116017143424,2.0401328903654417
0.3279178710256154,-1.9598671096345583
0.32891458187979666,-4.959867109634558
0.32991129273397785,-7.959867109634558
0.330908003588159,-9.959867109634558
0.33190471444234027,-7.959867109634558
0.33290142529652145,-10.959867109634558
0.33389813615070263,-6.959867109634558
0.33489484700488387,-3.9598671096345583
0.33589155785906505,-2.9598671096345583
0.33688826871324623,1.0401328903654417
0.33788497956742747,5.040132890365442
0.33888169042160865,4.040132890365442
0.3398784012757899,4.040132890365442
0.34087511212997107,7.040132890365442
0.34187182298415225,8.040132890365442
0.3428685338383335,8.040132890365442
0.34386524469251467,4.040132890365442
0.34486195554669585,4.040132890365442
0.3458586664008771,6.040132890365442
0.3468553772550583,7.040132890365442
0.34785208810923945,-2.9598671096345583
0.3488487989634207,0.040132890365441654
0.3498455098176019,-7.959867109634558
0.35084222067178306,-8.959867109634558
0.3518389315259643,-7.959867109634558
0.3528356423801455,-12.959867109634558
0.3538323532343267,-5.959867109634558
0.3548290640885079,-2.9598671096345583
0.3558257749426891,-3.9598671096345583
0.3568224857968703,1.0401328903654417
0.3578191966510515,-1.9598671096345583
0.3588159075052327,6.040132890365442
0.3598126183594139,4.040132890365442
0.3608093292135951,7.040132890365442
0.3618060400677763,7.040132890365442
0.3628027509219575,10.040132890365442
0.3637994617761387,5.040132890365442
0.36479617263031994,6.040132890365442
0.3657928834845011,5.040132890365442
0.3667895943386823,6.040132890365442
0.36778630519286354,-4.959867109634558
0.3687830160470447,0.040132890365441654
0.3697797269012259,-9.959867109634558
0.37077643775540714,-7.959867109634558
0.3717731486095883,-6.959867109634558
0.3727698594637695,-10.959867109634558
0.37376657031795074,-6.959867109634558
0.3747632811721319,-3.9598671096345583
0.3757599920263131,-2.9598671096345583
0.37675670288049434,3.0401328903654417
0.3777534137346755,1.0401328903654417
0.37875012458885676,5.040132890365442
0.37974683544303794,7.040132890365442
0.3807435462972191,6.040132890365442
0.38174025715140036,9.040132890365442
0.38273696800558155,3.0401328903654417
0.38373367885976273,6.040132890365442
0.38473038971394397,7.040132890365442
0.38572710056812515,5.040132890365442
0.38672381142230633,1.0401328903654417
0.38772052227648757,-2.9598671096345583
0.38871723313066875,-3.9598671096345583
0.38971394398485,-8.959867109634558
0.39071065483903117,-11.959867109634558
0.39170736569321235,-11.959867109634558
0.3927040765473936,-8.959867109634558
0.39370078740157477,-1.9598671096345583
0.39469749825575595,-6.959867109634558
0.3956942091099372,-2.9598671096345583
0.39669091996411837,2.0401328903654417
0.39768763081829955,2.0401328903654417
0.3986843416724808,4.040132890365442
0.399681052526662,5.040132890365442
0.40067776338084315,6.040132890365442
0.4016744742350244,12.040132890365442
0.4026711850892056,8.040132890365442
0.4036678959433868,6.040132890365442
0.404664606797568,6.040132890365442
0.4056613176517492,3.0401328903654417
0.4066580285059304,5.040132890365442
0.4076547393601116,-3.9598671096345583
0.4086514502142928,-3.9598671096345583
0.409648161068474,-7.959867109634558
0.4106448719226552,-9.959867109634558
0.4116415827768364,-11.959867109634558
0.4126382936310176,-8.959867109634558
0.4136350044851988,-5.959867109634558
0.41463171533938004,-3.9598671096345583
0.4156284261935612,-2.9598671096345583
0.4166251370477424,0.040132890365441654
0.41762184790192364,-0.9598671096345583
0.4186185587561048,4.040132890365442
0.419615269610286,5.040132890365442
0.42061198046446724,7.040132890365442
0.4216086913186484,8.040132890365442
0.4226054021728296,7.040132890365442
0.42360211302701084,8.040132890365442
0.424598823881192,7.040132890365442
0.4255955347353732,5.040132890365442
0.42659224558955444,6.040132890365442
0.4275889564437356,-1.9598671096345583
0.42858566729791686,-2.9598671096345583
0.42958237815209804,-9.959867109634558
0.4305790890062792,-9.959867109634558
0.43157579986046046,-9.959867109634558
0.43257251071464164,-10.959867109634558
0.4335692215688228,-5.959867109634558
0.43456593242300406,-3.9598671096345583
0.43556264327718525,-3.9598671096345583
0.43655935413136643,1.0401328903654417
0.43755606498554767,3.0401328903654417
0.43855277583972885,3.0401328903654417
0.43954948669391003,4.040132890365442
0.44054619754809127,7.040132890365442
0.44154290840227245,9.040132890365442
0.4425396192564537,8.040132890365442
0.44353633011063487,4.040132890365442
0.44453304096481605,3.0401328903654417
0.4455297518189973,4.040132890365442
0.44652646267317847,1.0401328903654417
0.44752317352735965,-2.9598671096345583
0.4485198843815409,-1.9598671096345583
0.44951659523572207,-7.959867109634558
0.45051330608990325,-11.959867109634558
0.4515100169440845,-10.959867109634558
0.4525067277982657,-7.959867109634558
0.4535034386524469,-2.9598671096345583
0.4545001495066281,-3.9598671096345583
0.4554968603608093,-2.9598671096345583
0.4564935712149905,3.0401328903654417
0.4574902820691717,1.0401328903654417
0.4584869929233529,4.040132890365442
0.4594837037775341,5.040132890365442
0.4604804146317153,6.040132890365442
0.4614771254858965,10.040132890365442
0.4624738363400777,11.040132890365442
0.4634705471942589,5.040132890365442
0.4644672580484401,3.0401328903654417
0.4654639689026213,5.040132890365442
0.4664606797568025,4.040132890365442
0.46745739061098374,-2.9598671096345583
0.4684541014651649,-1.9598671096345583
0.4694508123193461,-9.959867109634558
0.47044752317352734,-6.959867109634558
0.4714442340277085,-11.959867109634558
0.4724409448818897,-11.959867109634558
0.47343765573607094,-4.959867109634558
0.4744343665902521,-2.9598671096345583
0.4754310774444333,-1.9598671096345583
0.47642778829861454,1.0401328903654417
0.4774244991527957,1.0401328903654417
0.4784212100069769,4.040132890365442
0.47941792086115814,6.040132890365442
0.4804146317153393,8.040132890365442
0.48141134256952056,10.040132890365442
0.48240805342370174,10.040132890365442
0.4834047642778829,4.040132890365442
0.48440147513206416,4.040132890365442
0.48539818598624535,4.040132890365442
0.4863948968404265,-0.9598671096345583
0.48739160769460776,-0.9598671096345583
0.48838831854878895,-4.959867109634558
0.48938502940297013,-7.959867109634558
0.49038174025715137,-7.959867109634558
0.49137845111133255,-6.959867109634558
0.4923751619655138,-8.959867109634558
0.49337187281969497,-0.9598671096345583
0.49436858367387615,-8.959867109634558
0.4953652945280574,-1.9598671096345583
0.49636200538223857,1.0401328903654417
0.49735871623641975,2.0401328903654417
0.498355427090601,5.040132890365442
0.49935213794478217,6.040132890365442
0.5003488487989634,10.040132890365442
0.5013455596531445,8.040132890365442
0.5023422705073258,6.040132890365442
0.503338981361507,5.040132890365442
0.5043356922156882,7.040132890365442
0.5053324030698694,7.040132890365442
0.5063291139240506,3.0401328903654417
0.5073258247782317,-3.9598671096345583
0.508322535632413,-1.9598671096345583
0.5093192464865942,-8.959867109634558
0.5103159573407754,-8.959867109634558
0.5113126681949566,-10.959867109634558
0.5123093790491378,-7.959867109634558
0.513306089903319,-7.959867109634558
0.5143028007575002,-7.959867109634558
0.5152995116116814,-1.9598671096345583
0.5162962224658626,3.0401328903654417
0.5172929333200438,1.0401328903654417
0.518289644174225,8.040132890365442
0.5192863550284063,5.040132890365442
0.5202830658825874,8.040132890365442
0.5212797767367686,7.040132890365442
0.5222764875909498,5.040132890365442
0.523273198445131,4.040132890365442
0.5242699092993123,4.040132890365442
0.5252666201534935,4.040132890365442
0.5262633310076746,1.0401328903654417
0.5272600418618558,-3.9598671096345583
0.528256752716037,-5.959867109634558
0.5292534635702182,-6.959867109634558
0.5302501744243995,-10.959867109634558
0.5312468852785807,-6.959867109634558
0.5322435961327618,-6.959867109634558
0.533240306986943,-3.9598671096345583
0.5342370178411242,-3.9598671096345583
0.5352337286953054,-2.9598671096345583
0.5362304395494867,0.040132890365441654
0.5372271504036679,4.040132890365442
0.538223861257849,0.040132890365441654
0.5392205721120302,3.0401328903654417
0.5402172829662114,9.040132890365442
0.5412139938203927,8.040132890365442
0.5422107046745739,8.040132890365442
0.5432074155287551,9.040132890365442
0.5442041263829362,2.0401328903654417
0.5452008372371174,5.040132890365442
0.5461975480912986,2.0401328903654417
0.5471942589454799,-3.9598671096345583
0.5481909697996611,-2.9598671096345583
0.5491876806538423,-7.959867109634558
0.5501843915080235,-9.959867109634558
0.5511811023622046,-8.959867109634558
0.5521778132163859,-12.959867109634558
0.5531745240705671,-6.959867109634558
0.5541712349247483,-2.9598671096345583
0.5551679457789295,-1.9598671096345583
0.5561646566331107,4.040132890365442
0.5571613674872918,0.040132890365441654
0.5581580783414731,2.0401328903654417
0.5591547891956543,5.040132890365442
0.5601515000498355,6.040132890365442
0.5611482109040167,7.040132890365442
0.5621449217581979,8.040132890365442
0.5631416326123792,5.040132890365442
0.5641383434665603,3.0401328903654417
0.5651350543207415,3.0401328903654417
0.5661317651749227,2.0401328903654417
0.5671284760291039,-2.9598671096345583
0.5681251868832851,-2.9598671096345583
0.5691218977374664,-8.959867109634558
0.5701186085916475,-6.959867109634558
0.5711153194458287,-10.959867109634558
0.5721120303000099,-9.959867109634558
0.5731087411541911,-3.9598671096345583
0.5741054520083724,-6.959867109634558
0.5751021628625536,-3.9598671096345583
0.5760988737167347,1.0401328903654417
0.5770955845709159,3.0401328903654417
0.5780922954250971,2.0401328903654417
0.5790890062792783,9.040132890365442
0.5800857171334596,7.040132890365442
0.5810824279876408,13.040132890365442
0.5820791388418219,4.040132890365442
0.5830758496960031,7.040132890365442
0.5840725605501843,6.040132890365442
0.5850692714043655,4.040132890365442
0.5860659822585468,0.040132890365441654
0.587062693112728,1.0401328903654417
0.5880594039669091,-6.959867109634558
0.5890561148210903,-10.959867109634558
0.5900528256752715,-8.959867109634558
0.5910495365294528,-8.959867109634558
0.592046247383634,-9.959867109634558
0.5930429582378152,-2.9598671096345583
0.5940396690919963,-4.959867109634558
0.5950363799461775,-2.9598671096345583
0.5960330908003587,1.0401328903654417
0.59702980165454,-0.9598671096345583
0.5980265125087212,7.040132890365442
0.5990232233629024,7.040132890365442
0.6000199342170836,9.040132890365442
0.6010166450712647,12.040132890365442
0.602013355925446,8.040132890365442
0.6030100667796272,5.040132890365442
0.6040067776338084,5.040132890365442
0.6050034884879896,6.040132890365442
0.6060001993421708,1.0401328903654417
0.6069969101963519,-2.9598671096345583
0.6079936210505332,-3.9598671096345583
0.6089903319047144,-9.959867109634558
0.6099870427588956,-10.959867109634558
0.6109837536130768,-9.959867109634558
0.611980464467258,-6.959867109634558
0.6129771753214392,-7.959867109634558
0.6139738861756204,-7.959867109634558
0.6149705970298016,-2.9598671096345583
0.6159673078839828,1.0401328903654417
0.616964018738164,2.0401328903654417
0.6179607295923452,7.040132890365442
0.6189574404465265,4.040132890365442
0.6199541513007076,10.040132890365442
0.6209508621548888,8.040132890365442
0.62194757300907,8.040132890365442
0.6229442838632512,4.040132890365442
0.6239409947174324,4.040132890365442
0.6249377055716137,4.040132890365442
0.6259344164257948,4.040132890365442
0.626931127279976,-4.959867109634558
0.6279278381341572,-3.9598671096345583
0.6289245489883384,-9.959867109634558
0.6299212598425197,-7.959867109634558
0.6309179706967009,-9.959867109634558
0.631914681550882,-10.959867109634558
0.6329113924050632,-4.959867109634558
0.6339081032592444,-3.9598671096345583
0.6349048141134256,-0.9598671096345583
0.6359015249676069,0.040132890365441654
0.6368982358217881,4.040132890365442
0.6378949466759692,5.040132890365442
0.6388916575301504,4.040132890365442
0.6398883683843316,9.040132890365442
0.6408850792385129,12.040132890365442
0.6418817900926941,6.040132890365442
0.6428785009468753,9.040132890365442
0.6438752118010564,3.0401328903654417
0.6448719226552376,3.0401328903654417
0.6458686335094188,1.0401328903654417
0.6468653443636001,-2.9598671096345583
0.6478620552177813,-3.9598671096345583
0.6488587660719625,-11.959867109634558
0.6498554769261436,-7.959867109634558
0.6508521877803248,-10.959867109634558
0.6518488986345061,-7.959867109634558
0.6528456094886873,-3.9598671096345583
0.6538423203428685,-2.9598671096345583
0.6548390311970497,-1.9598671096345583
0.6558357420512309,3.0401328903654417
0.656832452905412,3.0401328903654417
0.6578291637595933,3.0401328903654417
0.6588258746137745,6.040132890365442
0.6598225854679557,7.040132890365442
0.6608192963221369,8.040132890365442
0.661816007176318,9.040132890365442
0.6628127180304992,5.040132890365442
0.6638094288846805,2.0401328903654417
0.6648061397388617,4.040132890365442
0.6658028505930429,5.040132890365442
0.6667995614472241,-3.9598671096345583
0.6677962723014053,0.040132890365441654
0.6687929831555866,-7.959867109634558
0.6697896940097677,-9.959867109634558
0.6707864048639489,-9.959867109634558
0.6717831157181301,-8.959867109634558
0.6727798265723113,-4.959867109634558
0.6737765374264925,-3.9598671096345583
0.6747732482806738,0.040132890365441654
0.6757699591348549,2.0401328903654417
0.6767666699890361,1.0401328903654417
0.6777633808432173,2.0401328903654417
0.6787600916973985,7.040132890365442
0.6797568025515798,7.040132890365442
0.680753513405761,11.040132890365442
0.6817502242599421,9.040132890365442
0.6827469351141233,2.0401328903654417
0.6837436459683045,4.040132890365442
0.6847403568224857,3.0401328903654417
0.685737067676667,2.0401328903654417
0.6867337785308482,1.0401328903654417
0.6877304893850293,-4.959867109634558
0.6887272002392105,-7.959867109634558
0.6897239110933917,-8.959867109634558
0.690720621947573,-11.959867109634558
0.6917173328017542,-11.959867109634558
0.6927140436559354,-1.9598671096345583
0.6937107545101165,-5.959867109634558
0.6947074653642977,-1.9598671096345583
0.6957041762184789,3.0401328903654417
0.6967008870726602,4.040132890365442
0.6976975979268414,5.040132890365442
0.6986943087810226,8.040132890365442
0.6996910196352037,8.040132890365442
0.7006877304893849,12.040132890365442
0.7016844413435661,4.040132890365442
0.7026811521977474,3.0401328903654417
0.7036778630519286,4.040132890365442
0.7046745739061098,4.040132890365442
0.705671284760291,1.0401328903654417
0.7066679956144721,-1.9598671096345583
0.7076647064686534,-3.9598671096345583
0.7086614173228346,-7.959867109634558
0.7096581281770158,-9.959867109634558
0.710654839031197,-11.959867109634558
0.7116515498853782,-6.959867109634558
0.7126482607395593,-6.959867109634558
0.7136449715937406,-4.959867109634558
0.7146416824479218,-0.9598671096345583
0.715638393302103,2.0401328903654417
0.7166351041562842,3.0401328903654417
0.7176318150104654,4.040132890365442
0.7186285258646467,5.040132890365442
0.7196252367188278,10.040132890365442
0.720621947573009,8.040132890365442
0.7216186584271902,8.040132890365442
0.7226153692813714,4.040132890365442
0.7236120801355526,4.040132890365442
0.7246087909897339,5.040132890365442
0.725605501843915,-0.9598671096345583
0.7266022126980962,-2.9598671096345583
0.7275989235522774,-4.959867109634558
0.7285956344064586,-8.959867109634558
0.7295923452606399,-7.959867109634558
0.7305890561148211,-9.959867109634558
0.7315857669690022,-10.959867109634558
0.7325824778231834,-2.9598671096345583
0.7335791886773646,-3.9598671096345583
0.7345758995315458,-0.9598671096345583
0.7355726103857271,1.0401328903654417
0.7365693212399083,-0.9598671096345583
0.7375660320940894,4.040132890365442
0.7385627429482706,8.040132890365442
0.7395594538024518,8.040132890365442
0.7405561646566331,11.040132890365442
0.7415528755108143,4.040132890365442
0.7425495863649955,5.040132890365442
0.7435462972191766,5.040132890365442
0.7445430080733578,5.040132890365442
0.745539718927539,0.040132890365441654
0.7465364297817203,-1.9598671096345583
0.7475331406359015,-2.9598671096345583
0.7485298514900827,-10.959867109634558
0.7495265623442638,-9.959867109634558
0.750523273198445,-12.959867109634558
0.7515199840526262,-7.959867109634558
0.7525166949068075,-5.959867109634558
0.7535134057609887,-5.959867109634558
0.7545101166151699,-3.9598671096345583
0.755506827469351,2.0401328903654417
0.7565035383235322,2.0401328903654417
0.7575002491777135,8.040132890365442
0.7584969600318947,4.040132890365442
0.7594936708860759,9.040132890365442
0.7604903817402571,9.040132890365442
0.7614870925944383,9.040132890365442
0.7624838034486194,4.040132890365442
0.7634805143028007,4.040132890365442
0.7644772251569819,7.040132890365442
0.7654739360111631,-1.9598671096345583
0.7664706468653443,-0.9598671096345583
0.7674673577195255,0.040132890365441654
0.7684640685737067,-8.959867109634558
0.7694607794278879,-9.959867109634558
0.7704574902820691,-7.959867109634558
0.7714542011362503,-9.959867109634558
0.7724509119904315,-6.959867109634558
0.7734476228446127,-2.9598671096345583
0.774444333698794,-2.9598671096345583
0.7754410445529751,1.0401328903654417
0.7764377554071563,-0.9598671096345583
0.7774344662613375,4.040132890365442
0.7784311771155187,8.040132890365442
0.7794278879697,9.040132890365442
0.7804245988238812,9.040132890365442
0.7814213096780623,6.040132890365442
0.7824180205322435,4.040132890365442
0.7834147313864247,1.0401328903654417
0.7844114422406059,3.0401328903654417
0.7854081530947872,4.040132890365442
0.7864048639489684,-1.9598671096345583
0.7874015748031495,-6.959867109634558
0.7883982856573307,-9.959867109634558
0.7893949965115119,-7.959867109634558
0.7903917073656931,-8.959867109634558
0.7913884182198744,-7.959867109634558
0.7923851290740556,-6.959867109634558
0.7933818399282367,-5.959867109634558
0.7943785507824179,-0.9598671096345583
0.7953752616365991,1.0401328903654417
0.7963719724907804,1.0401328903654417
0.7973686833449616,6.040132890365442
0.7983653941991428,7.040132890365442
0.799362105053324,10.040132890365442
0.8003588159075051,11.040132890365442
0.8013555267616863,8.040132890365442
0.8023522376158676,4.040132890365442
0.8033489484700488,5.040132890365442
0.80434565932423,6.040132890365442
0.8053423701784111,1.0401328903654417
0.8063390810325923,-3.9598671096345583
0.8073357918867736,-3.9598671096345583
0.8083325027409548,-7.959867109634558
0.809329213595136,-10.959867109634558
0.8103259244493172,-12.959867109634558
0.8113226353034984,-7.959867109634558
0.8123193461576795,-7.959867109634558
0.8133160570118608,-7.959867109634558
0.814312767866042,-0.9598671096345583
0.8153094787202232,1.0401328903654417
0.8163061895744044,2.0401328903654417
0.8173029004285856,8.040132890365442
0.8182996112827668,4.040132890365442
0.819296322136948,7.040132890365442
0.8202930329911292,10.040132890365442
0.8212897438453104,3.0401328903654417
0.8222864546994916,4.040132890365442
0.8232831655536728,4.040132890365442
0.824279876407854,6.040132890365442
0.8252765872620352,3.0401328903654417
0.8262732981162164,-3.9598671096345583
0.8272700089703976,-0.9598671096345583
0.8282667198245788,-5.959867109634558
0.8292634306787601,-10.959867109634558
0.8302601415329413,-8.959867109634558
0.8312568523871224,-7.959867109634558
0.8322535632413036,-6.959867109634558
0.8332502740954848,-3.9598671096345583
0.834246984949666,-1.9598671096345583
0.8352436958038473,1.0401328903654417
0.8362404066580285,4.040132890365442
0.8372371175122096,1.0401328903654417
0.8382338283663908,5.040132890365442
0.839230539220572,8.040132890365442
0.8402272500747532,10.040132890365442
0.8412239609289345,5.040132890365442
0.8422206717831157,4.040132890365442
0.8432173826372968,5.040132890365442
0.844214093491478,4.040132890365442
0.8452108043456592,-2.9598671096345583
0.8462075151998405,-4.959867109634558
0.8472042260540217,-4.959867109634558
0.8482009369082029,-9.959867109634558
0.849197647762384,-9.959867109634558
0.8501943586165652,-9.959867109634558
0.8511910694707464,-7.959867109634558
0.8521877803249277,-2.9598671096345583
0.8531844911791089,-7.959867109634558
0.8541812020332901,-3.9598671096345583
0.8551779128874712,4.040132890365442
0.8561746237416524,3.0401328903654417
0.8571713345958337,4.040132890365442
0.8581680454500149,7.040132890365442
0.8591647563041961,11.040132890365442
0.8601614671583773,8.040132890365442
0.8611581780125585,12.040132890365442
0.8621548888667396,3.0401328903654417
0.8631515997209209,1.0401328903654417
0.8641483105751021,6.040132890365442
0.8651450214292833,7.040132890365442
0.8661417322834645,-4.959867109634558
0.8671384431376457,-1.9598671096345583
0.868135153991827,-9.959867109634558
0.8691318648460081,-9.959867109634558
0.8701285757001893,-9.959867109634558
0.8711252865543705,-9.959867109634558
0.8721219974085517,-5.959867109634558
0.8731187082627329,-3.9598671096345583
0.8741154191169141,-1.9598671096345583
0.8751121299710953,2.0401328903654417
0.8761088408252765,-0.9598671096345583
0.8771055516794577,4.040132890365442
0.8781022625336389,6.040132890365442
0.8790989733878201,10.040132890365442
0.8800956842420014,8.040132890365442
0.8810923950961825,4.040132890365442
0.8820891059503637,7.040132890365442
0.8830858168045449,5.040132890365442
0.8840825276587261,6.040132890365442
0.8850792385129074,1.0401328903654417
0.8860759493670886,-2.9598671096345583
0.8870726602212697,-6.959867109634558
0.8880693710754509,-8.959867109634558
0.8890660819296321,-7.959867109634558
0.8900627927838133,-9.959867109634558
0.8910595036379946,-8.959867109634558
0.8920562144921758,-2.9598671096345583
0.8930529253463569,-7.959867109634558
0.8940496362005381,0.040132890365441654
0.8950463470547193,1.0401328903654417
0.8960430579089006,1.0401328903654417
0.8970397687630818,2.0401328903654417
0.898036479617263,5.040132890365442
0.8990331904714441,9.040132890365442
0.9000299013256253,11.040132890365442
0.9010266121798065,6.040132890365442
0.9020233230339878,6.040132890365442
0.903020033888169,6.040132890365442
0.9040167447423502,6.040132890365442
0.9050134555965313,0.040132890365441654
0.9060101664507125,-5.959867109634558
0.9070068773048938,-6.959867109634558
0.908003588159075,-8.959867109634558
0.9090002990132562,-9.959867109634558
0.9099970098674374,-10.959867109634558
0.9109937207216185,-7.959867109634558
0.9119904315757997,-6.959867109634558
0.912987142429981,-4.959867109634558
0.9139838532841622,-1.9598671096345583
0.9149805641383434,1.0401328903654417
0.9159772749925246,4.040132890365442
0.9169739858467058,7.040132890365442
0.9179706967008869,7.040132890365442
0.9189674075550682,10.040132890365442
0.9199641184092494,9.040132890365442
0.9209608292634306,8.040132890365442
0.9219575401176118,6.040132890365442
0.922954250971793,5.040132890365442
0.9239509618259742,4.040132890365442
0.9249476726801554,-1.9598671096345583
0.9259443835343366,-5.959867109634558
0.9269410943885178,-7.959867109634558
0.927937805242699,-7.959867109634558
0.9289345160968802,-10.959867109634558
0.9299312269510615,-9.959867109634558
0.9309279378052426,-8.959867109634558
0.9319246486594238,0.040132890365441654
0.932921359513605,-3.9598671096345583
0.9339180703677862,-0.9598671096345583
0.9349147812219675,0.040132890365441654
0.9359114920761487,0.040132890365441654
0.9369082029303298,-1.9598671096345583
0.937904913784511,-0.9598671096345583
0.9389016246386922,5.040132890365442
0.9398983354928734,13.040132890365442
0.9408950463470547,13.040132890365442
0.9418917572012359,8.040132890365442
0.942888468055417,2.0401328903654417
0.9438851789095982,4.040132890365442
0.9448818897637794,6.040132890365442
0.9458786006179607,5.040132890365442
0.9468753114721419,0.040132890365441654
0.9478720223263231,-10.959867109634558
0.9488687331805042,-12.959867109634558
0.9498654440346854,-10.959867109634558
0.9508621548888666,-6.959867109634558
0.9518588657430479,-4.959867109634558
0.9528555765972291,0.040132890365441654
0.9538522874514103,0.040132890365441654
0.9548489983055914,3.0401328903654417
0.9558457091597726,1.0401328903654417
0.9568424200139538,2.0401328903654417
0.9578391308681351,1.0401328903654417
0.9588358417223163,1.0401328903654417
0.9598325525764975,4.040132890365442
0.9608292634306786,4.040132890365442
0.9618259742848598,3.0401328903654417
0.9628226851390411,17.04013289036544
0.9638193959932223,18.04013289036544
0.9648161068474035,14.040132890365442
0.9658128177015847,12.040132890365442
0.9668095285557659,9.040132890365442
0.967806239409947,-1.9598671096345583
0.9688029502641283,-6.959867109634558
0.9697996611183095,-26.95986710963456
0.9707963719724907,-36.95986710963456
0.9717930828266719,-29.95986710963456
0.972789793680853,-34.95986710963456
0.9737865045350343,-27.95986710963456
0.9747832153892155,-10.959867109634558
0.9757799262433967,-7.959867109634558
0.9767766370975779,-4.959867109634558
0.9777733479517591,6.040132890365442
0.9787700588059403,18.04013289036544
0.9797667696601216,28.04013289036544
0.9807634805143027,24.04013289036544
0.9817601913684839,19.04013289036544
0.9827569022226651,17.04013289036544
0.9837536130768463,7.040132890365442
0.9847503239310276,-2.9598671096345583
0.9857470347852088,-3.9598671096345583
0.9867437456393899,-7.959867109634558
0.9877404564935711,-10.959867109634558
0.9887371673477523,-4.959867109634558
0.9897338782019335,-2.9598671096345583
0.9907305890561148,-1.9598671096345583
0.991727299910296,9.040132890365442
0.9927240107644771,2.0401328903654417
0.9937207216186583,5.040132890365442
0.9947174324728395,-4.959867109634558
0.9957141433270208,-9.959867109634558
0.996710854181202,-2.9598671096345583
0.9977075650353832,5.040132890365442
0.9987042758895643,6.040132890365442
0.9997009867437455,5.040132890365442
1.0006976975979267,-2.9598671096345583
1.001694408452108,-0.9598671096345583
1.002691119306289,4.040132890365442
1.0036878301604704,5.040132890365442
1.0046845410146517,14.040132890365442
1.0056812518688327,11.040132890365442
1.006677962723014,9.040132890365442
1.007674673577195,-11.959867109634558
1.0086713844313764,-24.95986710963456
1.0096680952855577,-20.95986710963456
1.0106648061397387,-3.9598671096345583
1.01166151699392,6.040132890365442
1.0126582278481011,5.040132890365442
1.0136549387022824,24.04013289036544
1.0146516495564635,44.04013289036544
1.0156483604106448,50.04013289036544
1.016645071264826,34.04013289036544
1.0176417821190071,19.04013289036544
1.0186384929731884,-3.9598671096345583
1.0196352038273695,-17.95986710963456
1.0206319146815508,-20.95986710963456
1.021628625535732,-37.95986710963456
1.0226253363899132,-55.95986710963456
1.0236220472440944,-58.95986710963456
1.0246187580982755,-42.95986710963456
1.0256154689524568,-29.95986710963456
1.026612179806638,-14.959867109634558
1.0276088906608192,1.0401328903654417
1.0286056015150005,4.040132890365442
1.0296023123691815,15.040132890365442
1.0305990232233628,18.04013289036544
1.031595734077544,14.040132890365442
1.0325924449317252,4.040132890365442
1.0335891557859065,-1.9598671096345583
1.0345858666400876,3.0401328903654417
1.0355825774942689,16.04013289036544
1.03657928834845,12.040132890365442
1.0375759992026312,-1.9598671096345583
1.0385727100568125,3.0401328903654417
1.0395694209109936,29.04013289036544
1.0405661317651749,41.04013289036544
1.041562842619356,27.04013289036544
1.0425595534735372,15.040132890365442
1.0435562643277185,-8.959867109634558
1.0445529751818996,-20.95986710963456
1.045549686036081,-31.95986710963456
1.046546396890262,-18.95986710963456
1.0475431077444433,-19.95986710963456
1.0485398185986246,-21.95986710963456
1.0495365294528056,-7.959867109634558
1.050533240306987,-2.9598671096345583
1.051529951161168,1.0401328903654417
1.0525266620153493,15.040132890365442
1.0535233728695304,24.04013289036544
1.0545200837237116,17.04013289036544
1.055516794577893,-5.959867109634558
1.056513505432074,-26.95986710963456
1.0575102162862553,-20.95986710963456
1.0585069271404364,-15.959867109634558
1.0595036379946177,-10.959867109634558
1.060500348848799,-5.959867109634558
1.06149705970298,9.040132890365442
1.0624937705571613,33.04013289036544
1.0634904814113424,52.04013289036544
1.0644871922655237,70.04013289036544
1.065483903119705,44.04013289036544
1.066480613973886,17.04013289036544
1.0674773248280673,5.040132890365442
1.0684740356822484,19.04013289036544
1.0694707465364297,11.040132890365442
1.0704674573906108,-29.95986710963456
1.071464168244792,-41.95986710963456
1.0724608790989734,-31.95986710963456
1.0734575899531544,-44.95986710963456
1.0744543008073357,-51.95986710963456
1.0754510116615168,-36.95986710963456
1.076447722515698,-20.95986710963456
1.0774444333698794,-9.959867109634558
1.0784411442240605,-12.959867109634558
1.0794378550782417,2.0401328903654417
1.0804345659324228,29.04013289036544
1.0814312767866041,40.04013289036544
1.0824279876407854,22.04013289036544
1.0834246984949665,-4.959867109634558
1.0844214093491478,-40.95986710963456
1.0854181202033288,-60.95986710963456
1.0864148310575101,-55.95986710963456
1.0874115419116914,-28.95986710963456
1.0884082527658725,-3.9598671096345583
1.0894049636200538,41.04013289036544
1.0904016744742349,59.04013289036544
1.0913983853284162,24.04013289036544
1.0923950961825972,12.040132890365442
1.0933918070367785,30.04013289036544
1.0943885178909598,13.040132890365442
1.0953852287451409,19.04013289036544
1.0963819395993222,-26.95986710963456
1.0973786504535032,-33.95986710963456
1.0983753613076845,2.0401328903654417
1.0993720721618658,38.04013289036544
1.100368783016047,77.04013289036544
1.1013654938702282,61.04013289036544
1.1023622047244093,-3.9598671096345583
1.1033589155785906,-59.95986710963456
1.1043556264327719,-83.95986710963456
1.105352337286953,-54.95986710963456
1.1063490481411342,-16.95986710963456
1.1073457589953153,-10.959867109634558
1.1083424698494966,5.040132890365442
1.1093391807036777,-2.9598671096345583
1.110335891557859,1.0401328903654417
1.1113326024120402,3.0401328903654417
1.1123293132662213,-3.9598671096345583
1.1133260241204026,25.04013289036544
1.1143227349745837,25.04013289036544
1.115319445828765,17.04013289036544
1.1163161566829463,12.040132890365442
1.1173128675371273,12.040132890365442
1.1183095783913086,38.04013289036544
1.1193062892454897,47.04013289036544
1.120303000099671,48.04013289036544
1.1212997109538523,52.04013289036544
1.1222964218080334,65.04013289036544
1.1232931326622146,49.04013289036544
1.1242898435163957,-29.95986710963456
1.125286554370577,-102.95986710963456
1.1262832652247583,-129.95986710963456
1.1272799760789394,-119.95986710963456
1.1282766869331207,-114.95986710963456
1.1292733977873017,-100.95986710963456
1.130270108641483,-46.95986710963456
1.131266819495664,7.040132890365442
1.1322635303498454,40.04013289036544
1.1332602412040267,54.04013289036544
1.1342569520582078,36.04013289036544
1.135253662912389,12.040132890365442
1.1362503737665701,3.0401328903654417
1.1372470846207514,23.04013289036544
1.1382437954749327,65.04013289036544
1.1392405063291138,77.04013289036544
1.140237217183295,72.04013289036544
1.1412339280374761,66.04013289036544
1.1422306388916574,56.04013289036544
1.1432273497458387,79.04013289036544
1.1442240606000198,37.04013289036544
1.145220771454201,-10.959867109634558
1.1462174823083822,-56.95986710963456
1.1472141931625635,-92.95986710963456
1.1482109040167447,-53.95986710963456
1.1492076148709258,-7.959867109634558
1.1502043257251071,1.0401328903654417
1.1512010365792882,-28.95986710963456
1.1521977474334695,-45.95986710963456
1.1531944582876505,-23.95986710963456
1.1541911691418318,-41.95986710963456
1.1551878799960131,-65.95986710963456
1.1561845908501942,-25.95986710963456
1.1571813017043755,-14.959867109634558
1.1581780125585566,-16.95986710963456
1.1591747234127379,-3.9598671096345583
1.1601714342669192,29.04013289036544
1.1611681451211002,42.04013289036544
1.1621648559752815,49.04013289036544
1.1631615668294626,59.04013289036544
1.1641582776836439,81.04013289036544
1.1651549885378252,70.04013289036544
1.1661516993920062,6.040132890365442
1.1671484102461875,-24.95986710963456
1.1681451211003686,-27.95986710963456
1.16914183195455,-66.95986710963456
1.170138542808731,-99.95986710963456
1.1711352536629123,-61.95986710963456
1.1721319645170936,12.040132890365442
1.1731286753712746,77.04013289036544
1.174125386225456,67.04013289036544
1.175122097079637,16.04013289036544
1.1761188079338183,7.040132890365442
1.1771155187879996,0.040132890365441654
1.1781122296421807,-51.95986710963456
1.179108940496362,-67.95986710963456
1.180105651350543,-60.95986710963456
1.1811023622047243,-44.95986710963456
1.1820990730589056,-13.959867109634558
1.1830957839130867,7.040132890365442
1.184092494767268,16.04013289036544
1.185089205621449,13.040132890365442
1.1860859164756303,38.04013289036544
1.1870826273298116,39.04013289036544
1.1880793381839927,32.04013289036544
1.189076049038174,1.0401328903654417
1.190072759892355,-25.95986710963456
1.1910694707465364,1.0401328903654417
1.1920661816007174,14.040132890365442
1.1930628924548987,25.04013289036544
1.19405960330908,8.040132890365442
1.195056314163261,-11.959867109634558
1.1960530250174424,16.04013289036544
1.1970497358716234,11.040132890365442
1.1980464467258047,45.04013289036544
1.199043157579986,98.04013289036544
1.200039868434167,64.04013289036544
1.2010365792883484,22.04013289036544
1.2020332901425295,7.040132890365442
1.2030300009967108,-78.95986710963456
1.204026711850892,-103.95986710963456
1.2050234227050731,-111.95986710963456
1.2060201335592544,-76.95986710963456
1.2070168444134355,-38.95986710963456
1.2080135552676168,3.0401328903654417
1.2090102661217978,3.0401328903654417
1.2100069769759791,-1.9598671096345583
1.2110036878301604,31.04013289036544
1.2120003986843415,71.04013289036544
1.2129971095385228,48.04013289036544
1.2139938203927039,10.040132890365442
1.2149905312468852,-24.95986710963456
1.2159872421010665,-72.95986710963456
1.2169839529552475,-91.95986710963456
1.2179806638094288,-74.95986710963456
1.21897737466361,-33.95986710963456
1.2199740855177912,8.040132890365442
1.2209707963719725,30.04013289036544
1.2219675072261535,40.04013289036544
1.2229642180803348,52.04013289036544
1.223960928934516,63.04013289036544
1.2249576397886972,90.04013289036544
1.2259543506428785,97.04013289036544
1.2269510614970596,21.04013289036544
1.2279477723512409,-18.95986710963456
1.228944483205422,-49.95986710963456
1.2299411940596032,-59.95986710963456
1.2309379049137843,-22.95986710963456
1.2319346157679656,23.04013289036544
1.2329313266221469,38.04013289036544
1.233928037476328,33.04013289036544
1.2349247483305092,-6.959867109634558
1.2359214591846903,-42.95986710963456
1.2369181700388716,-84.95986710963456
1.237914880893053,-61.95986710963456
1.238911591747234,-14.959867109634558
1.2399083026014153,37.04013289036544
1.2409050134555963,84.04013289036544
1.2419017243097776,84.04013289036544
1.242898435163959,44.04013289036544
1.24389514601814,-57.95986710963456
1.2448918568723213,-129.95986710963456
1.2458885677265024,-103.95986710963456
1.2468852785806837,-40.95986710963456
1.2478819894348647,17.04013289036544
1.248878700289046,78.04013289036544
1.2498754111432273,108.04013289036544
1.2508721219974084,83.04013289036544
1.2518688328515897,63.04013289036544
1.2528655437057707,20.04013289036544
1.253862254559952,-15.959867109634558
1.2548589654141333,-70.95986710963456
1.2558556762683144,-91.95986710963456
1.2568523871224957,-93.95986710963456
1.2578490979766768,-71.95986710963456
1.258845808830858,-6.959867109634558
1.2598425196850394,63.04013289036544
1.2608392305392204,122.04013289036544
1.2618359413934017,115.04013289036544
1.2628326522475828,63.04013289036544
1.263829363101764,-6.959867109634558
1.2648260739559454,-31.95986710963456
1.2658227848101264,6.040132890365442
1.2668194956643077,3.0401328903654417
1.2678162065184888,12.040132890365442
1.26881291737267,-53.95986710963456
1.2698096282268512,-112.95986710963456
1.2708063390810325,-14.959867109634558
1.2718030499352138,20.04013289036544
1.2727997607893948,33.04013289036544
1.2737964716435761,40.04013289036544
1.2747931824977572,5.040132890365442
1.2757898933519385,-42.95986710963456
1.2767866042061198,-72.95986710963456
1.2777833150603009,-85.95986710963456
1.2787800259144821,-16.95986710963456
1.2797767367686632,57.04013289036544
1.2807734476228445,81.04013289036544
1.2817701584770258,85.04013289036544
1.2827668693312069,40.04013289036544
1.2837635801853882,16.04013289036544
1.2847602910395692,-13.959867109634558
1.2857570018937505,-56.95986710963456
1.2867537127479316,-48.95986710963456
1.287750423602113,-34.95986710963456
1.2887471344562942,-26.95986710963456
1.2897438453104753,-7.959867109634558
1.2907405561646565,-4.959867109634558
1.2917372670188376,17.04013289036544
1.292733977873019,36.04013289036544
1.2937306887272002,66.04013289036544
1.2947273995813813,59.04013289036544
1.2957241104355626,55.04013289036544
1.2967208212897436,-39.95986710963456
1.297717532143925,-110.95986710963456
1.2987142429981062,-94.95986710963456
1.2997109538522873,-73.95986710963456
1.3007076647064686,-7.959867109634558
1.3017043755606497,39.04013289036544
1.302701086414831,35.04013289036544
1.3036977972690122,17.04013289036544
1.3046945081231933,80.04013289036544
1.3056912189773746,131.04013289036544
1.3066879298315557,78.04013289036544
1.307684640685737,21.04013289036544
1.308681351539918,-65.95986710963456
1.3096780623940993,-119.95986710963456
1.3106747732482806,-86.95986710963456
1.3116714841024617,-11.959867109634558
1.312668194956643,43.04013289036544
1.313664905810824,24.04013289036544
1.3146616166650054,8.040132890365442
1.3156583275191867,-7.959867109634558
1.3166550383733677,13.040132890365442
1.317651749227549,66.04013289036544
1.31864846008173,65.04013289036544
1.3196451709359114,20.04013289036544
1.3206418817900927,17.04013289036544
1.3216385926442737,-31.95986710963456
1.322635303498455,-53.95986710963456
1.323632014352636,-109.95986710963456
1.3246287252068174,-121.95986710963456
1.3256254360609985,-94.95986710963456
1.3266221469151798,-67.95986710963456
1.327618857769361,12.040132890365442
1.3286155686235421,40.04013289036544
1.3296122794777234,21.04013289036544
1.3306089903319045,46.04013289036544
1.3316057011860858,43.04013289036544
1.332602412040267,9.040132890365442
1.3335991228944482,36.04013289036544
1.3345958337486294,92.04013289036544
1.3355925446028105,31.04013289036544
1.3365892554569918,-20.95986710963456
1.337585966311173,-36.95986710963456
1.3385826771653542,-18.95986710963456
1.3395793880195355,13.040132890365442
1.3405760988737165,24.04013289036544
1.3415728097278978,7.040132890365442
1.3425695205820791,16.04013289036544
1.3435662314362602,14.040132890365442
1.3445629422904415,35.04013289036544
1.3455596531446226,21.04013289036544
1.3465563639988039,-44.95986710963456
1.347553074852985,-72.95986710963456
1.3485497857071662,-32.95986710963456
1.3495464965613475,1.0401328903654417
1.3505432074155286,72.04013289036544
1.3515399182697099,68.04013289036544
1.352536629123891,61.04013289036544
1.3535333399780722,53.04013289036544
1.3545300508322535,-8.959867109634558
1.3555267616864346,-83.95986710963456
1.356523472540616,-123.95986710963456
1.357520183394797,-96.95986710963456
1.3585168942489783,-34.95986710963456
1.3595136051031596,32.04013289036544
1.3605103159573406,64.04013289036544
1.361507026811522,33.04013289036544
1.362503737665703,8.040132890365442
1.3635004485198843,-9.959867109634558
1.3644971593740653,-39.95986710963456
1.3654938702282466,-1.9598671096345583
1.366490581082428,61.04013289036544
1.367487291936609,17.04013289036544
1.3684840027907903,7.040132890365442
1.3694807136449714,-4.959867109634558
1.3704774244991527,-14.959867109634558
1.371474135353334,-33.95986710963456
1.372470846207515,-33.95986710963456
1.3734675570616963,5.040132890365442
1.3744642679158774,52.04013289036544
1.3754609787700587,107.04013289036544
1.37645768962424,57.04013289036544
1.377454400478421,-2.9598671096345583
1.3784511113326023,-55.95986710963456
1.3794478221867834,-75.95986710963456
1.3804445330409647,-35.95986710963456
1.381441243895146,-6.959867109634558
1.382437954749327,-2.9598671096345583
1.3834346656035084,-5.959867109634558
1.3844313764576894,17.04013289036544
1.3854280873118707,30.04013289036544
1.3864247981660518,17.04013289036544
1.387421509020233,2.0401328903654417
1.3884182198744144,2.0401328903654417
1.3894149307285955,-9.959867109634558
1.3904116415827767,-14.959867109634558
1.3914083524369578,4.040132890365442
1.3924050632911391,20.04013289036544
1.3934017741453204,58.04013289036544
1.3943984849995015,76.04013289036544
1.3953951958536828,33.04013289036544
1.3963919067078638,-4.959867109634558
1.3973886175620451,-53.95986710963456
1.3983853284162264,-129.95986710963456
1.3993820392704075,-122.95986710963456
1.4003787501245888,-86.95986710963456
1.4013754609787699,12.040132890365442
1.4023721718329512,66.04013289036544
1.4033688826871322,45.04013289036544
1.4043655935413135,43.04013289036544
1.4053623043954948,28.04013289036544
1.4063590152496759,32.04013289036544
1.4073557261038572,-17.95986710963456
1.4083524369580382,2.0401328903654417
1.4093491478122195,64.04013289036544
1.4103458586664008,30.04013289036544
1.411342569520582,10.040132890365442
1.4123392803747632,7.040132890365442
1.4133359912289443,-22.95986710963456
1.4143327020831256,-28.95986710963456
1.4153294129373069,-35.95986710963456
1.416326123791488,-23.95986710963456
1.4173228346456692,-7.959867109634558
1.4183195454998503,-28.95986710963456
1.4193162563540316,-20.95986710963456
1.4203129672082129,2.0401328903654417
1.421309678062394,-7.959867109634558
1.4223063889165752,-12.959867109634558
1.4233030997707563,18.04013289036544
1.4242998106249376,56.04013289036544
1.4252965214791187,48.04013289036544
1.4262932323333,25.04013289036544
1.4272899431874813,5.040132890365442
1.4282866540416623,-41.95986710963456
1.4292833648958436,-64.95986710963456
1.4302800757500247,-41.95986710963456
1.431276786604206,-7.959867109634558
1.4322734974583873,9.040132890365442
1.4332702083125684,14.040132890365442
1.4342669191667496,25.04013289036544
1.4352636300209307,30.04013289036544
1.436260340875112,30.04013289036544
1.4372570517292933,21.04013289036544
1.4382537625834744,5.040132890365442
1.4392504734376557,-15.959867109634558
1.4402471842918367,-7.959867109634558
1.441243895146018,-4.959867109634558
1.4422406060001993,9.040132890365442
1.4432373168543804,12.040132890365442
1.4442340277085617,10.040132890365442
1.4452307385627428,7.040132890365442
1.446227449416924,-15.959867109634558
1.4472241602711051,-20.95986710963456
1.4482208711252864,-39.95986710963456
1.4492175819794677,-39.95986710963456
1.4502142928336488,-21.95986710963456
1.45121100368783,0.040132890365441654
1.4522077145420111,13.040132890365442
1.4532044253961924,18.04013289036544
1.4542011362503737,13.040132890365442
1.4551978471045548,12.040132890365442
1.456194557958736,27.04013289036544
1.4571912688129172,43.04013289036544
1.4581879796670985,26.04013289036544
1.4591846905212797,20.04013289036544
1.4601814013754608,-7.959867109634558
1.4611781122296421,-26.95986710963456
1.4621748230838232,-27.95986710963456
1.4631715339380045,-17.95986710963456
1.4641682447921855,-30.95986710963456
1.4651649556463668,-21.95986710963456
1.4661616665005481,3.0401328903654417
1.4671583773547292,18.04013289036544
1.4681550882089105,21.04013289036544
1.4691517990630916,30.04013289036544
1.4701485099172729,-3.9598671096345583
1.4711452207714542,-26.95986710963456
1.4721419316256352,-10.959867109634558
1.4731386424798165,-1.9598671096345583
1.4741353533339976,12.040132890365442
1.4751320641881789,20.04013289036544
1.4761287750423602,9.040132890365442
1.4771254858965412,-1.9598671096345583
1.4781221967507225,-1.9598671096345583
1.4791189076049036,-7.959867109634558
1.480115618459085,-2.9598671096345583
1.4811123293132662,1.0401328903654417
1.4821090401674473,-2.9598671096345583
1.4831057510216286,2.0401328903654417
1.4841024618758096,4.040132890365442
1.485099172729991,2.0401328903654417
1.486095883584172,-1.9598671096345583
1.4870925944383533,-1.9598671096345583
1.4880893052925346,-19.95986710963456
1.4890860161467157,-9.959867109634558
1.490082727000897,7.040132890365442
1.491079437855078,8.040132890365442
1.4920761487092593,19.04013289036544
1.4930728595634406,9.040132890365442
1.4940695704176217,0.040132890365441654
1.495066281271803,-4.959867109634558
1.496062992125984,-6.959867109634558
1.4970597029801653,-9.959867109634558
1.4980564138343466,-18.95986710963456
1.4990531246885277,-16.95986710963456
1.500049835542709,7.040132890365442
1.50104654639689,1.0401328903654417
1.5020432572510714,-0.9598671096345583
1.5030399681052524,4.040132890365442
1.5040366789594337,21.04013289036544
1.505033389813615,29.04013289036544
1.506030100667796,16.04013289036544
1.5070268115219774,-2.9598671096345583
1.5080235223761584,-8.959867109634558
1.5090202332303397,-16.95986710963456
1.510016944084521,-17.95986710963456
1.511013654938702,-29.95986710963456
1.5120103657928834,-30.95986710963456
1.5130070766470645,-8.959867109634558
1.5140037875012458,11.040132890365442
1.515000498355427,24.04013289036544
1.5159972092096081,24.04013289036544
1.5169939200637894,20.04013289036544
1.5179906309179705,-2.9598671096345583
1.5189873417721518,-9.959867109634558
1.519984052626333,11.040132890365442
1.5209807634805141,6.040132890365442
1.5219774743346954,21.04013289036544
1.5229741851888765,21.04013289036544
1.5239708960430578,0.040132890365441654
1.5249676068972389,-20.95986710963456
1.5259643177514202,-36.95986710963456
1.5269610286056015,-46.95986710963456
1.5279577394597825,-24.95986710963456
1.5289544503139638,-7.959867109634558
1.529951161168145,10.040132890365442
1.5309478720223262,12.040132890365442
1.5319445828765075,14.040132890365442
1.5329412937306885,13.040132890365442
1.5339380045848698,10.040132890365442
1.534934715439051,1.0401328903654417
1.5359314262932322,0.040132890365441654
1.5369281371474135,9.040132890365442
1.5379248480015946,9.040132890365442
1.5389215588557759,12.040132890365442
1.539918269709957,18.04013289036544
1.5409149805641382,-6.959867109634558
1.5419116914183193,0.040132890365441654
1.5429084022725006,4.040132890365442
1.5439051131266819,2.0401328903654417
1.544901823980863,9.040132890365442
1.5458985348350442,-3.9598671096345583
1.5468952456892253,-21.95986710963456
1.5478919565434066,-26.95986710963456
1.548888667397588,-18.95986710963456
1.549885378251769,-8.959867109634558
1.5508820891059503,-8.959867109634558
1.5518787999601313,-2.9598671096345583
1.5528755108143126,4.040132890365442
1.553872221668494,17.04013289036544
1.554868932522675,21.04013289036544
1.5558656433768563,27.04013289036544
1.5568623542310374,26.04013289036544
1.5578590650852187,6.040132890365442
1.5588557759394,0.040132890365441654
1.559852486793581,-0.9598671096345583
1.5608491976477623,-2.9598671096345583
1.5618459085019434,-5.959867109634558
1.5628426193561247,-10.959867109634558
1.5638393302103057,-17.95986710963456
1.564836041064487,-5.959867109634558
1.5658327519186683,-2.9598671096345583
1.5668294627728494,-1.9598671096345583
1.5678261736270307,-9.959867109634558
1.5688228844812118,-6.959867109634558
1.569819595335393,-3.9598671096345583
1.5708163061895744,5.040132890365442
1.5718130170437554,13.040132890365442
1.5728097278979367,8.040132890365442
1.5738064387521178,-8.959867109634558
1.574803149606299,-3.9598671096345583
1.5757998604604804,1.0401328903654417
1.5767965713146614,-3.9598671096345583
1.5777932821688427,1.0401328903654417
1.5787899930230238,-0.9598671096345583
1.579786703877205,2.0401328903654417
1.5807834147313862,1.0401328903654417
1.5817801255855675,1.0401328903654417
1.5827768364397488,-5.959867109634558
1.5837735472939298,-3.9598671096345583
1.5847702581481111,-5.959867109634558
1.5857669690022922,-6.959867109634558
1.5867636798564735,-3.9598671096345583
1.5877603907106548,-4.959867109634558
1.5887571015648358,2.0401328903654417
1.5897538124190171,14.040132890365442
1.5907505232731982,20.04013289036544
1.5917472341273795,16.04013289036544
1.5927439449815608,0.040132890365441654
1.5937406558357419,-17.95986710963456
1.5947373666899232,-23.95986710963456
1.5957340775441042,-5.959867109634558
1.5967307883982855,4.040132890365442
1.5977274992524668,8.040132890365442
1.598724210106648,6.040132890365442
1.5997209209608292,8.040132890365442
1.6007176318150103,-4.959867109634558
1.6017143426691915,-15.959867109634558
1.6027110535233726,-1.9598671096345583
1.603707764377554,8.040132890365442
1.6047044752317352,10.040132890365442
1.6057011860859163,-4.959867109634558
1.6066978969400976,-13.959867109634558
1.6076946077942786,-13.959867109634558
1.60869131864846,-3.9598671096345583
1.6096880295026412,-4.959867109634558
1.6106847403568223,8.040132890365442
1.6116814512110036,20.04013289036544
1.6126781620651847,8.040132890365442
1.613674872919366,-4.959867109634558
1.6146715837735472,9.040132890365442
1.6156682946277283,8.040132890365442
1.6166650054819096,28.04013289036544
1.6176617163360907,21.04013289036544
1.618658427190272,2.0401328903654417
1.619655138044453,-11.959867109634558
1.6206518488986343,-20.95986710963456
1.6216485597528156,-14.959867109634558
1.6226452706069967,-19.95986710963456
1.623641981461178,-22.95986710963456
1.624638692315359,-17.95986710963456
1.6256354031695404,-8.959867109634558
1.6266321140237217,1.0401328903654417
1.6276288248779027,8.040132890365442
1.628625535732084,7.040132890365442
1.629622246586265,5.040132890365442
1.6306189574404464,2.0401328903654417
1.6316156682946277,4.040132890365442
1.6326123791488087,1.0401328903654417
1.63360909000299,4.040132890365442
1.634605800857171,4.040132890365442
1.6356025117113524,3.0401328903654417
1.6365992225655337,13.040132890365442
1.6375959334197148,23.04013289036544
1.638592644273896,17.04013289036544
1.6395893551280771,17.04013289036544
1.6405860659822584,8.040132890365442
1.6415827768364395,1.0401328903654417
1.6425794876906208,-6.959867109634558
1.643576198544802,-11.959867109634558
1.6445729093989832,-26.95986710963456
1.6455696202531644,-20.95986710963456
1.6465663311073455,-8.959867109634558
1.6475630419615268,-1.9598671096345583
1.648559752815708,-1.9598671096345583
1.6495564636698892,-0.9598671096345583
1.6505531745240705,1.0401328903654417
1.6515498853782515,4.040132890365442
1.6525465962324328,5.040132890365442
1.6535433070866141,-1.9598671096345583
1.6545400179407952,1.0401328903654417
1.6555367287949765,3.0401328903654417
1.6565334396491576,7.040132890365442
1.6575301505033389,6.040132890365442
1.6585268613575201,4.040132890365442
1.6595235722117012,-1.9598671096345583
1.6605202830658825,-2.9598671096345583
1.6615169939200636,-0.9598671096345583
1.6625137047742449,-2.9598671096345583
1.663510415628426,-3.9598671096345583
1.6645071264826072,5.040132890365442
1.6655038373367885,22.04013289036544
1.6665005481909696,31.04013289036544
1.667497259045151,22.04013289036544
1.668493969899332,-7.959867109634558
1.6694906807535133,-29.95986710963456
1.6704873916076945,-38.95986710963456
1.6714841024618756,-28.95986710963456
1.672480813316057,-10.959867109634558
1.673477524170238,-6.959867109634558
1.6744742350244193,1.0401328903654417
1.6754709458786006,13.040132890365442
1.6764676567327816,16.04013289036544
1.677464367586963,16.04013289036544
1.678461078441144,9.040132890365442
1.6794577892953253,10.040132890365442
1.6804545001495064,6.040132890365442
1.6814512110036877,5.040132890365442
1.682447921857869,1.0401328903654417
1.68344463271205,-2.9598671096345583
1.6844413435662313,-4.959867109634558
1.6854380544204124,-7.959867109634558
1.6864347652745937,-4.959867109634558
1.687431476128775,3.0401328903654417
1.688428186982956,0.040132890365441654
1.6894248978371373,7.040132890365442
1.6904216086913184,8.040132890365442
1.6914183195454997,8.040132890365442
1.692415030399681,4.040132890365442
1.693411741253862,-6.959867109634558
1.6944084521080434,-15.959867109634558
1.6954051629622244,-18.95986710963456
1.6964018738164057,-9.959867109634558
1.697398584670587,-0.9598671096345583
1.698395295524768,7.040132890365442
1.6993920063789494,17.04013289036544
1.7003887172331305,15.040132890365442
1.7013854280873117,8.040132890365442
1.7023821389414928,-1.9598671096345583
1.703378849795674,-10.959867109634558
1.7043755606498554,-17.95986710963456
1.7053722715040365,-17.95986710963456
1.7063689823582178,-12.959867109634558
1.7073656932123988,-15.959867109634558
1.7083624040665801,-8.959867109634558
1.7093591149207614,-2.9598671096345583
1.7103558257749425,7.040132890365442
1.7113525366291238,31.04013289036544
1.7123492474833049,34.04013289036544
1.7133459583374862,31.04013289036544
1.7143426691916674,34.04013289036544
1.7153393800458485,20.04013289036544
1.7163360909000298,-3.9598671096345583
1.7173328017542109,-22.95986710963456
1.7183295126083922,-22.95986710963456
1.7193262234625732,-18.95986710963456
1.7203229343167545,-8.959867109634558
1.7213196451709358,1.0401328903654417
1.722316356025117,5.040132890365442
1.7233130668792982,0.040132890365441654
1.7243097777334793,1.0401328903654417
1.7253064885876606,0.040132890365441654
1.7263031994418419,0.040132890365441654
1.727299910296023,-4.959867109634558
1.7282966211502042,-1.9598671096345583
1.7292933320043853,3.0401328903654417
1.7302900428585666,5.040132890365442
1.7312867537127479,11.040132890365442
1.732283464566929,9.040132890365442
1.7332801754211102,-7.959867109634558
1.7342768862752913,-19.95986710963456
1.7352735971294726,-14.959867109634558
1.736270307983654,-7.959867109634558
1.737267018837835,2.0401328903654417
1.7382637296920163,9.040132890365442
1.7392604405461973,4.040132890365442
1.7402571514003786,5.040132890365442
1.7412538622545597,8.040132890365442
1.742250573108741,-1.9598671096345583
1.7432472839629223,0.040132890365441654
1.7442439948171033,-1.9598671096345583
1.7452407056712846,-6.959867109634558
1.7462374165254657,-8.959867109634558
1.747234127379647,-11.959867109634558
1.7482308382338283,-8.959867109634558
1.7492275490880094,-7.959867109634558
1.7502242599421907,4.040132890365442
1.7512209707963717,29.04013289036544
1.752217681650553,34.04013289036544
1.7532143925047343,29.04013289036544
1.7542111033589154,7.040132890365442
1.7552078142130967,-4.959867109634558
1.7562045250672778,-23.95986710963456
1.757201235921459,-46.95986710963456
1.7581979467756401,-37.95986710963456
1.7591946576298214,-26.95986710963456
1.7601913684840027,-4.959867109634558
1.7611880793381838,11.040132890365442
1.762184790192365,14.040132890365442
1.7631815010465461,12.040132890365442
1.7641782119007274,10.040132890365442
1.7651749227549087,0.040132890365441654
1.7661716336090898,0.040132890365441654
1.767168344463271,-2.9598671096345583
1.7681650553174522,-2.9598671096345583
1.7691617661716335,1.0401328903654417
1.7701584770258147,3.0401328903654417
1.7711551878799958,3.0401328903654417
1.7721518987341771,4.040132890365442
1.7731486095883582,3.0401328903654417
1.7741453204425395,9.040132890365442
1.7751420312967208,10.040132890365442
1.7761387421509018,11.040132890365442
1.7771354530050831,10.040132890365442
1.7781321638592642,8.040132890365442
1.7791288747134455,5.040132890365442
1.7801255855676266,5.040132890365442
1.7811222964218079,-0.9598671096345583
1.7821190072759892,-5.959867109634558
1.7831157181301702,-5.959867109634558
1.7841124289843515,-2.9598671096345583
1.7851091398385326,-10.959867109634558
1.7861058506927139,-10.959867109634558
1.7871025615468952,-8.959867109634558
1.7880992724010762,-6.959867109634558
1.7890959832552575,-8.959867109634558
1.7900926941094386,-6.959867109634558
1.79108940496362,0.040132890365441654
1.7920861158178012,7.040132890365442
1.7930828266719823,0.040132890365441654
1.7940795375261636,11.040132890365442
1.7950762483803446,6.040132890365442
1.796072959234526,9.040132890365442
1.797069670088707,9.040132890365442
1.7980663809428883,3.0401328903654417
1.7990630917970696,3.0401328903654417
1.8000598026512507,10.040132890365442
1.801056513505432,6.040132890365442
1.802053224359613,2.0401328903654417
1.8030499352137943,-3.9598671096345583
1.8040466460679756,-5.959867109634558
1.8050433569221567,-7.959867109634558
1.806040067776338,-10.959867109634558
1.807036778630519,-11.959867109634558
1.8080334894847003,-5.959867109634558
1.8090302003388816,-8.959867109634558
1.8100269111930627,-7.959867109634558
1.811023622047244,0.040132890365441654
1.812020332901425,-0.9598671096345583
1.8130170437556064,4.040132890365442
1.8140137546097876,6.040132890365442
1.8150104654639687,9.040132890365442
1.81600717631815,11.040132890365442
1.817003887172331,8.040132890365442
1.8180005980265124,7.040132890365442
1.8189973088806934,10.040132890365442
1.8199940197348747,11.040132890365442
1.820990730589056,6.040132890365442
1.821987441443237,-2.9598671096345583
1.8229841522974184,-7.959867109634558
1.8239808631515995,-4.959867109634558
1.8249775740057808,-10.959867109634558
1.825974284859962,-10.959867109634558
1.8269709957141431,-1.9598671096345583
1.8279677065683244,-1.9598671096345583
1.8289644174225055,-3.9598671096345583
1.8299611282766868,7.040132890365442
1.830957839130868,10.040132890365442
1.8319545499850491,3.0401328903654417
1.8329512608392304,3.0401328903654417
1.8339479716934115,-2.9598671096345583
1.8349446825475928,-12.959867109634558
1.8359413934017739,-12.959867109634558
1.8369381042559552,-4.959867109634558
1.8379348151101365,5.040132890365442
1.8389315259643175,9.040132890365442
1.8399282368184988,12.040132890365442
1.84092494767268,12.040132890365442
1.8419216585268612,5.040132890365442
1.8429183693810425,4.040132890365442
1.8439150802352235,-3.9598671096345583
1.8449117910894048,-4.959867109634558
1.845908501943586,-6.959867109634558
1.8469052127977672,-6.959867109634558
1.8479019236519485,-6.959867109634558
1.8488986345061296,-2.9598671096345583
1.8498953453603109,-2.9598671096345583
1.850892056214492,-1.9598671096345583
1.8518887670686732,0.040132890365441654
1.8528854779228545,-3.9598671096345583
1.8538821887770356,0.040132890365441654
1.8548788996312169,2.0401328903654417
1.855875610485398,5.040132890365442
1.8568723213395792,-0.9598671096345583
1.8578690321937603,0.040132890365441654
1.8588657430479416,-6.959867109634558
1.859862453902123,-5.959867109634558
1.860859164756304,-8.959867109634558
1.8618558756104853,-13.959867109634558
1.8628525864646663,-8.959867109634558
1.8638492973188476,-12.959867109634558
1.864846008173029,-17.95986710963456
1.86584271902721,-12.959867109634558
1.8668394298813913,-10.959867109634558
1.8678361407355724,-7.959867109634558
1.8688328515897537,-1.9598671096345583
1.869829562443935,-6.959867109634558
1.870826273298116,3.0401328903654417
1.8718229841522973,5.040132890365442
1.8728196950064784,8.040132890365442
1.8738164058606597,11.040132890365442
1.8748131167148407,14.040132890365442
1.875809827569022,18.04013289036544
1.8768065384232033,16.04013289036544
1.8778032492773844,12.040132890365442
1.8787999601315657,14.040132890365442
1.8797966709857468,11.040132890365442
1.880793381839928,8.040132890365442
1.8817900926941094,0.040132890365441654
1.8827868035482904,1.0401328903654417
1.8837835144024717,-6.959867109634558
1.8847802252566528,-9.959867109634558
1.885776936110834,-9.959867109634558
1.8867736469650154,-5.959867109634558
1.8877703578191964,-5.959867109634558
1.8887670686733777,-2.9598671096345583
1.8897637795275588,-2.9598671096345583
1.89076049038174,1.0401328903654417
1.8917572012359214,3.0401328903654417
1.8927539120901025,6.040132890365442
1.8937506229442838,11.040132890365442
1.8947473337984648,8.040132890365442
1.8957440446526461,10.040132890365442
1.8967407555068272,12.040132890365442
1.8977374663610085,7.040132890365442
1.8987341772151898,8.040132890365442
1.8997308880693708,10.040132890365442
1.9007275989235521,4.040132890365442
1.9017243097777332,2.0401328903654417
1.9027210206319145,-5.959867109634558
1.9037177314860958,-8.959867109634558
1.9047144423402769,-10.959867109634558
1.9057111531944582,-10.959867109634558
1.9067078640486392,-11.959867109634558
1.9077045749028205,-8.959867109634558
1.9087012857570018,-9.959867109634558
1.909697996611183,-7.959867109634558
1.9106947074653642,-4.959867109634558
1.9116914183195453,-2.9598671096345583
1.9126881291737265,1.0401328903654417
1.9136848400279076,8.040132890365442
1.914681550882089,4.040132890365442
1.9156782617362702,4.040132890365442
1.9166749725904513,8.040132890365442
1.9176716834446326,3.0401328903654417
1.9186683942988136,5.040132890365442
1.919665105152995,5.040132890365442
1.9206618160071762,4.040132890365442
1.9216585268613573,-0.9598671096345583
1.9226552377155386,-5.959867109634558
1.9236519485697197,-7.959867109634558
1.924648659423901,-11.959867109634558
1.9256453702780822,-9.959867109634558
1.9266420811322633,-7.959867109634558
1.9276387919864446,-10.959867109634558
1.9286355028406257,-6.959867109634558
1.929632213694807,-3.9598671096345583
1.9306289245489883,-1.9598671096345583
1.9316256354031693,1.0401328903654417
1.9326223462573506,6.040132890365442
1.9336190571115317,9.040132890365442
1.934615767965713,8.040132890365442
1.935612478819894,8.040132890365442
1.9366091896740754,12.040132890365442
1.9376059005282567,6.040132890365442
1.9386026113824377,10.040132890365442
1.939599322236619,5.040132890365442
1.9405960330908,1.0401328903654417
1.9415927439449814,1.0401328903654417
1.9425894547991627,-6.959867109634558
1.9435861656533437,-8.959867109634558
1.944582876507525,-14.959867109634558
1.945579587361706,-12.959867109634558
1.9465762982158874,-10.959867109634558
1.9475730090700687,-10.959867109634558
1.9485697199242498,-7.959867109634558
1.949566430778431,-5.959867109634558
1.9505631416326121,-0.9598671096345583
1.9515598524867934,5.040132890365442
1.9525565633409747,-0.9598671096345583
1.9535532741951558,6.040132890365442
1.954549985049337,9.040132890365442
1.9555466959035182,11.040132890365442
1.9565434067576994,9.040132890365442
1.9575401176118805,6.040132890365442
1.9585368284660618,3.0401328903654417
1.959533539320243,6.040132890365442
1.9605302501744242,2.0401328903654417
1.9615269610286055,-1.9598671096345583
1.9625236718827865,-2.9598671096345583
1.9635203827369678,-11.959867109634558
1.9645170935911491,-13.959867109634558
1.9655138044453302,-7.959867109634558
1.9665105152995115,-12.959867109634558
1.9675072261536926,-5.959867109634558
1.9685039370078738,0.040132890365441654
1.9695006478620551,0.040132890365441654
1.9704973587162362,2.0401328903654417
1.9714940695704175,5.040132890365442
1.9724907804245986,6.040132890365442
1.9734874912787799,8.040132890365442
1.974484202132961,11.040132890365442
1.9754809129871422,12.040132890365442
1.9764776238413235,10.040132890365442
1.9774743346955046,5.040132890365442
1.978471045549686,5.040132890365442
1.979467756403867,8.040132890365442
1.9804644672580483,6.040132890365442
1.9814611781122295,0.040132890365441654
1.9824578889664106,-4.959867109634558
1.983454599820592,-9.959867109634558
1.984451310674773,-12.959867109634558
1.9854480215289543,-9.959867109634558
1.9864447323831356,-11.959867109634558
1.9874414432373166,-6.959867109634558
1.988438154091498,-2.9598671096345583
1.989434864945679,-5.959867109634558
1.9904315757998603,-3.9598671096345583
1.9914282866540416,2.0401328903654417
1.9924249975082227,1.0401328903654417
1.993421708362404,9.040132890365442
1.994418419216585,9.040132890365442
1.9954151300707663,12.040132890365442
1.9964118409249474,9.040132890365442
1.9974085517791287,4.040132890365442
1.99840526263331,11.040132890365442
1.999401973487491,7.040132890365442
2.0003986843416723,3.0401328903654417
2.0013953951958534,1.0401328903654417
2.0023921060500345,-7.959867109634558
2.003388816904216,-10.959867109634558
2.004385527758397,-10.959867109634558
2.005382238612578,-10.959867109634558
2.0063789494667597,-8.959867109634558
2.0073756603209407,-6.959867109634558
2.008372371175122,-3.9598671096345583
2.0093690820293033,-4.959867109634558
2.0103657928834844,0.040132890365441654
2.0113625037376655,2.0401328903654417
2.0123592145918465,1.0401328903654417
2.013355925446028,7.040132890365442
2.014352636300209,8.040132890365442
2.01534934715439,10.040132890365442
2.0163460580085717,10.040132890365442
2.0173427688627528,5.040132890365442
2.018339479716934,7.040132890365442
2.0193361905711154,10.040132890365442
2.0203329014252964,4.040132890365442
2.0213296122794775,2.0401328903654417
2.0223263231336586,-4.959867109634558
2.02332303398784,-6.959867109634558
2.024319744842021,-13.959867109634558
2.0253164556962022,-9.959867109634558
2.0263131665503837,-1.9598671096345583
2.027309877404565,-8.959867109634558
2.028306588258746,-6.959867109634558
2.029303299112927,-6.959867109634558
2.0303000099671085,3.0401328903654417
2.0312967208212895,-0.9598671096345583
2.0322934316754706,8.040132890365442
2.033290142529652,15.040132890365442
2.034286853383833,12.040132890365442
2.0352835642380143,17.04013289036544
2.036280275092196,17.04013289036544
2.037276985946377,12.040132890365442
2.038273696800558,11.040132890365442
2.039270407654739,11.040132890365442
2.0402671185089205,1.0401328903654417
2.0412638293631016,-0.9598671096345583
2.0422605402172826,-7.959867109634558
2.043257251071464,-11.959867109634558
2.0442539619256452,-13.959867109634558
2.0452506727798263,-14.959867109634558
2.0462473836340074,-10.959867109634558
2.047244094488189,-8.959867109634558
2.04824080534237,-9.959867109634558
2.049237516196551,-5.959867109634558
2.0502342270507325,-1.9598671096345583
2.0512309379049136,-0.9598671096345583
2.0522276487590947,-0.9598671096345583
2.053224359613276,6.040132890365442
2.0542210704674573,8.040132890365442
2.0552177813216383,9.040132890365442
2.0562144921758194,5.040132890365442
2.057211203030001,6.040132890365442
2.058207913884182,4.040132890365442
2.059204624738363,3.0401328903654417
2.0602013355925446,4.040132890365442
2.0611980464467257,-2.9598671096345583
2.0621947573009067,1.0401328903654417
2.063191468155088,-4.959867109634558
2.0641881790092693,-2.9598671096345583
2.0651848898634504,-3.9598671096345583
2.0661816007176315,-7.959867109634558
2.067178311571813,-1.9598671096345583
2.068175022425994,1.0401328903654417
2.069171733280175,-3.9598671096345583
2.0701684441343566,3.0401328903654417
2.0711651549885377,1.0401328903654417
2.0721618658427188,-1.9598671096345583
2.0731585766969,2.0401328903654417
2.0741552875510814,6.040132890365442
2.0751519984052624,6.040132890365442
2.0761487092594435,5.040132890365442
2.077145420113625,1.0401328903654417
2.078142130967806,2.0401328903654417
2.079138841821987,1.0401328903654417
2.0801355526761687,-1.9598671096345583
2.0811322635303497,-3.9598671096345583
2.082128974384531,-2.9598671096345583
2.083125685238712,-10.959867109634558
2.0841223960928934,-12.959867109634558
2.0851191069470745,-9.959867109634558
2.0861158178012555,-11.959867109634558
2.087112528655437,-4.959867109634558
2.088109239509618,0.040132890365441654
2.089105950363799,-0.9598671096345583
2.0901026612179803,5.040132890365442
2.091099372072162,11.040132890365442
2.092096082926343,6.040132890365442
2.093092793780524,13.040132890365442
2.0940895046347054,12.040132890365442
2.0950862154888865,13.040132890365442
2.0960829263430676,12.040132890365442
2.097079637197249,7.040132890365442
2.09807634805143,7.040132890365442
2.0990730589056112,2.0401328903654417
2.1000697697597923,1.0401328903654417
2.101066480613974,-2.9598671096345583
2.102063191468155,-10.959867109634558
2.103059902322336,-10.959867109634558
2.1040566131765175,-11.959867109634558
2.1050533240306986,-14.959867109634558
2.1060500348848796,-14.959867109634558
2.1070467457390607,-6.959867109634558
2.108043456593242,-8.959867109634558
2.1090401674474233,-4.959867109634558
2.1100368783016044,1.0401328903654417
2.111033589155786,6.040132890365442
2.112030300009967,1.0401328903654417
2.113027010864148,10.040132890365442
2.1140237217183295,7.040132890365442
2.1150204325725106,11.040132890365442
2.1160171434266917,7.040132890365442
2.1170138542808727,2.0401328903654417
2.1180105651350543,5.040132890365442
2.1190072759892353,5.040132890365442
2.1200039868434164,0.040132890365441654
2.121000697697598,-1.9598671096345583
2.121997408551779,-4.959867109634558
2.12299411940596,-8.959867109634558
2.123990830260141,-10.959867109634558
2.1249875411143226,-9.959867109634558
2.1259842519685037,-8.959867109634558
2.126980962822685,-5.959867109634558
2.1279776736768663,-3.9598671096345583
2.1289743845310474,-1.9598671096345583
2.1299710953852284,1.0401328903654417
2.13096780623941,1.0401328903654417
2.131964517093591,3.0401328903654417
2.132961227947772,3.0401328903654417
2.133957938801953,7.040132890365442
2.1349546496561347,6.040132890365442
2.1359513605103158,7.040132890365442
2.136948071364497,5.040132890365442
2.1379447822186783,12.040132890365442
2.1389414930728594,8.040132890365442
2.1399382039270405,4.040132890365442
2.1409349147812216,3.0401328903654417
2.141931625635403,-1.9598671096345583
2.142928336489584,-11.959867109634558
2.143925047343765,-12.959867109634558
2.1449217581979467,-14.959867109634558
2.145918469052128,-8.959867109634558
2.146915179906309,-7.959867109634558
2.1479118907604904,-4.959867109634558
2.1489086016146715,-0.9598671096345583
2.1499053124688525,0.040132890365441654
2.1509020233230336,3.0401328903654417
2.151898734177215,4.040132890365442
2.152895445031396,6.040132890365442
2.1538921558855773,8.040132890365442
2.1548888667397588,9.040132890365442
2.15588557759394,8.040132890365442
2.156882288448121,6.040132890365442
2.1578789993023024,3.0401328903654417
2.1588757101564835,2.0401328903654417
2.1598724210106646,5.040132890365442
2.1608691318648456,-2.9598671096345583
2.161865842719027,-6.959867109634558
2.1628625535732082,-8.959867109634558
2.1638592644273893,-14.959867109634558
2.164855975281571,-11.959867109634558
2.165852686135752,-12.959867109634558
2.166849396989933,-6.959867109634558
2.167846107844114,-1.9598671096345583
2.1688428186982955,-5.959867109634558
2.1698395295524766,0.040132890365441654
2.1708362404066577,1.0401328903654417
2.171832951260839,3.0401328903654417
2.1728296621150203,5.040132890365442
2.1738263729692013,9.040132890365442
2.174823083823383,11.040132890365442
2.175819794677564,10.040132890365442
2.176816505531745,5.040132890365442
2.177813216385926,8.040132890365442
2.1788099272401076,7.040132890365442
2.1798066380942887,3.0401328903654417
2.1808033489484697,-1.9598671096345583
2.1818000598026512,-3.9598671096345583
2.1827967706568323,-13.959867109634558
2.1837934815110134,-12.959867109634558
2.1847901923651945,-11.959867109634558
2.185786903219376,-3.9598671096345583
2.186783614073557,-7.959867109634558
2.187780324927738,0.040132890365441654
2.1887770357819196,-3.9598671096345583
2.1897737466361007,1.0401328903654417
2.1907704574902818,3.0401328903654417
2.1917671683444633,0.040132890365441654
2.1927638791986444,7.040132890365442
2.1937605900528254,9.040132890365442
2.1947573009070065,9.040132890365442
2.195754011761188,9.040132890365442
2.196750722615369,5.040132890365442
2.19774743346955,7.040132890365442
2.1987441443237317,6.040132890365442
2.1997408551779127,1.0401328903654417
2.200737566032094,-2.9598671096345583
2.201734276886275,-7.959867109634558
2.2027309877404564,-5.959867109634558
2.2037276985946375,-11.959867109634558
2.2047244094488185,-8.959867109634558
2.205721120303,-9.959867109634558
2.206717831157181,-1.9598671096345583
2.207714542011362,-2.9598671096345583
2.2087112528655437,-2.9598671096345583
2.2097079637197248,1.0401328903654417
2.210704674573906,1.0401328903654417
2.211701385428087,5.040132890365442
2.2126980962822684,12.040132890365442
2.2136948071364495,11.040132890365442
2.2146915179906306,12.040132890365442
2.215688228844812,9.040132890365442
2.216684939698993,6.040132890365442
2.2176816505531742,9.040132890365442
2.2186783614073553,6.040132890365442
2.219675072261537,1.0401328903654417
2.220671783115718,-2.9598671096345583
2.221668493969899,-9.959867109634558
2.2226652048240805,-10.959867109634558
2.2236619156782615,-11.959867109634558
2.2246586265324426,-11.959867109634558
2.225655337386624,-9.959867109634558
2.226652048240805,-7.959867109634558
2.2276487590949863,-3.9598671096345583
2.2286454699491673,-1.9598671096345583
2.229642180803349,-0.9598671096345583
2.23063889165753,1.0401328903654417
2.231635602511711,2.0401328903654417
2.2326323133658925,3.0401328903654417
2.2336290242200736,8.040132890365442
2.2346257350742547,13.040132890365442
2.235622445928436,11.040132890365442
2.2366191567826172,11.040132890365442
2.2376158676367983,10.040132890365442
2.2386125784909794,6.040132890365442
2.239609289345161,5.040132890365442
2.240606000199342,-3.9598671096345583
2.241602711053523,-1.9598671096345583
2.2425994219077046,-3.9598671096345583
2.2435961327618856,-13.959867109634558
2.2445928436160667,-9.959867109634558
2.2455895544702478,-9.959867109634558
2.2465862653244293,-2.9598671096345583
2.2475829761786104,-2.9598671096345583
2.2485796870327914,-2.9598671096345583
2.249576397886973,1.0401328903654417
2.250573108741154,1.0401328903654417
2.251569819595335,0.040132890365441654
2.2525665304495166,6.040132890365442
2.2535632413036977,7.040132890365442
2.2545599521578787,8.040132890365442
2.25555666301206,6.040132890365442
2.2565533738662413,4.040132890365442
2.2575500847204224,4.040132890365442
2.2585467955746035,5.040132890365442
2.259543506428785,4.040132890365442
2.260540217282966,3.0401328903654417
2.261536928137147,-4.959867109634558
2.262533638991328,-0.9598671096345583
2.2635303498455097,-8.959867109634558
2.264527060699691,-8.959867109634558
2.265523771553872,-9.959867109634558
2.2665204824080534,-8.959867109634558
2.2675171932622344,-8.959867109634558
2.2685139041164155,-7.959867109634558
2.269510614970597,-0.9598671096345583
2.270507325824778,1.0401328903654417
2.271504036678959,1.0401328903654417
2.2725007475331402,5.040132890365442
2.2734974583873218,8.040132890365442
2.274494169241503,9.040132890365442
2.275490880095684,8.040132890365442
2.2764875909498654,3.0401328903654417
2.2774843018040465,4.040132890365442
2.2784810126582276,8.040132890365442
2.2794777235124086,3.0401328903654417
2.28047443436659,-4.959867109634558
2.281471145220771,-2.9598671096345583
2.2824678560749523,-9.959867109634558
2.283464566929134,-7.959867109634558
2.284461277783315,-4.959867109634558
2.285457988637496,-4.959867109634558
2.2864546994916775,-1.9598671096345583
2.2874514103458585,-5.959867109634558
2.2884481212000396,-3.9598671096345583
2.2894448320542207,6.040132890365442
2.290441542908402,9.040132890365442
2.2914382537625833,1.0401328903654417
2.2924349646167643,11.040132890365442
2.293431675470946,6.040132890365442
2.294428386325127,6.040132890365442
2.295425097179308,5.040132890365442
2.2964218080334895,4.040132890365442
2.2974185188876706,5.040132890365442
2.2984152297418516,2.0401328903654417
2.2994119405960327,3.0401328903654417
2.3004086514502142,-0.9598671096345583
2.3014053623043953,-3.9598671096345583
2.3024020731585764,-6.959867109634558
2.303398784012758,-7.959867109634558
2.304395494866939,-7.959867109634558
2.30539220572112,-6.959867109634558
2.306388916575301,-6.959867109634558
2.3073856274294826,-5.959867109634558
2.3083823382836637,-3.9598671096345583
2.3093790491378448,-1.9598671096345583
2.3103757599920263,-0.9598671096345583
2.3113724708462073,3.0401328903654417
2.3123691817003884,8.040132890365442
2.31336589255457,7.040132890365442
2.314362603408751,8.040132890365442
2.315359314262932,7.040132890365442
2.316356025117113,2.0401328903654417
2.3173527359712947,5.040132890365442
2.3183494468254757,5.040132890365442
2.319346157679657,-0.9598671096345583
2.3203428685338383,-2.9598671096345583
2.3213395793880194,-7.959867109634558
2.3223362902422005,-11.959867109634558
2.3233330010963815,-9.959867109634558
2.324329711950563,-10.959867109634558
2.325326422804744,-7.959867109634558
2.326323133658925,-5.959867109634558
2.3273198445131067,-1.9598671096345583
2.3283165553672878,2.0401328903654417
2.329313266221469,3.0401328903654417
2.3303099770756504,3.0401328903654417
2.3313066879298314,4.040132890365442
2.3323033987840125,8.040132890365442
2.3333001096381936,8.040132890365442
2.334296820492375,9.040132890365442
2.335293531346556,6.040132890365442
2.336290242200737,7.040132890365442
2.3372869530549187,3.0401328903654417
2.3382836639091,1.0401328903654417
2.339280374763281,0.040132890365441654
2.340277085617462,-7.959867109634558
2.3412737964716435,-5.959867109634558
2.3422705073258245,-10.959867109634558
2.3432672181800056,-11.959867109634558
2.344263929034187,-10.959867109634558
2.345260639888368,-8.959867109634558
2.3462573507425493,-7.959867109634558
2.347254061596731,-3.9598671096345583
2.348250772450912,-0.9598671096345583
2.349247483305093,2.0401328903654417
2.350244194159274,2.0401328903654417
2.3512409050134555,1.0401328903654417
2.3522376158676366,9.040132890365442
2.3532343267218176,9.040132890365442
2.354231037575999,10.040132890365442
2.3552277484301802,6.040132890365442
2.3562244592843613,6.040132890365442
2.3572211701385424,4.040132890365442
2.358217880992724,4.040132890365442
2.359214591846905,4.040132890365442
2.360211302701086,-5.959867109634558
2.3612080135552675,-6.959867109634558
2.3622047244094486,-4.959867109634558
2.3632014352636297,-11.959867109634558
2.364198146117811,-10.959867109634558
2.3651948569719923,-8.959867109634558
2.3661915678261733,-7.959867109634558
2.3671882786803544,-4.959867109634558
2.368184989534536,-1.9598671096345583
2.369181700388717,3.0401328903654417
2.370178411242898,6.040132890365442
2.3711751220970796,1.0401328903654417
2.3721718329512607,8.040132890365442
2.3731685438054417,7.040132890365442
2.3741652546596232,9.040132890365442
2.3751619655138043,7.040132890365442
2.3761586763679854,5.040132890365442
2.3771553872221665,5.040132890365442
2.378152098076348,4.040132890365442
2.379148808930529,0.040132890365441654
2.38014551978471,-2.9598671096345583
2.3811422306388916,-2.9598671096345583
2.3821389414930727,-9.959867109634558
2.3831356523472538,-10.959867109634558
2.384132363201435,-11.959867109634558
2.3851290740556164,-7.959867109634558
2.3861257849097974,-3.9598671096345583
2.3871224957639785,-2.9598671096345583
2.38811920661816,-3.9598671096345583
2.389115917472341,1.0401328903654417
2.390112628326522,1.0401328903654417
2.3911093391807037,6.040132890365442
2.3921060500348847,14.040132890365442
2.393102760889066,11.040132890365442
2.394099471743247,10.040132890365442
2.3950961825974284,8.040132890365442
2.3960928934516095,3.0401328903654417
2.3970896043057905,5.040132890365442
2.398086315159972,3.0401328903654417
2.399083026014153,1.0401328903654417
2.400079736868334,-1.9598671096345583
2.4010764477225153,-10.959867109634558
2.402073158576697,-7.959867109634558
2.403069869430878,-11.959867109634558
2.404066580285059,-10.959867109634558
2.4050632911392404,-12.959867109634558
2.4060600019934215,-4.959867109634558
2.4070567128476026,-7.959867109634558
2.408053423701784,-1.9598671096345583
2.409050134555965,2.0401328903654417
2.4100468454101462,3.0401328903654417
2.4110435562643273,2.0401328903654417
2.412040267118509,8.040132890365442
2.41303697797269,8.040132890365442
2.414033688826871,9.040132890365442
2.4150303996810525,2.0401328903654417
2.4160271105352336,5.040132890365442
2.4170238213894146,7.040132890365442
2.4180205322435957,5.040132890365442
2.419017243097777,1.0401328903654417
2.4200139539519583,1.0401328903654417
2.4210106648061394,-5.959867109634558
2.422007375660321,-6.959867109634558
2.423004086514502,-10.959867109634558
2.424000797368683,-11.959867109634558
2.4249975082228645,-6.959867109634558
2.4259942190770456,-5.959867109634558
2.4269909299312267,-3.9598671096345583
2.4279876407854077,0.040132890365441654
2.4289843516395893,2.0401328903654417
2.4299810624937703,1.0401328903654417
2.4309777733479514,4.040132890365442
2.431974484202133,6.040132890365442
2.432971195056314,6.040132890365442
2.433967905910495,8.040132890365442
2.434964616764676,6.040132890365442
2.4359613276188576,5.040132890365442
2.4369580384730387,7.040132890365442
2.43795474932722,2.0401328903654417
2.4389514601814013,1.0401328903654417
2.4399481710355824,-0.9598671096345583
2.4409448818897634,-3.9598671096345583
2.441941592743945,-4.959867109634558
2.442938303598126,-10.959867109634558
2.443935014452307,-6.959867109634558
2.444931725306488,-9.959867109634558
2.4459284361606697,-5.959867109634558
2.4469251470148508,-3.9598671096345583
2.447921857869032,-0.9598671096345583
2.4489185687232133,2.0401328903654417
2.4499152795773944,4.040132890365442
2.4509119904315755,4.040132890365442
2.451908701285757,10.040132890365442
2.452905412139938,11.040132890365442
2.453902122994119,10.040132890365442
2.4548988338483,8.040132890365442
2.4558955447024817,6.040132890365442
2.456892255556663,5.040132890365442
2.457888966410844,-0.9598671096345583
2.4588856772650254,0.040132890365441654
2.4598823881192065,-2.9598671096345583
2.4608790989733875,-4.959867109634558
2.4618758098275686,-9.959867109634558
2.46287252068175,-11.959867109634558
2.463869231535931,-11.959867109634558
2.4648659423901123,-11.959867109634558
2.4658626532442938,-4.959867109634558
2.466859364098475,-2.9598671096345583
2.467856074952656,-0.9598671096345583
2.4688527858068374,1.0401328903654417
2.4698494966610185,5.040132890365442
2.4708462075151996,4.040132890365442
2.4718429183693806,7.040132890365442
2.472839629223562,8.040132890365442
2.4738363400777432,8.040132890365442
2.4748330509319243,8.040132890365442
2.475829761786106,3.0401328903654417
2.476826472640287,6.040132890365442
2.477823183494468,5.040132890365442
2.478819894348649,0.040132890365441654
2.4798166052028305,-2.9598671096345583
2.4808133160570116,-3.9598671096345583
2.4818100269111927,-10.959867109634558
2.482806737765374,-11.959867109634558
2.4838034486195553,-8.959867109634558
2.4848001594737363,-8.959867109634558
2.485796870327918,-5.959867109634558
2.486793581182099,-0.9598671096345583
2.48779029203628,-1.9598671096345583
2.488787002890461,1.0401328903654417
2.4897837137446426,5.040132890365442
2.4907804245988237,3.0401328903654417
2.4917771354530047,6.040132890365442
2.4927738463071862,8.040132890365442
2.4937705571613673,10.040132890365442
2.4947672680155484,7.040132890365442
2.4957639788697294,5.040132890365442
2.496760689723911,3.0401328903654417
2.497757400578092,2.0401328903654417
2.498754111432273,-1.9598671096345583
2.4997508222864546,-1.9598671096345583
2.5007475331406357,-5.959867109634558
2.5017442439948168,-10.959867109634558
2.5027409548489983,-11.959867109634558
2.5037376657031793,-9.959867109634558
2.5047343765573604,-7.959867109634558
2.5057310874115415,-5.959867109634558
2.506727798265723,-3.9598671096345583
2.507724509119904,0.040132890365441654
2.508721219974085,3.0401328903654417
2.5097179308282667,2.0401328903654417
2.5107146416824477,3.0401328903654417
2.511711352536629,11.040132890365442
2.51270806339081,7.040132890365442
2.5137047742449914,7.040132890365442
2.5147014850991725,8.040132890365442
2.5156981959533535,6.040132890365442
2.516694906807535,6.040132890365442
2.517691617661716,3.0401328903654417
2.518688328515897,1.0401328903654417
2.5196850393700787,-2.9598671096345583
2.5206817502242598,-6.959867109634558
2.521678461078441,-7.959867109634558
2.522675171932622,-9.959867109634558
2.5236718827868034,-9.959867109634558
2.5246685936409845,-8.959867109634558
2.5256653044951656,-6.959867109634558
2.526662015349347,-2.9598671096345583
2.527658726203528,1.0401328903654417
2.5286554370577092,1.0401328903654417
2.5296521479118907,3.0401328903654417
2.530648858766072,6.040132890365442
2.531645569620253,6.040132890365442
2.532642280474434,6.040132890365442
2.5336389913286155,9.040132890365442
2.5346357021827965,6.040132890365442
2.5356324130369776,4.040132890365442
2.536629123891159,3.0401328903654417
2.53762583474534,2.0401328903654417
2.5386225455995213,-1.9598671096345583
2.5396192564537023,-4.959867109634558
2.540615967307884,-7.959867109634558
2.541612678162065,-9.959867109634558
2.542609389016246,-9.959867109634558
2.5436060998704275,-8.959867109634558
2.5446028107246086,-5.959867109634558
2.5455995215787897,-3.9598671096345583
2.546596232432971,1.0401328903654417
2.5475929432871522,3.0401328903654417
2.5485896541413333,2.0401328903654417
2.5495863649955144,1.0401328903654417
2.550583075849696,1.0401328903654417
2.551579786703877,8.040132890365442
2.552576497558058,10.040132890365442
2.5535732084122396,10.040132890365442
2.5545699192664206,6.040132890365442
2.5555666301206017,4.040132890365442
2.5565633409747828,3.0401328903654417
2.5575600518289643,2.0401328903654417
2.5585567626831454,-1.9598671096345583
2.5595534735373264,-2.9598671096345583
2.560550184391508,-5.959867109634558
2.561546895245689,-6.959867109634558
2.56254360609987,-10.959867109634558
2.5635403169540516,-9.959867109634558
2.5645370278082327,-6.959867109634558
2.5655337386624137,-7.959867109634558
2.566530449516595,-5.959867109634558
2.5675271603707763,0.040132890365441654
2.5685238712249574,2.0401328903654417
2.5695205820791385,3.0401328903654417
2.57051729293332,2.0401328903654417
2.571514003787501,9.040132890365442
2.572510714641682,9.040132890365442
2.573507425495863,9.040132890365442
2.5745041363500447,8.040132890365442
2.575500847204226,3.0401328903654417
2.576497558058407,7.040132890365442
2.5774942689125884,3.0401328903654417
2.5784909797667694,1.0401328903654417
2.5794876906209505,-2.9598671096345583
2.580484401475132,-3.9598671096345583
2.581481112329313,-9.959867109634558
2.582477823183494,-10.959867109634558
2.5834745340376752,-9.959867109634558
2.5844712448918568,-7.959867109634558
2.585467955746038,-3.9598671096345583
2.586464666600219,1.0401328903654417
2.5874613774544004,-3.9598671096345583
2.5884580883085815,0.040132890365441654
2.5894547991627626,4.040132890365442
2.590451510016944,4.040132890365442
2.591448220871125,7.040132890365442
2.592444931725306,8.040132890365442
2.5934416425794873,9.040132890365442
2.594438353433669,8.040132890365442
2.59543506428785,5.040132890365442
2.596431775142031,4.040132890365442
2.5974284859962125,3.0401328903654417
2.5984251968503935,0.040132890365441654
2.5994219077045746,-2.9598671096345583
2.6004186185587557,-7.959867109634558
2.601415329412937,-7.959867109634558
2.6024120402671183,-9.959867109634558
2.6034087511212993,-9.959867109634558
2.604405461975481,-10.959867109634558
2.605402172829662,-2.9598671096345583
2.606398883683843,-5.959867109634558
2.6073955945380245,-3.9598671096345583
2.6083923053922056,3.0401328903654417
2.6093890162463866,3.0401328903654417
2.6103857271005677,5.040132890365442
2.6113824379547492,5.040132890365442
2.6123791488089303,8.040132890365442
2.6133758596631114,13.040132890365442
2.614372570517293,5.040132890365442
2.615369281371474,6.040132890365442
2.616365992225655,8.040132890365442
2.617362703079836,3.0401328903654417
2.6183594139340176,1.0401328903654417
2.6193561247881987,0.040132890365441654
2.6203528356423798,-7.959867109634558
2.6213495464965613,-8.959867109634558
2.6223462573507423,-10.959867109634558
2.6233429682049234,-8.959867109634558
2.624339679059105,-7.959867109634558
2.625336389913286,-7.959867109634558
2.626333100767467,-1.9598671096345583
2.627329811621648,0.040132890365441654
2.6283265224758297,2.0401328903654417
2.6293232333300107,2.0401328903654417
2.630319944184192,6.040132890365442
2.6313166550383733,8.040132890365442
2.6323133658925544,9.040132890365442
2.6333100767467355,10.040132890365442
2.6343067876009165,5.040132890365442
2.635303498455098,5.040132890365442
2.636300209309279,4.040132890365442
2.63729692016346,2.0401328903654417
2.6382936310176417,1.0401328903654417
2.6392903418718228,-1.9598671096345583
2.640287052726004,-6.959867109634558
2.6412837635801854,-7.959867109634558
2.6422804744343664,-7.959867109634558
2.6432771852885475,-7.959867109634558
2.6442738961427286,-7.959867109634558
2.64527060699691,-9.959867109634558
2.646267317851091,-4.959867109634558
2.647264028705272,0.040132890365441654
2.6482607395594537,4.040132890365442
2.649257450413635,3.0401328903654417
2.650254161267816,4.040132890365442
2.651250872121997,7.040132890365442
2.6522475829761785,9.040132890365442
2.6532442938303595,11.040132890365442
2.6542410046845406,6.040132890365442
2.655237715538722,2.0401328903654417
2.656234426392903,8.040132890365442
2.6572311372470843,4.040132890365442
2.6582278481012658,2.0401328903654417
2.659224558955447,0.040132890365441654
2.660221269809628,-8.959867109634558
2.661217980663809,-10.959867109634558
2.6622146915179905,-12.959867109634558
2.6632114023721716,-7.959867109634558
2.6642081132263526,-1.9598671096345583
2.665204824080534,-7.959867109634558
2.6662015349347152,-0.9598671096345583
2.6671982457888963,-4.959867109634558
2.668194956643078,3.0401328903654417
2.669191667497259,4.040132890365442
2.67018837835144,3.0401328903654417
2.671185089205621,7.040132890365442
2.6721818000598025,10.040132890365442
2.6731785109139836,9.040132890365442
2.6741752217681647,8.040132890365442
2.675171932622346,3.0401328903654417
2.6761686434765273,8.040132890365442
2.6771653543307083,4.040132890365442
2.6781620651848894,0.040132890365441654
2.679158776039071,-5.959867109634558
2.680155486893252,-4.959867109634558
2.681152197747433,-10.959867109634558
2.6821489086016146,-11.959867109634558
2.6831456194557957,-10.959867109634558
2.6841423303099767,-5.959867109634558
2.6851390411641582,-4.959867109634558
2.6861357520183393,2.0401328903654417
2.6871324628725204,-1.9598671096345583
2.6881291737267015,2.0401328903654417
2.689125884580883,3.0401328903654417
2.690122595435064,2.0401328903654417
2.691119306289245,10.040132890365442
2.6921160171434266,10.040132890365442
2.6931127279976077,10.040132890365442
2.6941094388517888,5.040132890365442
2.69510614970597,1.0401328903654417
2.6961028605601514,7.040132890365442
2.6970995714143324,4.040132890365442
2.6980962822685135,1.0401328903654417
2.699092993122695,-1.9598671096345583
2.700089703976876,-5.959867109634558
2.701086414831057,-10.959867109634558
2.7020831256852387,-7.959867109634558
2.7030798365394197,-7.959867109634558
2.704076547393601,-8.959867109634558
2.705073258247782,-5.959867109634558
2.7060699691019634,-5.959867109634558
2.7070666799561445,-1.9598671096345583
2.7080633908103255,4.040132890365442
2.709060101664507,3.0401328903654417
2.710056812518688,7.040132890365442
2.711053523372869,12.040132890365442
2.7120502342270503,5.040132890365442
2.713046945081232,8.040132890365442
2.714043655935413,6.040132890365442
2.715040366789594,4.040132890365442
2.7160370776437754,4.040132890365442
2.7170337884979565,1.0401328903654417
2.7180304993521376,3.0401328903654417
2.719027210206319,0.040132890365441654
2.7200239210605,-9.959867109634558
2.7210206319146812,-8.959867109634558
2.7220173427688623,-9.959867109634558
2.723014053623044,-7.959867109634558
2.724010764477225,-3.9598671096345583
2.725007475331406,-6.959867109634558
2.7260041861855875,-3.9598671096345583
2.7270008970397686,-1.9598671096345583
2.7279976078939496,2.0401328903654417
2.7289943187481307,4.040132890365442
2.729991029602312,8.040132890365442
2.7309877404564933,8.040132890365442
2.7319844513106744,11.040132890365442
2.732981162164856,10.040132890365442
2.733977873019037,6.040132890365442
2.734974583873218,5.040132890365442
2.7359712947273995,10.040132890365442
2.7369680055815806,1.0401328903654417
2.7379647164357617,0.040132890365441654
2.7389614272899427,2.0401328903654417
2.7399581381441243,-7.959867109634558
2.7409548489983053,-9.959867109634558
2.7419515598524864,-11.959867109634558
2.742948270706668,-8.959867109634558
2.743944981560849,-8.959867109634558
2.74494169241503,-4.959867109634558
2.7459384032692116,-1.9598671096345583
2.7469351141233926,-1.9598671096345583
2.7479318249775737,0.040132890365441654
2.748928535831755,1.0401328903654417
2.7499252466859363,3.0401328903654417
2.7509219575401174,8.040132890365442
2.7519186683942984,8.040132890365442
2.75291537924848,6.040132890365442
2.753912090102661,5.040132890365442
2.754908800956842,4.040132890365442
2.755905511811023,3.0401328903654417
2.7569022226652047,2.0401328903654417
2.7578989335193858,2.0401328903654417
2.758895644373567,-4.959867109634558
2.7598923552277483,-5.959867109634558
2.7608890660819294,-10.959867109634558
2.7618857769361105,-8.959867109634558
2.762882487790292,-7.959867109634558
2.763879198644473,-8.959867109634558
2.764875909498654,-6.959867109634558
2.765872620352835,-4.959867109634558
2.7668693312070167,0.040132890365441654
2.767866042061198,2.0401328903654417
2.768862752915379,4.040132890365442
2.7698594637695604,4.040132890365442
2.7708561746237415,12.040132890365442
2.7718528854779225,11.040132890365442
2.7728495963321036,9.040132890365442
2.773846307186285,6.040132890365442
2.774843018040466,4.040132890365442
2.7758397288946473,1.0401328903654417
2.7768364397488288,-0.9598671096345583
2.77783315060301,-1.9598671096345583
2.778829861457191,-1.9598671096345583
2.7798265723113724,-7.959867109634558
2.7808232831655535,-10.959867109634558
2.7818199940197346,-9.959867109634558
2.7828167048739156,-8.959867109634558
2.783813415728097,-7.959867109634558
2.7848101265822782,-3.9598671096345583
2.7858068374364593,1.0401328903654417
2.786803548290641,-3.9598671096345583
2.787800259144822,2.0401328903654417
2.788796969999003,2.0401328903654417
2.789793680853184,3.0401328903654417
2.7907903917073655,8.040132890365442
2.7917871025615466,10.040132890365442
2.7927838134157277,7.040132890365442
2.793780524269909,7.040132890365442
2.7947772351240903,6.040132890365442
2.7957739459782713,4.040132890365442
2.796770656832453,4.040132890365442
2.797767367686634,2.0401328903654417
2.798764078540815,-1.9598671096345583
2.799760789394996,-10.959867109634558
2.8007575002491776,-12.959867109634558
2.8017542111033586,-10.959867109634558
2.8027509219575397,-9.959867109634558
2.8037476328117212,-10.959867109634558
2.8047443436659023,-2.9598671096345583
2.8057410545200834,-2.9598671096345583
2.8067377653742644,-0.9598671096345583
2.807734476228446,1.0401328903654417
2.808731187082627,1.0401328903654417
2.809727897936808,8.040132890365442
2.8107246087909896,12.040132890365442
2.8117213196451707,7.040132890365442
2.8127180304993518,8.040132890365442
2.8137147413535333,6.040132890365442
2.8147114522077143,2.0401328903654417
2.8157081630618954,5.040132890365442
2.8167048739160765,4.040132890365442
2.817701584770258,3.0401328903654417
2.818698295624439,-1.9598671096345583
2.81969500647862,-7.959867109634558
2.8206917173328017,-7.959867109634558
2.8216884281869827,-10.959867109634558
2.822685139041164,-6.959867109634558
2.8236818498953453,-7.959867109634558
2.8246785607495264,-7.959867109634558
2.8256752716037075,-3.9598671096345583
2.8266719824578885,0.040132890365441654
2.82766869331207,3.0401328903654417
2.828665404166251,3.0401328903654417
2.829662115020432,6.040132890365442
2.8306588258746137,5.040132890365442
2.8316555367287948,9.040132890365442
2.832652247582976,10.040132890365442
2.833648958437157,7.040132890365442
2.8346456692913384,3.0401328903654417
2.8356423801455195,4.040132890365442
2.8366390909997006,3.0401328903654417
2.837635801853882,2.0401328903654417
2.838632512708063,1.0401328903654417
2.8396292235622442,-9.959867109634558
2.8406259344164257,-6.959867109634558
2.841622645270607,-9.959867109634558
2.842619356124788,-5.959867109634558
2.843616066978969,-4.959867109634558
2.8446127778331505,-1.9598671096345583
2.8456094886873315,-2.9598671096345583
2.8466061995415126,0.040132890365441654
2.847602910395694,3.0401328903654417
2.848599621249875,10.040132890365442
2.8495963321040563,11.040132890365442
2.8505930429582373,14.040132890365442
2.851589753812419,17.04013289036544
2.8525864646666,15.040132890365442
2.853583175520781,-8.959867109634558
2.8545798863749625,-15.959867109634558
2.8555765972291436,-18.95986710963456
2.8565733080833247,-21.95986710963456
2.857570018937506,-12.959867109634558
2.8585667297916872,-6.959867109634558
2.8595634406458683,5.040132890365442
2.8605601515000494,3.0401328903654417
2.861556862354231,-5.959867109634558
2.862553573208412,-1.9598671096345583
2.863550284062593,0.040132890365441654
2.8645469949167746,-0.9598671096345583
2.8655437057709556,3.0401328903654417
2.8665404166251367,10.040132890365442
2.8675371274793178,17.04013289036544
2.8685338383334993,10.040132890365442
2.8695305491876804,3.0401328903654417
2.8705272600418614,8.040132890365442
2.871523970896043,8.040132890365442
2.872520681750224,4.040132890365442
2.873517392604405,3.0401328903654417
2.8745141034585866,5.040132890365442
2.8755108143127677,-1.9598671096345583
2.8765075251669487,-9.959867109634558
2.87750423602113,-16.95986710963456
2.8785009468753113,-15.959867109634558
2.8794976577294924,-14.959867109634558
2.8804943685836735,-20.95986710963456
2.881491079437855,-31.95986710963456
2.882487790292036,-15.959867109634558
2.883484501146217,-10.959867109634558
2.8844812120003986,8.040132890365442
2.8854779228545797,24.04013289036544
2.886474633708761,24.04013289036544
2.887471344562942,32.04013289036544
2.8884680554171234,33.04013289036544
2.8894647662713044,31.04013289036544
2.8904614771254855,16.04013289036544
2.891458187979667,-1.9598671096345583
2.892454898833848,-6.959867109634558
2.893451609688029,1.0401328903654417
2.8944483205422102,-9.959867109634558
2.8954450313963918,-7.959867109634558
2.896441742250573,-4.959867109634558
2.897438453104754,-21.95986710963456
2.8984351639589354,-17.95986710963456
2.8994318748131165,-3.9598671096345583
2.9004285856672976,20.04013289036544
2.901425296521479,33.04013289036544
2.90242200737566,30.04013289036544
2.903418718229841,24.04013289036544
2.9044154290840223,6.040132890365442
2.905412139938204,-28.95986710963456
2.906408850792385,-71.95986710963456
2.907405561646566,-61.95986710963456
2.9084022725007475,-39.95986710963456
2.9093989833549285,-15.959867109634558
2.9103956942091096,22.04013289036544
2.9113924050632907,45.04013289036544
2.912389115917472,54.04013289036544
2.9133858267716533,33.04013289036544
2.9143825376258343,13.040132890365442
2.915379248480016,-7.959867109634558
2.916375959334197,-36.95986710963456
2.917372670188378,-40.95986710963456
2.9183693810425595,-9.959867109634558
2.9193660918967406,5.040132890365442
2.9203628027509216,8.040132890365442
2.9213595136051027,-9.959867109634558
2.9223562244592842,-24.95986710963456
2.9233529353134653,-19.95986710963456
2.9243496461676464,5.040132890365442
2.925346357021828,22.04013289036544
2.926343067876009,14.040132890365442
2.92733977873019,12.040132890365442
2.928336489584371,-1.9598671096345583
2.9293332004385526,-10.959867109634558
2.9303299112927337,-2.9598671096345583
2.9313266221469148,5.040132890365442
2.9323233330010963,1.0401328903654417
2.9333200438552773,21.04013289036544
2.9343167547094584,23.04013289036544
2.93531346556364,3.0401328903654417
2.936310176417821,3.0401328903654417
2.937306887272002,2.0401328903654417
2.938303598126183,-1.9598671096345583
2.9393003089803647,-2.9598671096345583
2.9402970198345457,11.040132890365442
2.941293730688727,38.04013289036544
2.9422904415429083,25.04013289036544
2.9432871523970894,-9.959867109634558
2.9442838632512704,-24.95986710963456
2.9452805741054515,-35.95986710963456
2.946277284959633,-56.95986710963456
2.947273995813814,-29.95986710963456
2.948270706667995,-14.959867109634558
2.9492674175221767,-14.959867109634558
2.9502641283763578,6.040132890365442
2.951260839230539,14.040132890365442
2.9522575500847204,17.04013289036544
2.9532542609389014,5.040132890365442
2.9542509717930825,5.040132890365442
2.9552476826472636,12.040132890365442
2.956244393501445,8.040132890365442
2.957241104355626,32.04013289036544
2.958237815209807,25.04013289036544
2.9592345260639887,30.04013289036544
2.96023123691817,41.04013289036544
2.961227947772351,44.04013289036544
2.9622246586265324,37.04013289036544
2.9632213694807135,3.0401328903654417
2.9642180803348945,-14.959867109634558
2.9652147911890756,-60.95986710963456
2.966211502043257,-83.95986710963456
2.967208212897438,-87.95986710963456
2.9682049237516193,-60.95986710963456
2.9692016346058008,3.0401328903654417
2.970198345459982,-2.9598671096345583
2.971195056314163,-35.95986710963456
2.972191767168344,3.0401328903654417
2.9731884780225255,29.04013289036544
2.9741851888767066,27.04013289036544
2.9751818997308876,9.040132890365442
2.976178610585069,7.040132890365442
2.9771753214392502,-6.959867109634558
2.9781720322934313,-11.959867109634558
2.979168743147613,-1.9598671096345583
2.980165454001794,-12.959867109634558
2.981162164855975,-3.9598671096345583
2.982158875710156,34.04013289036544
2.9831555865643375,69.04013289036544
2.9841522974185186,72.04013289036544
2.9851490082726997,40.04013289036544
2.986145719126881,-2.9598671096345583
2.9871424299810623,-2.9598671096345583
2.9881391408352433,-9.959867109634558
2.9891358516894244,-26.95986710963456
2.990132562543606,-10.959867109634558
2.991129273397787,-14.959867109634558
2.992125984251968,-9.959867109634558
2.9931226951061496,56.04013289036544
2.9941194059603307,40.04013289036544
2.9951161168145117,-4.959867109634558
2.9961128276686932,-22.95986710963456
2.9971095385228743,8.040132890365442
2.9981062493770554,-9.959867109634558
2.9991029602312365,-38.95986710963456
3.000099671085418,-72.95986710963456
3.001096381939599,-78.95986710963456
3.00209309279378,-52.95986710963456
3.0030898036479616,-20.95986710963456
3.0040865145021427,0.040132890365441654
3.0050832253563238,-14.959867109634558
3.006079936210505,-12.959867109634558
3.0070766470646864,-21.95986710963456
3.0080733579188674,-5.959867109634558
3.0090700687730485,19.04013289036544
3.01006677962723,43.04013289036544
3.011063490481411,27.04013289036544
3.012060201335592,51.04013289036544
3.0130569121897737,44.04013289036544
3.0140536230439547,14.040132890365442
3.015050333898136,35.04013289036544
3.016047044752317,68.04013289036544
3.0170437556064984,35.04013289036544
3.0180404664606795,48.04013289036544
3.0190371773148605,54.04013289036544
3.020033888169042,-4.959867109634558
3.021030599023223,-37.95986710963456
3.022027309877404,-48.95986710963456
3.0230240207315853,-57.95986710963456
3.024020731585767,-46.95986710963456
3.025017442439948,-45.95986710963456
3.026014153294129,-35.95986710963456
3.0270108641483104,-41.95986710963456
3.0280075750024915,-71.95986710963456
3.0290042858566726,-44.95986710963456
3.030000996710854,-11.959867109634558
3.030997707565035,-1.9598671096345583
3.0319944184192162,32.04013289036544
3.0329911292733973,23.04013289036544
3.033987840127579,11.040132890365442
3.03498455098176,12.040132890365442
3.035981261835941,20.04013289036544
3.0369779726901225,20.04013289036544
3.0379746835443036,18.04013289036544
3.0389713943984846,66.04013289036544
3.039968105252666,120.04013289036544
3.040964816106847,107.04013289036544
3.0419615269610283,64.04013289036544
3.0429582378152094,1.0401328903654417
3.043954948669391,-87.95986710963456
3.044951659523572,-134.95986710963456
3.045948370377753,-98.95986710963456
3.0469450812319345,-18.95986710963456
3.0479417920861156,28.04013289036544
3.0489385029402967,49.04013289036544
3.0499352137944777,7.040132890365442
3.0509319246486593,-96.95986710963456
3.0519286355028403,-126.95986710963456
3.0529253463570214,-78.95986710963456
3.053922057211203,-25.95986710963456
3.054918768065384,62.04013289036544
3.055915478919565,120.04013289036544
3.0569121897737466,158.04013289036544
3.0579089006279276,219.04013289036544
3.0589056114821087,121.04013289036544
3.05990232233629,-2.9598671096345583
3.0608990331904713,-188.95986710963456
3.0618957440446524,-226.95986710963456
3.0628924548988334,-171.95986710963456
3.063889165753015,-63.95986710963456
3.064885876607196,16.04013289036544
3.065882587461377,68.04013289036544
3.066879298315558,69.04013289036544
3.0678760091697397,57.04013289036544
3.0688727200239208,58.04013289036544
3.069869430878102,53.04013289036544
3.0708661417322833,53.04013289036544
3.0718628525864644,49.04013289036544
3.0728595634406455,-10.959867109634558
3.073856274294827,-77.95986710963456
3.074852985149008,-61.95986710963456
3.075849696003189,-11.959867109634558
3.07684640685737,39.04013289036544
3.0778431177115517,43.04013289036544
3.078839828565733,-0.9598671096345583
3.079836539419914,-23.95986710963456
3.0808332502740954,13.040132890365442
3.0818299611282765,16.04013289036544
3.0828266719824575,44.04013289036544
3.0838233828366386,28.04013289036544
3.08482009369082,-8.959867109634558
3.085816804545001,-21.95986710963456
3.0868135153991823,-84.95986710963456
3.0878102262533638,-94.95986710963456
3.088806937107545,-83.95986710963456
3.089803647961726,-88.95986710963456
3.0908003588159074,-33.95986710963456
3.0917970696700885,36.04013289036544
3.0927937805242696,57.04013289036544
3.0937904913784506,84.04013289036544
3.094787202232632,126.04013289036544
3.095783913086813,104.04013289036544
3.0967806239409943,60.04013289036544
3.097777334795176,-20.95986710963456
3.098774045649357,-81.95986710963456
3.099770756503538,-91.95986710963456
3.1007674673577195,-91.95986710963456
3.1017641782119005,-52.95986710963456
3.1027608890660816,-35.95986710963456
3.1037575999202627,71.04013289036544
3.104754310774444,104.04013289036544
3.1057510216286253,70.04013289036544
3.1067477324828063,46.04013289036544
3.107744443336988,25.04013289036544
3.108741154191169,0.040132890365441654
3.10973786504535,32.04013289036544
3.110734575899531,64.04013289036544
3.1117312867537126,4.040132890365442
3.1127279976078936,-6.959867109634558
3.1137247084620747,-45.95986710963456
3.1147214193162562,-75.95986710963456
3.1157181301704373,-98.95986710963456
3.1167148410246184,-86.95986710963456
3.1177115518788,-59.95986710963456
3.118708262732981,-57.95986710963456
3.119704973587162,-39.95986710963456
3.120701684441343,11.040132890365442
3.1216983952955246,31.04013289036544
3.1226951061497057,109.04013289036544
3.1236918170038868,64.04013289036544
3.1246885278580683,29.04013289036544
3.1256852387122493,62.04013289036544
3.1266819495664304,67.04013289036544
3.1276786604206115,-1.9598671096345583
3.128675371274793,-3.9598671096345583
3.129672082128974,37.04013289036544
3.130668792983155,41.04013289036544
3.1316655038373367,-34.95986710963456
3.1326622146915177,-85.95986710963456
3.133658925545699,-66.95986710963456
3.1346556363998803,1.0401328903654417
3.1356523472540614,2.0401328903654417
3.1366490581082425,12.040132890365442
3.1376457689624235,-26.95986710963456
3.138642479816605,-109.95986710963456
3.139639190670786,-103.95986710963456
3.140635901524967,-16.95986710963456
3.1416326123791487,71.04013289036544
3.1426293232333298,148.04013289036544
3.143626034087511,46.04013289036544
3.144622744941692,-26.95986710963456
3.1456194557958734,-56.95986710963456
3.1466161666500545,-29.95986710963456
3.1476128775042356,52.04013289036544
3.148609588358417,83.04013289036544
3.149606299212598,51.04013289036544
3.1506030100667792,65.04013289036544
3.1515997209209607,7.040132890365442
3.152596431775142,-39.95986710963456
3.153593142629323,-49.95986710963456
3.154589853483504,-64.95986710963456
3.1555865643376855,-30.95986710963456
3.1565832751918665,-43.95986710963456
3.1575799860460476,-78.95986710963456
3.158576696900229,-19.95986710963456
3.15957340775441,73.04013289036544
3.1605701186085913,128.04013289036544
3.1615668294627723,147.04013289036544
3.162563540316954,49.04013289036544
3.163560251171135,-86.95986710963456
3.164556962025316,-83.95986710963456
3.1655536728794975,-83.95986710963456
3.1665503837336786,-88.95986710963456
3.1675470945878597,-54.95986710963456
