Time,EMG
0.0,-8.9498006644518
0.000996710854181202,-9.9498006644518
0.001993421708362404,-7.9498006644518
0.002990132562543606,-7.9498006644518
0.003986843416724808,-7.9498006644518
0.00498355427090601,3.0501993355482
0.005980265125087212,6.0501993355482
0.006976975979268414,7.0501993355482
0.007973686833449616,9.0501993355482
0.008970397687630818,8.0501993355482
0.00996710854181202,13.0501993355482
0.01096381939599322,12.0501993355482
0.011960530250174423,8.0501993355482
0.012957241104355626,6.0501993355482
0.013953951958536827,6.0501993355482
0.014950662812718028,-1.9498006644518
0.01594737366689923,-5.9498006644518
0.016944084521080434,-7.9498006644518
0.017940795375261637,-8.9498006644518
0.018937506229442836,-11.9498006644518
0.01993421708362404,-10.9498006644518
0.02093092793780524,-11.9498006644518
0.02192763879198644,-6.9498006644518
0.022924349646167644,-1.9498006644518
0.023921060500348847,-5.9498006644518
0.02491777135453005,1.0501993355482
0.025914482208711252,5.0501993355482
0.02691119306289245,5.0501993355482
0.027907903917073654,11.0501993355482
0.028904614771254857,8.0501993355482
0.029901325625436057,8.0501993355482
0.03089803647961726,12.0501993355482
0.03189474733379846,8.0501993355482
0.032891458187979665,6.0501993355482
0.03388816904216087,3.0501993355482
0.03488487989634207,3.0501993355482
0.03588159075052327,-2.9498006644518
0.03687830160470447,-5.9498006644518
0.03787501245888567,-9.9498006644518
0.038871723313066875,-10.9498006644518
0.03986843416724808,-13.9498006644518
0.04086514502142928,-10.9498006644518
0.04186185587561048,-8.9498006644518
0.042858566729791686,-6.9498006644518
0.04385527758397288,3.0501993355482
0.044851988438154085,3.0501993355482
0.04584869929233529,-0.9498006644518
0.04684541014651649,7.0501993355482
0.04784212100069769,6.0501993355482
0.048838831854878896,12.0501993355482
0.0498355427090601,16.0501993355482
0.0508322535632413,9.0501993355482
0.051828964417422504,7.0501993355482
0.0528256752716037,6.0501993355482
0.0538223861257849,4.0501993355482
0.054819096979966106,0.0501993355482
0.05581580783414731,-0.9498006644518
0.05681251868832851,-4.9498006644518
0.057809229542509714,-8.9498006644518
0.05880594039669092,-14.9498006644518
0.05980265125087211,-12.9498006644518
0.060799362105053316,-7.9498006644518
0.06179607295923452,-4.9498006644518
0.06279278381341573,-3.9498006644518
0.06378949466759692,-4.9498006644518
0.06478620552177812,-2.9498006644518
0.06578291637595933,-0.9498006644518
0.06677962723014053,7.0501993355482
0.06777633808432174,8.0501993355482
0.06877304893850293,8.0501993355482
0.06976975979268414,12.0501993355482
0.07076647064686534,9.0501993355482
0.07176318150104655,8.0501993355482
0.07275989235522774,5.0501993355482
0.07375660320940894,9.0501993355482
0.07475331406359015,5.0501993355482
0.07575002491777134,-7.9498006644518
0.07674673577195255,-6.9498006644518
0.07774344662613375,-12.9498006644518
0.07874015748031496,-14.9498006644518
0.07973686833449616,-13.9498006644518
0.08073357918867735,-9.9498006644518
0.08173029004285856,-6.9498006644518
0.08272700089703976,-2.9498006644518
0.08372371175122097,-4.9498006644518
0.08472042260540216,1.0501993355482
0.08571713345958337,3.0501993355482
0.08671384431376457,5.0501993355482
0.08771055516794576,13.0501993355482
0.08870726602212697,9.0501993355482
0.08970397687630817,11.0501993355482
0.09070068773048938,9.0501993355482
0.09169739858467058,8.0501993355482
0.09269410943885178,10.0501993355482
0.09369082029303298,2.0501993355482
0.09468753114721419,4.0501993355482
0.09568424200139539,-5.9498006644518
0.09668095285557658,-4.9498006644518
0.09767766370975779,-8.9498006644518
0.09867437456393899,-12.9498006644518
0.0996710854181202,-13.9498006644518
0.1006677962723014,-9.9498006644518
0.1016645071264826,-7.9498006644518
0.1026612179806638,-3.9498006644518
0.10365792883484501,-3.9498006644518
0.1046546396890262,1.0501993355482
0.1056513505432074,4.0501993355482
0.10664806139738861,5.0501993355482
0.1076447722515698,11.0501993355482
0.10864148310575102,7.0501993355482
0.10963819395993221,12.0501993355482
0.11063490481411342,9.0501993355482
0.11163161566829462,9.0501993355482
0.11262832652247581,7.0501993355482
0.11362503737665702,5.0501993355482
0.11462174823083822,1.0501993355482
0.11561845908501943,-5.9498006644518
0.11661516993920062,-4.9498006644518
0.11761188079338183,-9.9498006644518
0.11860859164756303,-14.9498006644518
0.11960530250174423,-9.9498006644518
0.12060201335592544,-12.9498006644518
0.12159872421010663,-8.9498006644518
0.12259543506428784,-5.9498006644518
0.12359214591846904,-3.9498006644518
0.12458885677265025,-0.9498006644518
0.12558556762683146,4.0501993355482
0.12658227848101264,5.0501993355482
0.12757898933519385,12.0501993355482
0.12857570018937506,7.0501993355482
0.12957241104355624,12.0501993355482
0.13056912189773745,11.0501993355482
0.13156583275191866,6.0501993355482
0.13256254360609987,8.0501993355482
0.13355925446028105,5.0501993355482
0.13455596531446226,2.0501993355482
0.13555267616864347,1.0501993355482
0.13654938702282465,-6.9498006644518
0.13754609787700586,-11.9498006644518
0.13854280873118707,-10.9498006644518
0.13953951958536828,-12.9498006644518
0.14053623043954946,-14.9498006644518
0.14153294129373067,-7.9498006644518
0.14252965214791188,-5.9498006644518
0.1435263630020931,-1.9498006644518
0.14452307385627428,2.0501993355482
0.14551978471045549,2.0501993355482
0.1465164955646367,5.0501993355482
0.14751320641881788,5.0501993355482
0.1485099172729991,10.0501993355482
0.1495066281271803,15.0501993355482
0.1505033389813615,7.0501993355482
0.1515000498355427,6.0501993355482
0.1524967606897239,7.0501993355482
0.1534934715439051,3.0501993355482
0.1544901823980863,0.0501993355482
0.1554868932522675,-2.9498006644518
0.1564836041064487,-7.9498006644518
0.15748031496062992,-6.9498006644518
0.1584770258148111,-13.9498006644518
0.1594737366689923,-10.9498006644518
0.16047044752317352,-9.9498006644518
0.1614671583773547,-6.9498006644518
0.1624638692315359,-5.9498006644518
0.16346058008571712,-4.9498006644518
0.16445729093989833,2.0501993355482
0.1654540017940795,3.0501993355482
0.16645071264826072,4.0501993355482
0.16744742350244193,8.0501993355482
0.16844413435662312,8.0501993355482
0.16944084521080433,14.0501993355482
0.17043755606498553,8.0501993355482
0.17143426691916674,8.0501993355482
0.17243097777334793,7.0501993355482
0.17342768862752914,5.0501993355482
0.17442439948171035,1.0501993355482
0.17542111033589153,-2.9498006644518
0.17641782119007274,-3.9498006644518
0.17741453204425395,-7.9498006644518
0.17841124289843516,-15.9498006644518
0.17940795375261634,-11.9498006644518
0.18040466460679755,-9.9498006644518
0.18140137546097876,-9.9498006644518
0.18239808631515997,-5.9498006644518
0.18339479716934115,-5.9498006644518
0.18439150802352236,-0.9498006644518
0.18538821887770357,7.0501993355482
0.18638492973188475,6.0501993355482
0.18738164058606596,9.0501993355482
0.18837835144024717,9.0501993355482
0.18937506229442838,11.0501993355482
0.19037177314860956,8.0501993355482
0.19136848400279077,10.0501993355482
0.19236519485697198,6.0501993355482
0.19336190571115316,1.0501993355482
0.19435861656533437,1.0501993355482
0.19535532741951558,-2.9498006644518
0.1963520382736968,-5.9498006644518
0.19734874912787798,-11.9498006644518
0.19834545998205919,-10.9498006644518
0.1993421708362404,-13.9498006644518
0.20033888169042158,-14.9498006644518
0.2013355925446028,-8.9498006644518
0.202332303398784,-9.9498006644518
0.2033290142529652,-4.9498006644518
0.2043257251071464,2.0501993355482
0.2053224359613276,5.0501993355482
0.2063191468155088,4.0501993355482
0.20731585766969002,11.0501993355482
0.2083125685238712,10.0501993355482
0.2093092793780524,13.0501993355482
0.21030599023223362,11.0501993355482
0.2113027010864148,8.0501993355482
0.212299411940596,6.0501993355482
0.21329612279477722,3.0501993355482
0.21429283364895843,-1.9498006644518
0.2152895445031396,-5.9498006644518
0.21628625535732082,-4.9498006644518
0.21728296621150203,-5.9498006644518
0.21827967706568321,-15.9498006644518
0.21927638791986442,-7.9498006644518
0.22027309877404563,-12.9498006644518
0.22126980962822684,-7.9498006644518
0.22226652048240803,-3.9498006644518
0.22326323133658924,-7.9498006644518
0.22425994219077044,5.0501993355482
0.22525665304495163,7.0501993355482
0.22625336389913284,8.0501993355482
0.22725007475331405,11.0501993355482
0.22824678560749526,10.0501993355482
0.22924349646167644,14.0501993355482
0.23024020731585765,12.0501993355482
0.23123691817003886,8.0501993355482
0.23223362902422004,7.0501993355482
0.23323033987840125,0.0501993355482
0.23422705073258246,0.0501993355482
0.23522376158676367,-4.9498006644518
0.23622047244094485,-4.9498006644518
0.23721718329512606,-10.9498006644518
0.23821389414930727,-14.9498006644518
0.23921060500348845,-11.9498006644518
0.24020731585766966,-12.9498006644518
0.24120402671185087,-8.9498006644518
0.24220073756603208,-8.9498006644518
0.24319744842021326,-3.9498006644518
0.24419415927439447,3.0501993355482
0.24519087012857568,1.0501993355482
0.2461875809827569,5.0501993355482
0.24718429183693807,9.0501993355482
0.24818100269111928,9.0501993355482
0.2491777135453005,13.0501993355482
0.2501744243994817,9.0501993355482
0.2511711352536629,7.0501993355482
0.2521678461078441,9.0501993355482
0.2531645569620253,2.0501993355482
0.2541612678162065,1.0501993355482
0.2551579786703877,-2.9498006644518
0.2561546895245689,-5.9498006644518
0.2571514003787501,-6.9498006644518
0.2581481112329313,-14.9498006644518
0.2591448220871125,-13.9498006644518
0.2601415329412937,-10.9498006644518
0.2611382437954749,-10.9498006644518
0.26213495464965614,-6.9498006644518
0.2631316655038373,0.0501993355482
0.2641283763580185,2.0501993355482
0.26512508721219974,4.0501993355482
0.2661217980663809,5.0501993355482
0.2671185089205621,8.0501993355482
0.26811521977474334,9.0501993355482
0.2691119306289245,16.0501993355482
0.2701086414831057,6.0501993355482
0.27110535233728694,5.0501993355482
0.2721020631914681,9.0501993355482
0.2730987740456493,3.0501993355482
0.27409548489983054,4.0501993355482
0.2750921957540117,-3.9498006644518
0.27608890660819296,-6.9498006644518
0.27708561746237415,-7.9498006644518
0.2780823283165553,-15.9498006644518
0.27907903917073656,-12.9498006644518
0.28007575002491775,-10.9498006644518
0.28107246087909893,-4.9498006644518
0.28206917173328017,-3.9498006644518
0.28306588258746135,-3.9498006644518
0.28406259344164253,2.0501993355482
0.28505930429582377,6.0501993355482
0.28605601515000495,6.0501993355482
0.2870527260041862,8.0501993355482
0.28804943685836737,12.0501993355482
0.28904614771254855,10.0501993355482
0.2900428585667298,7.0501993355482
0.29103956942091097,6.0501993355482
0.29203628027509215,8.0501993355482
0.2930329911292734,6.0501993355482
0.29402970198345457,-0.9498006644518
0.29502641283763575,-5.9498006644518
0.296023123691817,-4.9498006644518
0.2970198345459982,-10.9498006644518
0.29801654540017936,-14.9498006644518
0.2990132562543606,-11.9498006644518
0.3000099671085418,-5.9498006644518
0.301006677962723,-4.9498006644518
0.3020033888169042,-5.9498006644518
0.3030000996710854,-7.9498006644518
0.3039968105252666,2.0501993355482
0.3049935213794478,4.0501993355482
0.305990232233629,5.0501993355482
0.3069869430878102,9.0501993355482
0.3079836539419914,9.0501993355482
0.3089803647961726,11.0501993355482
0.3099770756503538,11.0501993355482
0.310973786504535,7.0501993355482
0.3119704973587162,7.0501993355482
0.3129672082128974,5.0501993355482
0.3139639190670786,-2.9498006644518
0.31496062992125984,-5.9498006644518
0.315957340775441,-4.9498006644518
0.3169540516296222,-10.9498006644518
0.31795076248380344,-13.9498006644518
0.3189474733379846,-11.9498006644518
0.3199441841921658,-14.9498006644518
0.32094089504634704,-6.9498006644518
0.3219376059005282,-3.9498006644518
0.3229343167547094,-3.9498006644518
0.32393102760889064,2.0501993355482
0.3249277384630718,5.0501993355482
0.32592444931725306,6.0501993355482
0.32692116017143424,9.0501993355482
0.3279178710256154,7.0501993355482
0.32891458187979666,13.0501993355482
0.32991129273397785,10.0501993355482
0.330908003588159,6.0501993355482
0.33190471444234027,10.0501993355482
0.33290142529652145,2.0501993355482
0.33389813615070263,-0.9498006644518
0.33489484700488387,-2.9498006644518
0.33589155785906505,-9.9498006644518
0.33688826871324623,-10.9498006644518
0.33788497956742747,-11.9498006644518
0.33888169042160865,-13.9498006644518
0.3398784012757899,-11.9498006644518
0.34087511212997107,-6.9498006644518
0.34187182298415225,-3.9498006644518
0.3428685338383335,0.0501993355482
0.34386524469251467,-1.9498006644518
0.34486195554669585,1.0501993355482
0.3458586664008771,7.0501993355482
0.3468553772550583,7.0501993355482
0.34785208810923945,8.0501993355482
0.3488487989634207,15.0501993355482
0.3498455098176019,14.0501993355482
0.35084222067178306,10.0501993355482
0.3518389315259643,6.0501993355482
0.3528356423801455,3.0501993355482
0.3538323532343267,2.0501993355482
0.3548290640885079,-2.9498006644518
0.3558257749426891,-6.9498006644518
0.3568224857968703,-9.9498006644518
0.3578191966510515,-13.9498006644518
0.3588159075052327,-10.9498006644518
0.3598126183594139,-8.9498006644518
0.3608093292135951,-7.9498006644518
0.3618060400677763,-6.9498006644518
0.3628027509219575,-4.9498006644518
0.3637994617761387,-3.9498006644518
0.36479617263031994,2.0501993355482
0.3657928834845011,5.0501993355482
0.3667895943386823,11.0501993355482
0.36778630519286354,14.0501993355482
0.3687830160470447,9.0501993355482
0.3697797269012259,8.0501993355482
0.37077643775540714,7.0501993355482
0.3717731486095883,5.0501993355482
0.3727698594637695,3.0501993355482
0.37376657031795074,2.0501993355482
0.3747632811721319,-1.9498006644518
0.3757599920263131,-2.9498006644518
0.37675670288049434,-10.9498006644518
0.3777534137346755,-12.9498006644518
0.37875012458885676,-12.9498006644518
0.37974683544303794,-13.9498006644518
0.3807435462972191,-8.9498006644518
0.38174025715140036,-3.9498006644518
0.38273696800558155,-2.9498006644518
0.38373367885976273,2.0501993355482
0.38473038971394397,5.0501993355482
0.38572710056812515,7.0501993355482
0.38672381142230633,10.0501993355482
0.38772052227648757,11.0501993355482
0.38871723313066875,12.0501993355482
0.38971394398485,10.0501993355482
0.39071065483903117,8.0501993355482
0.39170736569321235,7.0501993355482
0.3927040765473936,4.0501993355482
0.39370078740157477,1.0501993355482
0.39469749825575595,-1.9498006644518
0.3956942091099372,-7.9498006644518
0.39669091996411837,-9.9498006644518
0.39768763081829955,-13.9498006644518
0.3986843416724808,-12.9498006644518
0.399681052526662,-12.9498006644518
0.40067776338084315,-8.9498006644518
0.4016744742350244,-6.9498006644518
0.4026711850892056,-6.9498006644518
0.4036678959433868,3.0501993355482
0.404664606797568,5.0501993355482
0.4056613176517492,8.0501993355482
0.4066580285059304,11.0501993355482
0.4076547393601116,10.0501993355482
0.4086514502142928,13.0501993355482
0.409648161068474,8.0501993355482
0.4106448719226552,5.0501993355482
0.4116415827768364,4.0501993355482
0.4126382936310176,4.0501993355482
0.4136350044851988,1.0501993355482
0.41463171533938004,-3.9498006644518
0.4156284261935612,-6.9498006644518
0.4166251370477424,-7.9498006644518
0.41762184790192364,-14.9498006644518
0.4186185587561048,-11.9498006644518
0.419615269610286,-10.9498006644518
0.42061198046446724,-7.9498006644518
0.4216086913186484,0.0501993355482
0.4226054021728296,-3.9498006644518
0.42360211302701084,4.0501993355482
0.424598823881192,3.0501993355482
0.4255955347353732,6.0501993355482
0.42659224558955444,8.0501993355482
0.4275889564437356,7.0501993355482
0.42858566729791686,10.0501993355482
0.42958237815209804,9.0501993355482
0.4305790890062792,7.0501993355482
0.43157579986046046,11.0501993355482
0.43257251071464164,5.0501993355482
0.4335692215688228,4.0501993355482
0.43456593242300406,-2.9498006644518
0.43556264327718525,-7.9498006644518
0.43655935413136643,-10.9498006644518
0.43755606498554767,-11.9498006644518
0.43855277583972885,-11.9498006644518
0.43954948669391003,-15.9498006644518
0.44054619754809127,-4.9498006644518
0.44154290840227245,-2.9498006644518
0.4425396192564537,-3.9498006644518
0.44353633011063487,5.0501993355482
0.44453304096481605,3.0501993355482
0.4455297518189973,6.0501993355482
0.44652646267317847,8.0501993355482
0.44752317352735965,8.0501993355482
0.4485198843815409,11.0501993355482
0.44951659523572207,10.0501993355482
0.45051330608990325,6.0501993355482
0.4515100169440845,6.0501993355482
0.4525067277982657,3.0501993355482
0.4535034386524469,3.0501993355482
0.4545001495066281,-1.9498006644518
0.4554968603608093,-5.9498006644518
0.4564935712149905,-8.9498006644518
0.4574902820691717,-14.9498006644518
0.4584869929233529,-14.9498006644518
0.4594837037775341,-10.9498006644518
0.4604804146317153,-7.9498006644518
0.4614771254858965,-5.9498006644518
0.4624738363400777,-0.9498006644518
0.4634705471942589,1.0501993355482
0.4644672580484401,3.0501993355482
0.4654639689026213,7.0501993355482
0.4664606797568025,9.0501993355482
0.46745739061098374,8.0501993355482
0.4684541014651649,12.0501993355482
0.4694508123193461,6.0501993355482
0.47044752317352734,5.0501993355482
0.4714442340277085,8.0501993355482
0.4724409448818897,6.0501993355482
0.47343765573607094,1.0501993355482
0.4744343665902521,0.0501993355482
0.4754310774444333,-4.9498006644518
0.47642778829861454,-9.9498006644518
0.4774244991527957,-16.9498006644518
0.4784212100069769,-10.9498006644518
0.47941792086115814,-11.9498006644518
0.4804146317153393,-4.9498006644518
0.48141134256952056,-2.9498006644518
0.48240805342370174,-4.9498006644518
0.4834047642778829,0.0501993355482
0.48440147513206416,3.0501993355482
0.48539818598624535,7.0501993355482
0.4863948968404265,11.0501993355482
0.48739160769460776,14.0501993355482
0.48838831854878895,8.0501993355482
0.48938502940297013,9.0501993355482
0.49038174025715137,7.0501993355482
0.49137845111133255,6.0501993355482
0.4923751619655138,3.0501993355482
0.49337187281969497,4.0501993355482
0.49436858367387615,-5.9498006644518
0.4953652945280574,-6.9498006644518
0.49636200538223857,-9.9498006644518
0.49735871623641975,-14.9498006644518
0.498355427090601,-12.9498006644518
0.49935213794478217,-9.9498006644518
0.5003488487989634,-5.9498006644518
0.5013455596531445,-5.9498006644518
0.5023422705073258,-4.9498006644518
0.503338981361507,2.0501993355482
0.5043356922156882,6.0501993355482
0.5053324030698694,6.0501993355482
0.5063291139240506,10.0501993355482
0.5073258247782317,8.0501993355482
0.508322535632413,14.0501993355482
0.5093192464865942,12.0501993355482
0.5103159573407754,7.0501993355482
0.5113126681949566,5.0501993355482
0.5123093790491378,4.0501993355482
0.513306089903319,-0.9498006644518
0.5143028007575002,-5.9498006644518
0.5152995116116814,-8.9498006644518
0.5162962224658626,-10.9498006644518
0.5172929333200438,-10.9498006644518
0.518289644174225,-14.9498006644518
0.5192863550284063,-11.9498006644518
0.5202830658825874,-3.9498006644518
0.5212797767367686,-8.9498006644518
0.5222764875909498,-0.9498006644518
0.523273198445131,4.0501993355482
0.5242699092993123,7.0501993355482
0.5252666201534935,9.0501993355482
0.5262633310076746,13.0501993355482
0.5272600418618558,8.0501993355482
0.528256752716037,10.0501993355482
0.5292534635702182,11.0501993355482
0.5302501744243995,9.0501993355482
0.5312468852785807,5.0501993355482
0.5322435961327618,4.0501993355482
0.533240306986943,1.0501993355482
0.5342370178411242,-3.9498006644518
0.5352337286953054,-7.9498006644518
0.5362304395494867,-11.9498006644518
0.5372271504036679,-9.9498006644518
0.538223861257849,-12.9498006644518
0.5392205721120302,-10.9498006644518
0.5402172829662114,-4.9498006644518
0.5412139938203927,-7.9498006644518
0.5422107046745739,-3.9498006644518
0.5432074155287551,5.0501993355482
0.5442041263829362,4.0501993355482
0.5452008372371174,4.0501993355482
0.5461975480912986,12.0501993355482
0.5471942589454799,10.0501993355482
0.5481909697996611,12.0501993355482
0.5491876806538423,9.0501993355482
0.5501843915080235,6.0501993355482
0.5511811023622046,5.0501993355482
0.5521778132163859,5.0501993355482
0.5531745240705671,0.0501993355482
0.5541712349247483,-1.9498006644518
0.5551679457789295,-9.9498006644518
0.5561646566331107,-8.9498006644518
0.5571613674872918,-14.9498006644518
0.5581580783414731,-13.9498006644518
0.5591547891956543,-10.9498006644518
0.5601515000498355,-5.9498006644518
0.5611482109040167,-3.9498006644518
0.5621449217581979,-0.9498006644518
0.5631416326123792,1.0501993355482
0.5641383434665603,3.0501993355482
0.5651350543207415,6.0501993355482
0.5661317651749227,6.0501993355482
0.5671284760291039,7.0501993355482
0.5681251868832851,13.0501993355482
0.5691218977374664,8.0501993355482
0.5701186085916475,9.0501993355482
0.5711153194458287,5.0501993355482
0.5721120303000099,5.0501993355482
0.5731087411541911,4.0501993355482
0.5741054520083724,-2.9498006644518
0.5751021628625536,-4.9498006644518
0.5760988737167347,-8.9498006644518
0.5770955845709159,-13.9498006644518
0.5780922954250971,-12.9498006644518
0.5790890062792783,-9.9498006644518
0.5800857171334596,-5.9498006644518
0.5810824279876408,-2.9498006644518
0.5820791388418219,-2.9498006644518
0.5830758496960031,4.0501993355482
0.5840725605501843,5.0501993355482
0.5850692714043655,7.0501993355482
0.5860659822585468,9.0501993355482
0.587062693112728,13.0501993355482
0.5880594039669091,10.0501993355482
0.5890561148210903,5.0501993355482
0.5900528256752715,5.0501993355482
0.5910495365294528,9.0501993355482
0.592046247383634,2.0501993355482
0.5930429582378152,5.0501993355482
0.5940396690919963,-3.9498006644518
0.5950363799461775,-5.9498006644518
0.5960330908003587,-9.9498006644518
0.59702980165454,-15.9498006644518
0.5980265125087212,-14.9498006644518
0.5990232233629024,-10.9498006644518
0.6000199342170836,-7.9498006644518
0.6010166450712647,-4.9498006644518
0.602013355925446,-2.9498006644518
0.6030100667796272,0.0501993355482
0.6040067776338084,4.0501993355482
0.6050034884879896,7.0501993355482
0.6060001993421708,15.0501993355482
0.6069969101963519,9.0501993355482
0.6079936210505332,12.0501993355482
0.6089903319047144,8.0501993355482
0.6099870427588956,7.0501993355482
0.6109837536130768,6.0501993355482
0.611980464467258,2.0501993355482
0.6129771753214392,1.0501993355482
0.6139738861756204,-3.9498006644518
0.6149705970298016,-6.9498006644518
0.6159673078839828,-8.9498006644518
0.616964018738164,-14.9498006644518
0.6179607295923452,-15.9498006644518
0.6189574404465265,-13.9498006644518
0.6199541513007076,-4.9498006644518
0.6209508621548888,-4.9498006644518
0.62194757300907,-2.9498006644518
0.6229442838632512,3.0501993355482
0.6239409947174324,2.0501993355482
0.6249377055716137,8.0501993355482
0.6259344164257948,8.0501993355482
0.626931127279976,11.0501993355482
0.6279278381341572,12.0501993355482
0.6289245489883384,10.0501993355482
0.6299212598425197,8.0501993355482
0.6309179706967009,6.0501993355482
0.631914681550882,1.0501993355482
0.6329113924050632,-0.9498006644518
0.6339081032592444,-2.9498006644518
0.6349048141134256,-6.9498006644518
0.6359015249676069,-10.9498006644518
0.6368982358217881,-10.9498006644518
0.6378949466759692,-11.9498006644518
0.6388916575301504,-12.9498006644518
0.6398883683843316,-2.9498006644518
0.6408850792385129,-2.9498006644518
0.6418817900926941,-3.9498006644518
0.6428785009468753,1.0501993355482
0.6438752118010564,3.0501993355482
0.6448719226552376,6.0501993355482
0.6458686335094188,11.0501993355482
0.6468653443636001,11.0501993355482
0.6478620552177813,11.0501993355482
0.6488587660719625,10.0501993355482
0.6498554769261436,9.0501993355482
0.6508521877803248,9.0501993355482
0.6518488986345061,2.0501993355482
0.6528456094886873,1.0501993355482
0.6538423203428685,-0.9498006644518
0.6548390311970497,-6.9498006644518
0.6558357420512309,-10.9498006644518
0.656832452905412,-16.9498006644518
0.6578291637595933,-12.9498006644518
0.6588258746137745,-11.9498006644518
0.6598225854679557,-4.9498006644518
0.6608192963221369,-3.9498006644518
0.661816007176318,-2.9498006644518
0.6628127180304992,0.0501993355482
0.6638094288846805,2.0501993355482
0.6648061397388617,6.0501993355482
0.6658028505930429,15.0501993355482
0.6667995614472241,7.0501993355482
0.6677962723014053,11.0501993355482
0.6687929831555866,8.0501993355482
0.6697896940097677,8.0501993355482
0.6707864048639489,4.0501993355482
0.6717831157181301,1.0501993355482
0.6727798265723113,3.0501993355482
0.6737765374264925,-3.9498006644518
0.6747732482806738,-4.9498006644518
0.6757699591348549,-7.9498006644518
0.6767666699890361,-15.9498006644518
0.6777633808432173,-12.9498006644518
0.6787600916973985,-10.9498006644518
0.6797568025515798,-7.9498006644518
0.680753513405761,-2.9498006644518
0.6817502242599421,-1.9498006644518
0.6827469351141233,1.0501993355482
0.6837436459683045,3.0501993355482
0.6847403568224857,6.0501993355482
0.685737067676667,9.0501993355482
0.6867337785308482,11.0501993355482
0.6877304893850293,9.0501993355482
0.6887272002392105,6.0501993355482
0.6897239110933917,7.0501993355482
0.690720621947573,7.0501993355482
0.6917173328017542,1.0501993355482
0.6927140436559354,4.0501993355482
0.6937107545101165,-7.9498006644518
0.6947074653642977,-8.9498006644518
0.6957041762184789,-8.9498006644518
0.6967008870726602,-12.9498006644518
0.6976975979268414,-11.9498006644518
0.6986943087810226,-5.9498006644518
0.6996910196352037,-9.9498006644518
0.7006877304893849,-3.9498006644518
0.7016844413435661,-4.9498006644518
0.7026811521977474,4.0501993355482
0.7036778630519286,2.0501993355482
0.7046745739061098,5.0501993355482
0.705671284760291,12.0501993355482
0.7066679956144721,9.0501993355482
0.7076647064686534,10.0501993355482
0.7086614173228346,10.0501993355482
0.7096581281770158,8.0501993355482
0.710654839031197,6.0501993355482
0.7116515498853782,4.0501993355482
0.7126482607395593,0.0501993355482
0.7136449715937406,-1.9498006644518
0.7146416824479218,-4.9498006644518
0.715638393302103,-6.9498006644518
0.7166351041562842,-15.9498006644518
0.7176318150104654,-14.9498006644518
0.7186285258646467,-12.9498006644518
0.7196252367188278,-3.9498006644518
0.720621947573009,-4.9498006644518
0.7216186584271902,-5.9498006644518
0.7226153692813714,-0.9498006644518
0.7236120801355526,3.0501993355482
0.7246087909897339,6.0501993355482
0.725605501843915,9.0501993355482
0.7266022126980962,8.0501993355482
0.7275989235522774,12.0501993355482
0.7285956344064586,12.0501993355482
0.7295923452606399,8.0501993355482
0.7305890561148211,10.0501993355482
0.7315857669690022,3.0501993355482
0.7325824778231834,3.0501993355482
0.7335791886773646,-4.9498006644518
0.7345758995315458,-7.9498006644518
0.7355726103857271,-12.9498006644518
0.7365693212399083,-14.9498006644518
0.7375660320940894,-12.9498006644518
0.7385627429482706,-10.9498006644518
0.7395594538024518,-3.9498006644518
0.7405561646566331,-3.9498006644518
0.7415528755108143,-3.9498006644518
0.7425495863649955,5.0501993355482
0.7435462972191766,3.0501993355482
0.7445430080733578,7.0501993355482
0.745539718927539,9.0501993355482
0.7465364297817203,9.0501993355482
0.7475331406359015,12.0501993355482
0.7485298514900827,7.0501993355482
0.7495265623442638,7.0501993355482
0.750523273198445,8.0501993355482
0.7515199840526262,1.0501993355482
0.7525166949068075,-0.9498006644518
0.7535134057609887,-2.9498006644518
0.7545101166151699,-6.9498006644518
0.755506827469351,-9.9498006644518
0.7565035383235322,-13.9498006644518
0.7575002491777135,-11.9498006644518
0.7584969600318947,-10.9498006644518
0.7594936708860759,-7.9498006644518
0.7604903817402571,-3.9498006644518
0.7614870925944383,-1.9498006644518
0.7624838034486194,0.0501993355482
0.7634805143028007,4.0501993355482
0.7644772251569819,6.0501993355482
0.7654739360111631,9.0501993355482
0.7664706468653443,12.0501993355482
0.7674673577195255,14.0501993355482
0.7684640685737067,6.0501993355482
0.7694607794278879,6.0501993355482
0.7704574902820691,6.0501993355482
0.7714542011362503,2.0501993355482
0.7724509119904315,-0.9498006644518
0.7734476228446127,-0.9498006644518
0.774444333698794,-7.9498006644518
0.7754410445529751,-9.9498006644518
0.7764377554071563,-15.9498006644518
0.7774344662613375,-12.9498006644518
0.7784311771155187,-8.9498006644518
0.7794278879697,-6.9498006644518
0.7804245988238812,-6.9498006644518
0.7814213096780623,-2.9498006644518
0.7824180205322435,4.0501993355482
0.7834147313864247,6.0501993355482
0.7844114422406059,5.0501993355482
0.7854081530947872,12.0501993355482
0.7864048639489684,10.0501993355482
0.7874015748031495,11.0501993355482
0.7883982856573307,6.0501993355482
0.7893949965115119,5.0501993355482
0.7903917073656931,6.0501993355482
0.7913884182198744,5.0501993355482
0.7923851290740556,0.0501993355482
0.7933818399282367,-3.9498006644518
0.7943785507824179,-4.9498006644518
0.7953752616365991,-10.9498006644518
0.7963719724907804,-15.9498006644518
0.7973686833449616,-10.9498006644518
0.7983653941991428,-11.9498006644518
0.799362105053324,-5.9498006644518
0.8003588159075051,-3.9498006644518
0.8013555267616863,-1.9498006644518
0.8023522376158676,2.0501993355482
0.8033489484700488,6.0501993355482
0.80434565932423,10.0501993355482
0.8053423701784111,10.0501993355482
0.8063390810325923,8.0501993355482
0.8073357918867736,12.0501993355482
0.8083325027409548,9.0501993355482
0.809329213595136,5.0501993355482
0.8103259244493172,5.0501993355482
0.8113226353034984,6.0501993355482
0.8123193461576795,-0.9498006644518
0.8133160570118608,-5.9498006644518
0.814312767866042,-9.9498006644518
0.8153094787202232,-11.9498006644518
0.8163061895744044,-12.9498006644518
0.8173029004285856,-9.9498006644518
0.8182996112827668,-11.9498006644518
0.819296322136948,-7.9498006644518
0.8202930329911292,-3.9498006644518
0.8212897438453104,-1.9498006644518
0.8222864546994916,3.0501993355482
0.8232831655536728,6.0501993355482
0.824279876407854,5.0501993355482
0.8252765872620352,9.0501993355482
0.8262732981162164,10.0501993355482
0.8272700089703976,12.0501993355482
0.8282667198245788,11.0501993355482
0.8292634306787601,9.0501993355482
0.8302601415329413,7.0501993355482
0.8312568523871224,3.0501993355482
0.8322535632413036,-1.9498006644518
0.8332502740954848,-4.9498006644518
0.834246984949666,-8.9498006644518
0.8352436958038473,-10.9498006644518
0.8362404066580285,-13.9498006644518
0.8372371175122096,-11.9498006644518
0.8382338283663908,-11.9498006644518
0.839230539220572,-5.9498006644518
0.8402272500747532,-6.9498006644518
0.8412239609289345,-2.9498006644518
0.8422206717831157,6.0501993355482
0.8432173826372968,4.0501993355482
0.844214093491478,8.0501993355482
0.8452108043456592,10.0501993355482
0.8462075151998405,8.0501993355482
0.8472042260540217,10.0501993355482
0.8482009369082029,7.0501993355482
0.849197647762384,6.0501993355482
0.8501943586165652,8.0501993355482
0.8511910694707464,4.0501993355482
0.8521877803249277,0.0501993355482
0.8531844911791089,-3.9498006644518
0.8541812020332901,-5.9498006644518
0.8551779128874712,-11.9498006644518
0.8561746237416524,-15.9498006644518
0.8571713345958337,-12.9498006644518
0.8581680454500149,-9.9498006644518
0.8591647563041961,-4.9498006644518
0.8601614671583773,-4.9498006644518
0.8611581780125585,-0.9498006644518
0.8621548888667396,1.0501993355482
0.8631515997209209,3.0501993355482
0.8641483105751021,8.0501993355482
0.8651450214292833,7.0501993355482
0.8661417322834645,10.0501993355482
0.8671384431376457,12.0501993355482
0.868135153991827,8.0501993355482
0.8691318648460081,9.0501993355482
0.8701285757001893,5.0501993355482
0.8711252865543705,4.0501993355482
0.8721219974085517,3.0501993355482
0.8731187082627329,-1.9498006644518
0.8741154191169141,-7.9498006644518
0.8751121299710953,-9.9498006644518
0.8761088408252765,-15.9498006644518
0.8771055516794577,-11.9498006644518
0.8781022625336389,-7.9498006644518
0.8790989733878201,-5.9498006644518
0.8800956842420014,-3.9498006644518
0.8810923950961825,-3.9498006644518
0.8820891059503637,5.0501993355482
0.8830858168045449,5.0501993355482
0.8840825276587261,8.0501993355482
0.8850792385129074,8.0501993355482
0.8860759493670886,10.0501993355482
0.8870726602212697,8.0501993355482
0.8880693710754509,6.0501993355482
0.8890660819296321,6.0501993355482
0.8900627927838133,6.0501993355482
0.8910595036379946,3.0501993355482
0.8920562144921758,4.0501993355482
0.8930529253463569,-3.9498006644518
0.8940496362005381,-6.9498006644518
0.8950463470547193,-11.9498006644518
0.8960430579089006,-12.9498006644518
0.8970397687630818,-11.9498006644518
0.898036479617263,-7.9498006644518
0.8990331904714441,-5.9498006644518
0.9000299013256253,-3.9498006644518
0.9010266121798065,-4.9498006644518
0.9020233230339878,5.0501993355482
0.903020033888169,6.0501993355482
0.9040167447423502,8.0501993355482
0.9050134555965313,10.0501993355482
0.9060101664507125,7.0501993355482
0.9070068773048938,11.0501993355482
0.908003588159075,9.0501993355482
0.9090002990132562,6.0501993355482
0.9099970098674374,5.0501993355482
0.9109937207216185,5.0501993355482
0.9119904315757997,-1.9498006644518
0.912987142429981,-4.9498006644518
0.9139838532841622,-6.9498006644518
0.9149805641383434,-8.9498006644518
0.9159772749925246,-13.9498006644518
0.9169739858467058,-11.9498006644518
0.9179706967008869,-10.9498006644518
0.9189674075550682,-5.9498006644518
0.9199641184092494,-2.9498006644518
0.9209608292634306,-2.9498006644518
0.9219575401176118,5.0501993355482
0.922954250971793,7.0501993355482
0.9239509618259742,6.0501993355482
0.9249476726801554,12.0501993355482
0.9259443835343366,10.0501993355482
0.9269410943885178,12.0501993355482
0.927937805242699,10.0501993355482
0.9289345160968802,5.0501993355482
0.9299312269510615,5.0501993355482
0.9309279378052426,1.0501993355482
0.9319246486594238,-0.9498006644518
0.932921359513605,-3.9498006644518
0.9339180703677862,-7.9498006644518
0.9349147812219675,-10.9498006644518
0.9359114920761487,-15.9498006644518
0.9369082029303298,-10.9498006644518
0.937904913784511,-11.9498006644518
0.9389016246386922,-5.9498006644518
0.9398983354928734,-0.9498006644518
0.9408950463470547,-2.9498006644518
0.9418917572012359,2.0501993355482
0.942888468055417,3.0501993355482
0.9438851789095982,7.0501993355482
0.9448818897637794,9.0501993355482
0.9458786006179607,8.0501993355482
0.9468753114721419,14.0501993355482
0.9478720223263231,8.0501993355482
0.9488687331805042,8.0501993355482
0.9498654440346854,8.0501993355482
0.9508621548888666,1.0501993355482
0.9518588657430479,-2.9498006644518
0.9528555765972291,-4.9498006644518
0.9538522874514103,-8.9498006644518
0.9548489983055914,-10.9498006644518
0.9558457091597726,-14.9498006644518
0.9568424200139538,-12.9498006644518
0.9578391308681351,-9.9498006644518
0.9588358417223163,-6.9498006644518
0.9598325525764975,-4.9498006644518
0.9608292634306786,-1.9498006644518
0.9618259742848598,-1.9498006644518
0.9628226851390411,5.0501993355482
0.9638193959932223,7.0501993355482
0.9648161068474035,8.0501993355482
0.9658128177015847,11.0501993355482
0.9668095285557659,12.0501993355482
0.967806239409947,8.0501993355482
0.9688029502641283,6.0501993355482
0.9697996611183095,5.0501993355482
0.9707963719724907,4.0501993355482
0.9717930828266719,4.0501993355482
0.972789793680853,-5.9498006644518
0.9737865045350343,-7.9498006644518
0.9747832153892155,-8.9498006644518
0.9757799262433967,-14.9498006644518
0.9767766370975779,-11.9498006644518
0.9777733479517591,-8.9498006644518
0.9787700588059403,-4.9498006644518
0.9797667696601216,-0.9498006644518
0.9807634805143027,-1.9498006644518
0.9817601913684839,1.0501993355482
0.9827569022226651,4.0501993355482
0.9837536130768463,6.0501993355482
0.9847503239310276,10.0501993355482
0.9857470347852088,8.0501993355482
0.9867437456393899,14.0501993355482
0.9877404564935711,9.0501993355482
0.9887371673477523,10.0501993355482
0.9897338782019335,8.0501993355482
0.9907305890561148,1.0501993355482
0.991727299910296,-0.9498006644518
0.9927240107644771,-4.9498006644518
0.9937207216186583,-6.9498006644518
0.9947174324728395,-11.9498006644518
0.9957141433270208,-16.9498006644518
0.996710854181202,-10.9498006644518
0.9977075650353832,-6.9498006644518
0.9987042758895643,-4.9498006644518
0.9997009867437455,-2.9498006644518
1.0006976975979267,-3.9498006644518
1.001694408452108,0.0501993355482
1.002691119306289,1.0501993355482
1.0036878301604704,7.0501993355482
1.0046845410146517,9.0501993355482
1.0056812518688327,12.0501993355482
1.006677962723014,12.0501993355482
1.007674673577195,9.0501993355482
1.0086713844313764,5.0501993355482
1.0096680952855577,6.0501993355482
1.0106648061397387,3.0501993355482
1.01166151699392,-1.9498006644518
1.0126582278481011,-7.9498006644518
1.0136549387022824,-6.9498006644518
1.0146516495564635,-12.9498006644518
1.0156483604106448,-14.9498006644518
1.016645071264826,-11.9498006644518
1.0176417821190071,-9.9498006644518
1.0186384929731884,-6.9498006644518
1.0196352038273695,-1.9498006644518
1.0206319146815508,-2.9498006644518
1.021628625535732,2.0501993355482
1.0226253363899132,4.0501993355482
1.0236220472440944,9.0501993355482
1.0246187580982755,14.0501993355482
1.0256154689524568,9.0501993355482
1.026612179806638,9.0501993355482
1.0276088906608192,8.0501993355482
1.0286056015150005,5.0501993355482
1.0296023123691815,8.0501993355482
1.0305990232233628,1.0501993355482
1.031595734077544,2.0501993355482
1.0325924449317252,-2.9498006644518
1.0335891557859065,-4.9498006644518
1.0345858666400876,-11.9498006644518
1.0355825774942689,-13.9498006644518
1.03657928834845,-15.9498006644518
1.0375759992026312,-11.9498006644518
1.0385727100568125,-7.9498006644518
1.0395694209109936,-4.9498006644518
1.0405661317651749,2.0501993355482
1.041562842619356,2.0501993355482
1.0425595534735372,4.0501993355482
1.0435562643277185,9.0501993355482
1.0445529751818996,8.0501993355482
1.045549686036081,10.0501993355482
1.046546396890262,15.0501993355482
1.0475431077444433,8.0501993355482
1.0485398185986246,6.0501993355482
1.0495365294528056,8.0501993355482
1.050533240306987,2.0501993355482
1.051529951161168,-1.9498006644518
1.0525266620153493,-1.9498006644518
1.0535233728695304,-6.9498006644518
1.0545200837237116,-11.9498006644518
1.055516794577893,-14.9498006644518
1.056513505432074,-14.9498006644518
1.0575102162862553,-8.9498006644518
1.0585069271404364,-4.9498006644518
1.0595036379946177,-4.9498006644518
1.060500348848799,1.0501993355482
1.06149705970298,1.0501993355482
1.0624937705571613,5.0501993355482
1.0634904814113424,7.0501993355482
1.0644871922655237,9.0501993355482
1.065483903119705,9.0501993355482
1.066480613973886,11.0501993355482
1.0674773248280673,6.0501993355482
1.0684740356822484,8.0501993355482
1.0694707465364297,8.0501993355482
1.0704674573906108,1.0501993355482
1.071464168244792,0.0501993355482
1.0724608790989734,-3.9498006644518
1.0734575899531544,-6.9498006644518
1.0744543008073357,-9.9498006644518
1.0754510116615168,-14.9498006644518
1.076447722515698,-12.9498006644518
1.0774444333698794,-8.9498006644518
1.0784411442240605,-5.9498006644518
1.0794378550782417,-7.9498006644518
1.0804345659324228,-3.9498006644518
1.0814312767866041,5.0501993355482
1.0824279876407854,5.0501993355482
1.0834246984949665,9.0501993355482
1.0844214093491478,8.0501993355482
1.0854181202033288,13.0501993355482
1.0864148310575101,10.0501993355482
1.0874115419116914,5.0501993355482
1.0884082527658725,4.0501993355482
1.0894049636200538,5.0501993355482
1.0904016744742349,5.0501993355482
1.0913983853284162,-2.9498006644518
1.0923950961825972,-6.9498006644518
1.0933918070367785,-8.9498006644518
1.0943885178909598,-10.9498006644518
1.0953852287451409,-11.9498006644518
1.0963819395993222,-9.9498006644518
1.0973786504535032,-9.9498006644518
1.0983753613076845,-2.9498006644518
1.0993720721618658,-5.9498006644518
1.100368783016047,-3.9498006644518
1.1013654938702282,2.0501993355482
1.1023622047244093,4.0501993355482
1.1033589155785906,6.0501993355482
1.1043556264327719,12.0501993355482
1.105352337286953,11.0501993355482
1.1063490481411342,11.0501993355482
1.1073457589953153,12.0501993355482
1.1083424698494966,5.0501993355482
1.1093391807036777,4.0501993355482
1.110335891557859,2.0501993355482
1.1113326024120402,-1.9498006644518
1.1123293132662213,-7.9498006644518
1.1133260241204026,-7.9498006644518
1.1143227349745837,-11.9498006644518
1.115319445828765,-13.9498006644518
1.1163161566829463,-10.9498006644518
1.1173128675371273,-9.9498006644518
1.1183095783913086,-7.9498006644518
1.1193062892454897,-2.9498006644518
1.120303000099671,-1.9498006644518
1.1212997109538523,3.0501993355482
1.1222964218080334,5.0501993355482
1.1232931326622146,7.0501993355482
1.1242898435163957,11.0501993355482
1.125286554370577,8.0501993355482
1.1262832652247583,12.0501993355482
1.1272799760789394,9.0501993355482
1.1282766869331207,6.0501993355482
1.1292733977873017,9.0501993355482
1.130270108641483,2.0501993355482
1.131266819495664,-0.9498006644518
1.1322635303498454,-3.9498006644518
1.1332602412040267,-7.9498006644518
1.1342569520582078,-11.9498006644518
1.135253662912389,-17.9498006644518
1.1362503737665701,-11.9498006644518
1.1372470846207514,-10.9498006644518
1.1382437954749327,-4.9498006644518
1.1392405063291138,-0.9498006644518
1.140237217183295,-5.9498006644518
1.1412339280374761,2.0501993355482
1.1422306388916574,3.0501993355482
1.1432273497458387,11.0501993355482
1.1442240606000198,14.0501993355482
1.145220771454201,10.0501993355482
1.1462174823083822,16.0501993355482
1.1472141931625635,5.0501993355482
1.1482109040167447,7.0501993355482
1.1492076148709258,5.0501993355482
1.1502043257251071,2.0501993355482
1.1512010365792882,-0.9498006644518
1.1521977474334695,-3.9498006644518
1.1531944582876505,-6.9498006644518
1.1541911691418318,-11.9498006644518
1.1551878799960131,-14.9498006644518
1.1561845908501942,-12.9498006644518
1.1571813017043755,-6.9498006644518
1.1581780125585566,-5.9498006644518
1.1591747234127379,-6.9498006644518
1.1601714342669192,-1.9498006644518
1.1611681451211002,3.0501993355482
1.1621648559752815,6.0501993355482
1.1631615668294626,6.0501993355482
1.1641582776836439,12.0501993355482
1.1651549885378252,8.0501993355482
1.1661516993920062,14.0501993355482
1.1671484102461875,9.0501993355482
1.1681451211003686,8.0501993355482
1.16914183195455,7.0501993355482
1.170138542808731,2.0501993355482
1.1711352536629123,1.0501993355482
1.1721319645170936,-2.9498006644518
1.1731286753712746,-6.9498006644518
1.174125386225456,-9.9498006644518
1.175122097079637,-16.9498006644518
1.1761188079338183,-12.9498006644518
1.1771155187879996,-7.9498006644518
1.1781122296421807,-4.9498006644518
1.179108940496362,-4.9498006644518
1.180105651350543,-2.9498006644518
1.1811023622047243,3.0501993355482
1.1820990730589056,3.0501993355482
1.1830957839130867,6.0501993355482
1.184092494767268,10.0501993355482
1.185089205621449,12.0501993355482
1.1860859164756303,13.0501993355482
1.1870826273298116,7.0501993355482
1.1880793381839927,7.0501993355482
1.189076049038174,3.0501993355482
1.190072759892355,1.0501993355482
1.1910694707465364,1.0501993355482
1.1920661816007174,-4.9498006644518
1.1930628924548987,-4.9498006644518
1.19405960330908,-9.9498006644518
1.195056314163261,-10.9498006644518
1.1960530250174424,-12.9498006644518
1.1970497358716234,-8.9498006644518
1.1980464467258047,-7.9498006644518
1.199043157579986,-5.9498006644518
1.200039868434167,-2.9498006644518
1.2010365792883484,5.0501993355482
1.2020332901425295,5.0501993355482
1.2030300009967108,6.0501993355482
1.204026711850892,10.0501993355482
1.2050234227050731,9.0501993355482
1.2060201335592544,9.0501993355482
1.2070168444134355,10.0501993355482
1.2080135552676168,6.0501993355482
1.2090102661217978,5.0501993355482
1.2100069769759791,4.0501993355482
1.2110036878301604,2.0501993355482
1.2120003986843415,-5.9498006644518
1.2129971095385228,-8.9498006644518
1.2139938203927039,-11.9498006644518
1.2149905312468852,-15.9498006644518
1.2159872421010665,-7.9498006644518
1.2169839529552475,-12.9498006644518
1.2179806638094288,-7.9498006644518
1.21897737466361,-1.9498006644518
1.2199740855177912,-4.9498006644518
1.2209707963719725,3.0501993355482
1.2219675072261535,6.0501993355482
1.2229642180803348,8.0501993355482
1.223960928934516,11.0501993355482
1.2249576397886972,9.0501993355482
1.2259543506428785,12.0501993355482
1.2269510614970596,9.0501993355482
1.2279477723512409,6.0501993355482
1.228944483205422,6.0501993355482
1.2299411940596032,3.0501993355482
1.2309379049137843,-0.9498006644518
1.2319346157679656,-4.9498006644518
1.2329313266221469,-8.9498006644518
1.233928037476328,-12.9498006644518
1.2349247483305092,-10.9498006644518
1.2359214591846903,-11.9498006644518
1.2369181700388716,-11.9498006644518
1.237914880893053,-4.9498006644518
1.238911591747234,-4.9498006644518
1.2399083026014153,0.0501993355482
1.2409050134555963,2.0501993355482
1.2419017243097776,2.0501993355482
1.242898435163959,8.0501993355482
1.24389514601814,11.0501993355482
1.2448918568723213,8.0501993355482
1.2458885677265024,11.0501993355482
1.2468852785806837,8.0501993355482
1.2478819894348647,10.0501993355482
1.248878700289046,4.0501993355482
1.2498754111432273,0.0501993355482
1.2508721219974084,2.0501993355482
1.2518688328515897,-2.9498006644518
1.2528655437057707,-8.9498006644518
1.253862254559952,-12.9498006644518
1.2548589654141333,-12.9498006644518
1.2558556762683144,-12.9498006644518
1.2568523871224957,-10.9498006644518
1.2578490979766768,-5.9498006644518
1.258845808830858,-6.9498006644518
1.2598425196850394,1.0501993355482
1.2608392305392204,1.0501993355482
1.2618359413934017,6.0501993355482
1.2628326522475828,8.0501993355482
1.263829363101764,7.0501993355482
1.2648260739559454,12.0501993355482
1.2658227848101264,12.0501993355482
1.2668194956643077,5.0501993355482
1.2678162065184888,5.0501993355482
1.26881291737267,6.0501993355482
1.2698096282268512,1.0501993355482
1.2708063390810325,2.0501993355482
1.2718030499352138,-4.9498006644518
1.2727997607893948,-7.9498006644518
1.2737964716435761,-9.9498006644518
1.2747931824977572,-14.9498006644518
1.2757898933519385,-14.9498006644518
1.2767866042061198,-9.9498006644518
1.2777833150603009,-2.9498006644518
1.2787800259144821,-2.9498006644518
1.2797767367686632,-2.9498006644518
1.2807734476228445,1.0501993355482
1.2817701584770258,5.0501993355482
1.2827668693312069,8.0501993355482
1.2837635801853882,11.0501993355482
1.2847602910395692,13.0501993355482
1.2857570018937505,11.0501993355482
1.2867537127479316,5.0501993355482
1.287750423602113,7.0501993355482
1.2887471344562942,5.0501993355482
1.2897438453104753,7.0501993355482
1.2907405561646565,2.0501993355482
1.2917372670188376,-7.9498006644518
1.292733977873019,-6.9498006644518
1.2937306887272002,-8.9498006644518
1.2947273995813813,-12.9498006644518
1.2957241104355626,-9.9498006644518
1.2967208212897436,-9.9498006644518
1.297717532143925,-5.9498006644518
1.2987142429981062,-5.9498006644518
1.2997109538522873,-2.9498006644518
1.3007076647064686,3.0501993355482
1.3017043755606497,7.0501993355482
1.302701086414831,8.0501993355482
1.3036977972690122,12.0501993355482
1.3046945081231933,12.0501993355482
1.3056912189773746,12.0501993355482
1.3066879298315557,9.0501993355482
1.307684640685737,8.0501993355482
1.308681351539918,5.0501993355482
1.3096780623940993,5.0501993355482
1.3106747732482806,-0.9498006644518
1.3116714841024617,-7.9498006644518
1.312668194956643,-10.9498006644518
1.313664905810824,-7.9498006644518
1.3146616166650054,-14.9498006644518
1.3156583275191867,-8.9498006644518
1.3166550383733677,-9.9498006644518
1.317651749227549,-5.9498006644518
1.31864846008173,-5.9498006644518
1.3196451709359114,-3.9498006644518
1.3206418817900927,1.0501993355482
1.3216385926442737,4.0501993355482
1.322635303498455,8.0501993355482
1.323632014352636,10.0501993355482
1.3246287252068174,12.0501993355482
1.3256254360609985,16.0501993355482
1.3266221469151798,10.0501993355482
1.327618857769361,8.0501993355482
1.3286155686235421,3.0501993355482
1.3296122794777234,-0.9498006644518
1.3306089903319045,-2.9498006644518
1.3316057011860858,-1.9498006644518
1.332602412040267,-9.9498006644518
1.3335991228944482,-13.9498006644518
1.3345958337486294,-14.9498006644518
1.3355925446028105,-12.9498006644518
1.3365892554569918,-6.9498006644518
1.337585966311173,-4.9498006644518
1.3385826771653542,-3.9498006644518
1.3395793880195355,-4.9498006644518
1.3405760988737165,5.0501993355482
1.3415728097278978,4.0501993355482
1.3425695205820791,9.0501993355482
1.3435662314362602,10.0501993355482
1.3445629422904415,11.0501993355482
1.3455596531446226,12.0501993355482
1.3465563639988039,8.0501993355482
1.347553074852985,7.0501993355482
1.3485497857071662,7.0501993355482
1.3495464965613475,2.0501993355482
1.3505432074155286,3.0501993355482
1.3515399182697099,-2.9498006644518
1.352536629123891,-9.9498006644518
1.3535333399780722,-10.9498006644518
1.3545300508322535,-14.9498006644518
1.3555267616864346,-11.9498006644518
1.356523472540616,-8.9498006644518
1.357520183394797,-8.9498006644518
1.3585168942489783,-6.9498006644518
1.3595136051031596,1.0501993355482
1.3605103159573406,1.0501993355482
1.361507026811522,4.0501993355482
1.362503737665703,7.0501993355482
1.3635004485198843,8.0501993355482
1.3644971593740653,11.0501993355482
1.3654938702282466,11.0501993355482
1.366490581082428,6.0501993355482
1.367487291936609,5.0501993355482
1.3684840027907903,6.0501993355482
1.3694807136449714,1.0501993355482
1.3704774244991527,4.0501993355482
1.371474135353334,-5.9498006644518
1.372470846207515,-7.9498006644518
1.3734675570616963,-13.9498006644518
1.3744642679158774,-16.9498006644518
1.3754609787700587,-12.9498006644518
1.37645768962424,-8.9498006644518
1.377454400478421,-2.9498006644518
1.3784511113326023,-3.9498006644518
1.3794478221867834,-2.9498006644518
1.3804445330409647,1.0501993355482
1.381441243895146,8.0501993355482
1.382437954749327,10.0501993355482
1.3834346656035084,11.0501993355482
1.3844313764576894,12.0501993355482
1.3854280873118707,9.0501993355482
1.3864247981660518,5.0501993355482
1.387421509020233,10.0501993355482
1.3884182198744144,8.0501993355482
1.3894149307285955,-0.9498006644518
1.3904116415827767,4.0501993355482
1.3914083524369578,-6.9498006644518
1.3924050632911391,-8.9498006644518
1.3934017741453204,-10.9498006644518
1.3943984849995015,-15.9498006644518
1.3953951958536828,-12.9498006644518
1.3963919067078638,-7.9498006644518
1.3973886175620451,-6.9498006644518
1.3983853284162264,-5.9498006644518
1.3993820392704075,-4.9498006644518
1.4003787501245888,6.0501993355482
1.4013754609787699,8.0501993355482
1.4023721718329512,9.0501993355482
1.4033688826871322,8.0501993355482
1.4043655935413135,13.0501993355482
1.4053623043954948,11.0501993355482
1.4063590152496759,9.0501993355482
1.4073557261038572,5.0501993355482
1.4083524369580382,6.0501993355482
1.4093491478122195,4.0501993355482
1.4103458586664008,-2.9498006644518
1.411342569520582,-3.9498006644518
1.4123392803747632,-6.9498006644518
1.4133359912289443,-14.9498006644518
1.4143327020831256,-12.9498006644518
1.4153294129373069,-9.9498006644518
1.416326123791488,-11.9498006644518
1.4173228346456692,-7.9498006644518
1.4183195454998503,-2.9498006644518
1.4193162563540316,-3.9498006644518
1.4203129672082129,5.0501993355482
1.421309678062394,6.0501993355482
1.4223063889165752,9.0501993355482
1.4233030997707563,12.0501993355482
1.4242998106249376,9.0501993355482
1.4252965214791187,10.0501993355482
1.4262932323333,5.0501993355482
1.4272899431874813,5.0501993355482
1.4282866540416623,3.0501993355482
1.4292833648958436,0.0501993355482
1.4302800757500247,-1.9498006644518
1.431276786604206,-1.9498006644518
1.4322734974583873,-6.9498006644518
1.4332702083125684,-13.9498006644518
1.4342669191667496,-10.9498006644518
1.4352636300209307,-11.9498006644518
1.436260340875112,-11.9498006644518
1.4372570517292933,-6.9498006644518
1.4382537625834744,-5.9498006644518
1.4392504734376557,1.0501993355482
1.4402471842918367,1.0501993355482
1.441243895146018,5.0501993355482
1.4422406060001993,10.0501993355482
1.4432373168543804,9.0501993355482
1.4442340277085617,10.0501993355482
1.4452307385627428,13.0501993355482
1.446227449416924,8.0501993355482
1.4472241602711051,8.0501993355482
1.4482208711252864,8.0501993355482
1.4492175819794677,-0.9498006644518
1.4502142928336488,0.0501993355482
1.45121100368783,-5.9498006644518
1.4522077145420111,-9.9498006644518
1.4532044253961924,-11.9498006644518
1.4542011362503737,-11.9498006644518
1.4551978471045548,-7.9498006644518
1.456194557958736,-4.9498006644518
1.4571912688129172,-4.9498006644518
1.4581879796670985,-4.9498006644518
1.4591846905212797,-1.9498006644518
1.4601814013754608,4.0501993355482
1.4611781122296421,5.0501993355482
1.4621748230838232,9.0501993355482
1.4631715339380045,12.0501993355482
1.4641682447921855,10.0501993355482
1.4651649556463668,15.0501993355482
1.4661616665005481,8.0501993355482
1.4671583773547292,6.0501993355482
1.4681550882089105,3.0501993355482
1.4691517990630916,4.0501993355482
1.4701485099172729,3.0501993355482
1.4711452207714542,-7.9498006644518
1.4721419316256352,-9.9498006644518
1.4731386424798165,-13.9498006644518
1.4741353533339976,-13.9498006644518
1.4751320641881789,-12.9498006644518
1.4761287750423602,-6.9498006644518
1.4771254858965412,-5.9498006644518
1.4781221967507225,-3.9498006644518
1.4791189076049036,-1.9498006644518
1.480115618459085,1.0501993355482
1.4811123293132662,5.0501993355482
1.4821090401674473,8.0501993355482
1.4831057510216286,9.0501993355482
1.4841024618758096,12.0501993355482
1.485099172729991,12.0501993355482
1.486095883584172,8.0501993355482
1.4870925944383533,7.0501993355482
1.4880893052925346,7.0501993355482
1.4890860161467157,0.0501993355482
1.490082727000897,2.0501993355482
1.491079437855078,-4.9498006644518
1.4920761487092593,-7.9498006644518
1.4930728595634406,-11.9498006644518
1.4940695704176217,-13.9498006644518
1.495066281271803,-11.9498006644518
1.496062992125984,-9.9498006644518
1.4970597029801653,-9.9498006644518
1.4980564138343466,-6.9498006644518
1.4990531246885277,-2.9498006644518
1.500049835542709,4.0501993355482
1.50104654639689,7.0501993355482
1.5020432572510714,9.0501993355482
1.5030399681052524,12.0501993355482
1.5040366789594337,9.0501993355482
1.505033389813615,10.0501993355482
1.506030100667796,12.0501993355482
1.5070268115219774,8.0501993355482
1.5080235223761584,4.0501993355482
1.5090202332303397,3.0501993355482
1.510016944084521,-4.9498006644518
1.511013654938702,-9.9498006644518
1.5120103657928834,-7.9498006644518
1.5130070766470645,-10.9498006644518
1.5140037875012458,-14.9498006644518
1.515000498355427,-13.9498006644518
1.5159972092096081,-11.9498006644518
1.5169939200637894,-4.9498006644518
1.5179906309179705,-5.9498006644518
1.5189873417721518,0.0501993355482
1.519984052626333,7.0501993355482
1.5209807634805141,7.0501993355482
1.5219774743346954,10.0501993355482
1.5229741851888765,12.0501993355482
1.5239708960430578,9.0501993355482
1.5249676068972389,12.0501993355482
1.5259643177514202,8.0501993355482
1.5269610286056015,5.0501993355482
1.5279577394597825,6.0501993355482
1.5289544503139638,0.0501993355482
1.529951161168145,-0.9498006644518
1.5309478720223262,-2.9498006644518
1.5319445828765075,-7.9498006644518
1.5329412937306885,-11.9498006644518
1.5339380045848698,-11.9498006644518
1.534934715439051,-12.9498006644518
1.5359314262932322,-11.9498006644518
1.5369281371474135,-4.9498006644518
1.5379248480015946,-1.9498006644518
1.5389215588557759,-0.9498006644518
1.539918269709957,6.0501993355482
1.5409149805641382,4.0501993355482
1.5419116914183193,7.0501993355482
1.5429084022725006,6.0501993355482
1.5439051131266819,11.0501993355482
1.544901823980863,16.0501993355482
1.5458985348350442,8.0501993355482
1.5468952456892253,5.0501993355482
1.5478919565434066,6.0501993355482
1.548888667397588,0.0501993355482
1.549885378251769,-1.9498006644518
1.5508820891059503,-2.9498006644518
1.5518787999601313,-6.9498006644518
1.5528755108143126,-11.9498006644518
1.553872221668494,-14.9498006644518
1.554868932522675,-14.9498006644518
1.5558656433768563,-6.9498006644518
1.5568623542310374,-6.9498006644518
1.5578590650852187,-4.9498006644518
1.5588557759394,1.0501993355482
1.559852486793581,4.0501993355482
1.5608491976477623,4.0501993355482
1.5618459085019434,8.0501993355482
1.5628426193561247,8.0501993355482
1.5638393302103057,11.0501993355482
1.564836041064487,12.0501993355482
1.5658327519186683,9.0501993355482
1.5668294627728494,5.0501993355482
1.5678261736270307,5.0501993355482
1.5688228844812118,1.0501993355482
1.569819595335393,0.0501993355482
1.5708163061895744,-6.9498006644518
1.5718130170437554,-10.9498006644518
1.5728097278979367,-12.9498006644518
1.5738064387521178,-11.9498006644518
1.574803149606299,-7.9498006644518
1.5757998604604804,-9.9498006644518
1.5767965713146614,-7.9498006644518
1.5777932821688427,-1.9498006644518
1.5787899930230238,-1.9498006644518
1.579786703877205,3.0501993355482
1.5807834147313862,5.0501993355482
1.5817801255855675,9.0501993355482
1.5827768364397488,9.0501993355482
1.5837735472939298,13.0501993355482
1.5847702581481111,8.0501993355482
1.5857669690022922,4.0501993355482
1.5867636798564735,7.0501993355482
1.5877603907106548,5.0501993355482
1.5887571015648358,1.0501993355482
1.5897538124190171,-1.9498006644518
1.5907505232731982,-4.9498006644518
1.5917472341273795,-9.9498006644518
1.5927439449815608,-10.9498006644518
1.5937406558357419,-15.9498006644518
1.5947373666899232,-11.9498006644518
1.5957340775441042,-8.9498006644518
1.5967307883982855,-6.9498006644518
1.5977274992524668,-2.9498006644518
1.598724210106648,-0.9498006644518
1.5997209209608292,3.0501993355482
1.6007176318150103,4.0501993355482
1.6017143426691915,10.0501993355482
1.6027110535233726,10.0501993355482
1.603707764377554,9.0501993355482
1.6047044752317352,12.0501993355482
1.6057011860859163,8.0501993355482
1.6066978969400976,4.0501993355482
1.6076946077942786,5.0501993355482
1.60869131864846,1.0501993355482
1.6096880295026412,-1.9498006644518
1.6106847403568223,-6.9498006644518
1.6116814512110036,-8.9498006644518
1.6126781620651847,-13.9498006644518
1.613674872919366,-12.9498006644518
1.6146715837735472,-12.9498006644518
1.6156682946277283,-10.9498006644518
1.6166650054819096,-1.9498006644518
1.6176617163360907,-1.9498006644518
1.618658427190272,-2.9498006644518
1.619655138044453,3.0501993355482
1.6206518488986343,6.0501993355482
1.6216485597528156,7.0501993355482
1.6226452706069967,14.0501993355482
1.623641981461178,9.0501993355482
1.624638692315359,12.0501993355482
1.6256354031695404,8.0501993355482
1.6266321140237217,8.0501993355482
1.6276288248779027,7.0501993355482
1.628625535732084,1.0501993355482
1.629622246586265,-1.9498006644518
1.6306189574404464,-4.9498006644518
1.6316156682946277,-9.9498006644518
1.6326123791488087,-12.9498006644518
1.63360909000299,-15.9498006644518
1.634605800857171,-10.9498006644518
1.6356025117113524,-5.9498006644518
1.6365992225655337,-5.9498006644518
1.6375959334197148,-5.9498006644518
1.638592644273896,-1.9498006644518
1.6395893551280771,3.0501993355482
1.6405860659822584,5.0501993355482
1.6415827768364395,8.0501993355482
1.6425794876906208,8.0501993355482
1.643576198544802,12.0501993355482
1.6445729093989832,11.0501993355482
1.6455696202531644,7.0501993355482
1.6465663311073455,9.0501993355482
1.6475630419615268,4.0501993355482
1.648559752815708,0.0501993355482
1.6495564636698892,0.0501993355482
1.6505531745240705,-7.9498006644518
1.6515498853782515,-9.9498006644518
1.6525465962324328,-11.9498006644518
1.6535433070866141,-12.9498006644518
1.6545400179407952,-11.9498006644518
1.6555367287949765,-4.9498006644518
1.6565334396491576,-4.9498006644518
1.6575301505033389,-4.9498006644518
1.6585268613575201,1.0501993355482
1.6595235722117012,2.0501993355482
1.6605202830658825,3.0501993355482
1.6615169939200636,7.0501993355482
1.6625137047742449,9.0501993355482
1.663510415628426,11.0501993355482
1.6645071264826072,14.0501993355482
1.6655038373367885,8.0501993355482
1.6665005481909696,6.0501993355482
1.667497259045151,6.0501993355482
1.668493969899332,0.0501993355482
1.6694906807535133,-1.9498006644518
1.6704873916076945,-5.9498006644518
1.6714841024618756,-8.9498006644518
1.672480813316057,-10.9498006644518
1.673477524170238,-13.9498006644518
1.6744742350244193,-11.9498006644518
1.6754709458786006,-8.9498006644518
1.6764676567327816,-6.9498006644518
1.677464367586963,-3.9498006644518
1.678461078441144,-1.9498006644518
1.6794577892953253,4.0501993355482
1.6804545001495064,8.0501993355482
1.6814512110036877,9.0501993355482
1.682447921857869,8.0501993355482
1.68344463271205,14.0501993355482
1.6844413435662313,9.0501993355482
1.6854380544204124,5.0501993355482
1.6864347652745937,8.0501993355482
1.687431476128775,11.0501993355482
1.688428186982956,-2.9498006644518
1.6894248978371373,-1.9498006644518
1.6904216086913184,-5.9498006644518
1.6914183195454997,-4.9498006644518
1.692415030399681,-15.9498006644518
1.693411741253862,-13.9498006644518
1.6944084521080434,-3.9498006644518
1.6954051629622244,-8.9498006644518
1.6964018738164057,-5.9498006644518
1.697398584670587,-3.9498006644518
1.698395295524768,-1.9498006644518
1.6993920063789494,3.0501993355482
1.7003887172331305,7.0501993355482
1.7013854280873117,9.0501993355482
1.7023821389414928,11.0501993355482
1.703378849795674,7.0501993355482
1.7043755606498554,8.0501993355482
1.7053722715040365,11.0501993355482
1.7063689823582178,6.0501993355482
1.7073656932123988,5.0501993355482
1.7083624040665801,4.0501993355482
1.7093591149207614,-2.9498006644518
1.7103558257749425,-7.9498006644518
1.7113525366291238,-7.9498006644518
1.7123492474833049,-10.9498006644518
1.7133459583374862,-12.9498006644518
1.7143426691916674,-6.9498006644518
1.7153393800458485,-12.9498006644518
1.7163360909000298,-8.9498006644518
1.7173328017542109,-4.9498006644518
1.7183295126083922,-1.9498006644518
1.7193262234625732,7.0501993355482
1.7203229343167545,5.0501993355482
1.7213196451709358,12.0501993355482
1.722316356025117,13.0501993355482
1.7233130668792982,9.0501993355482
1.7243097777334793,11.0501993355482
1.7253064885876606,6.0501993355482
1.7263031994418419,5.0501993355482
1.727299910296023,5.0501993355482
1.7282966211502042,-0.9498006644518
1.7292933320043853,-1.9498006644518
1.7302900428585666,-5.9498006644518
1.7312867537127479,-7.9498006644518
1.732283464566929,-11.9498006644518
1.7332801754211102,-10.9498006644518
1.7342768862752913,-12.9498006644518
1.7352735971294726,-11.9498006644518
1.736270307983654,-5.9498006644518
1.737267018837835,-3.9498006644518
1.7382637296920163,3.0501993355482
1.7392604405461973,2.0501993355482
1.7402571514003786,5.0501993355482
1.7412538622545597,9.0501993355482
1.742250573108741,8.0501993355482
1.7432472839629223,10.0501993355482
1.7442439948171033,13.0501993355482
1.7452407056712846,7.0501993355482
1.7462374165254657,5.0501993355482
1.747234127379647,5.0501993355482
1.7482308382338283,1.0501993355482
1.7492275490880094,0.0501993355482
1.7502242599421907,-4.9498006644518
1.7512209707963717,-7.9498006644518
1.752217681650553,-13.9498006644518
1.7532143925047343,-12.9498006644518
1.7542111033589154,-8.9498006644518
1.7552078142130967,-7.9498006644518
1.7562045250672778,-4.9498006644518
1.757201235921459,-2.9498006644518
1.7581979467756401,4.0501993355482
1.7591946576298214,2.0501993355482
1.7601913684840027,4.0501993355482
1.7611880793381838,9.0501993355482
1.762184790192365,9.0501993355482
1.7631815010465461,11.0501993355482
1.7641782119007274,12.0501993355482
1.7651749227549087,4.0501993355482
1.7661716336090898,3.0501993355482
1.767168344463271,6.0501993355482
1.7681650553174522,-1.9498006644518
1.7691617661716335,1.0501993355482
1.7701584770258147,-1.9498006644518
1.7711551878799958,-8.9498006644518
1.7721518987341771,-11.9498006644518
1.7731486095883582,-13.9498006644518
1.7741453204425395,-10.9498006644518
1.7751420312967208,-4.9498006644518
1.7761387421509018,-6.9498006644518
1.7771354530050831,-1.9498006644518
1.7781321638592642,-2.9498006644518
1.7791288747134455,1.0501993355482
1.7801255855676266,6.0501993355482
1.7811222964218079,8.0501993355482
1.7821190072759892,9.0501993355482
1.7831157181301702,12.0501993355482
1.7841124289843515,9.0501993355482
1.7851091398385326,7.0501993355482
1.7861058506927139,5.0501993355482
1.7871025615468952,5.0501993355482
1.7880992724010762,3.0501993355482
1.7890959832552575,1.0501993355482
1.7900926941094386,-8.9498006644518
1.79108940496362,-10.9498006644518
1.7920861158178012,-11.9498006644518
1.7930828266719823,-15.9498006644518
1.7940795375261636,-7.9498006644518
1.7950762483803446,-6.9498006644518
1.796072959234526,-4.9498006644518
1.797069670088707,-3.9498006644518
1.7980663809428883,0.0501993355482
1.7990630917970696,5.0501993355482
1.8000598026512507,7.0501993355482
1.801056513505432,9.0501993355482
1.802053224359613,11.0501993355482
1.8030499352137943,8.0501993355482
1.8040466460679756,12.0501993355482
1.8050433569221567,9.0501993355482
1.806040067776338,8.0501993355482
1.807036778630519,5.0501993355482
1.8080334894847003,0.0501993355482
1.8090302003388816,-4.9498006644518
1.8100269111930627,-7.9498006644518
1.811023622047244,-9.9498006644518
1.812020332901425,-11.9498006644518
1.8130170437556064,-11.9498006644518
1.8140137546097876,-13.9498006644518
1.8150104654639687,-7.9498006644518
1.81600717631815,-5.9498006644518
1.817003887172331,-3.9498006644518
1.8180005980265124,-1.9498006644518
1.8189973088806934,2.0501993355482
1.8199940197348747,5.0501993355482
1.820990730589056,9.0501993355482
1.821987441443237,11.0501993355482
1.8229841522974184,9.0501993355482
1.8239808631515995,9.0501993355482
1.8249775740057808,8.0501993355482
1.825974284859962,7.0501993355482
1.8269709957141431,5.0501993355482
1.8279677065683244,0.0501993355482
1.8289644174225055,-3.9498006644518
1.8299611282766868,-2.9498006644518
1.830957839130868,-9.9498006644518
1.8319545499850491,-11.9498006644518
1.8329512608392304,-12.9498006644518
1.8339479716934115,-8.9498006644518
1.8349446825475928,-9.9498006644518
1.8359413934017739,-4.9498006644518
1.8369381042559552,-2.9498006644518
1.8379348151101365,0.0501993355482
1.8389315259643175,6.0501993355482
1.8399282368184988,4.0501993355482
1.84092494767268,8.0501993355482
1.8419216585268612,10.0501993355482
1.8429183693810425,9.0501993355482
1.8439150802352235,9.0501993355482
1.8449117910894048,6.0501993355482
1.845908501943586,7.0501993355482
1.8469052127977672,7.0501993355482
1.8479019236519485,1.0501993355482
1.8488986345061296,-0.9498006644518
1.8498953453603109,-4.9498006644518
1.850892056214492,-9.9498006644518
1.8518887670686732,-11.9498006644518
1.8528854779228545,-12.9498006644518
1.8538821887770356,-11.9498006644518
1.8548788996312169,-7.9498006644518
1.855875610485398,-4.9498006644518
1.8568723213395792,-5.9498006644518
1.8578690321937603,1.0501993355482
1.8588657430479416,3.0501993355482
1.859862453902123,0.0501993355482
1.860859164756304,9.0501993355482
1.8618558756104853,10.0501993355482
1.8628525864646663,12.0501993355482
1.8638492973188476,13.0501993355482
1.864846008173029,6.0501993355482
1.86584271902721,5.0501993355482
1.8668394298813913,6.0501993355482
1.8678361407355724,1.0501993355482
1.8688328515897537,-1.9498006644518
1.869829562443935,-3.9498006644518
1.870826273298116,-7.9498006644518
1.8718229841522973,-10.9498006644518
1.8728196950064784,-13.9498006644518
1.8738164058606597,-10.9498006644518
1.8748131167148407,-7.9498006644518
1.875809827569022,-5.9498006644518
1.8768065384232033,-5.9498006644518
1.8778032492773844,-2.9498006644518
1.8787999601315657,3.0501993355482
1.8797966709857468,9.0501993355482
1.880793381839928,10.0501993355482
1.8817900926941094,13.0501993355482
1.8827868035482904,12.0501993355482
1.8837835144024717,12.0501993355482
1.8847802252566528,5.0501993355482
1.885776936110834,6.0501993355482
1.8867736469650154,8.0501993355482
1.8877703578191964,-1.9498006644518
1.8887670686733777,-0.9498006644518
1.8897637795275588,-5.9498006644518
1.89076049038174,-7.9498006644518
1.8917572012359214,-14.9498006644518
1.8927539120901025,-14.9498006644518
1.8937506229442838,-9.9498006644518
1.8947473337984648,-6.9498006644518
1.8957440446526461,-1.9498006644518
1.8967407555068272,-1.9498006644518
1.8977374663610085,-1.9498006644518
1.8987341772151898,3.0501993355482
1.8997308880693708,6.0501993355482
1.9007275989235521,9.0501993355482
1.9017243097777332,11.0501993355482
1.9027210206319145,9.0501993355482
1.9037177314860958,10.0501993355482
1.9047144423402769,11.0501993355482
1.9057111531944582,7.0501993355482
1.9067078640486392,2.0501993355482
1.9077045749028205,2.0501993355482
1.9087012857570018,-4.9498006644518
1.909697996611183,-7.9498006644518
1.9106947074653642,-8.9498006644518
1.9116914183195453,-11.9498006644518
1.9126881291737265,-13.9498006644518
1.9136848400279076,-7.9498006644518
1.914681550882089,-9.9498006644518
1.9156782617362702,-6.9498006644518
1.9166749725904513,-3.9498006644518
1.9176716834446326,-0.9498006644518
1.9186683942988136,3.0501993355482
1.919665105152995,4.0501993355482
1.9206618160071762,10.0501993355482
1.9216585268613573,12.0501993355482
1.9226552377155386,11.0501993355482
1.9236519485697197,11.0501993355482
1.924648659423901,9.0501993355482
1.9256453702780822,8.0501993355482
1.9266420811322633,4.0501993355482
1.9276387919864446,1.0501993355482
1.9286355028406257,-0.9498006644518
1.929632213694807,-4.9498006644518
1.9306289245489883,-7.9498006644518
1.9316256354031693,-11.9498006644518
1.9326223462573506,-11.9498006644518
1.9336190571115317,-14.9498006644518
1.934615767965713,-9.9498006644518
1.935612478819894,-3.9498006644518
1.9366091896740754,2.0501993355482
1.9376059005282567,1.0501993355482
1.9386026113824377,7.0501993355482
1.939599322236619,2.0501993355482
1.9405960330908,8.0501993355482
1.9415927439449814,8.0501993355482
1.9425894547991627,8.0501993355482
1.9435861656533437,12.0501993355482
1.944582876507525,9.0501993355482
1.945579587361706,10.0501993355482
1.9465762982158874,4.0501993355482
1.9475730090700687,-1.9498006644518
1.9485697199242498,-1.9498006644518
1.949566430778431,-4.9498006644518
1.9505631416326121,-10.9498006644518
1.9515598524867934,-10.9498006644518
1.9525565633409747,-14.9498006644518
1.9535532741951558,-9.9498006644518
1.954549985049337,-9.9498006644518
1.9555466959035182,-6.9498006644518
1.9565434067576994,-3.9498006644518
1.9575401176118805,3.0501993355482
1.9585368284660618,2.0501993355482
1.959533539320243,4.0501993355482
1.9605302501744242,11.0501993355482
1.9615269610286055,12.0501993355482
1.9625236718827865,11.0501993355482
1.9635203827369678,10.0501993355482
1.9645170935911491,6.0501993355482
1.9655138044453302,7.0501993355482
1.9665105152995115,5.0501993355482
1.9675072261536926,3.0501993355482
1.9685039370078738,-0.9498006644518
1.9695006478620551,-5.9498006644518
1.9704973587162362,-7.9498006644518
1.9714940695704175,-10.9498006644518
1.9724907804245986,-15.9498006644518
1.9734874912787799,-10.9498006644518
1.974484202132961,-7.9498006644518
1.9754809129871422,-5.9498006644518
1.9764776238413235,-1.9498006644518
1.9774743346955046,-2.9498006644518
1.978471045549686,3.0501993355482
1.979467756403867,7.0501993355482
1.9804644672580483,8.0501993355482
1.9814611781122295,9.0501993355482
1.9824578889664106,11.0501993355482
1.983454599820592,8.0501993355482
1.984451310674773,5.0501993355482
1.9854480215289543,6.0501993355482
1.9864447323831356,6.0501993355482
1.9874414432373166,1.0501993355482
1.988438154091498,-0.9498006644518
1.989434864945679,-4.9498006644518
1.9904315757998603,-8.9498006644518
1.9914282866540416,-14.9498006644518
1.9924249975082227,-13.9498006644518
1.993421708362404,-7.9498006644518
1.994418419216585,-7.9498006644518
1.9954151300707663,-6.9498006644518
1.9964118409249474,-5.9498006644518
1.9974085517791287,-1.9498006644518
1.99840526263331,5.0501993355482
1.999401973487491,8.0501993355482
2.0003986843416723,11.0501993355482
2.0013953951958534,9.0501993355482
2.0023921060500345,8.0501993355482
2.003388816904216,12.0501993355482
2.004385527758397,9.0501993355482
2.005382238612578,7.0501993355482
2.0063789494667597,4.0501993355482
2.0073756603209407,2.0501993355482
2.008372371175122,-2.9498006644518
2.0093690820293033,-4.9498006644518
2.0103657928834844,-8.9498006644518
2.0113625037376655,-14.9498006644518
2.0123592145918465,-14.9498006644518
2.013355925446028,-7.9498006644518
2.014352636300209,-10.9498006644518
2.01534934715439,-7.9498006644518
2.0163460580085717,-0.9498006644518
2.0173427688627528,0.0501993355482
2.018339479716934,3.0501993355482
2.0193361905711154,6.0501993355482
2.0203329014252964,8.0501993355482
2.0213296122794775,10.0501993355482
2.0223263231336586,9.0501993355482
2.02332303398784,9.0501993355482
2.024319744842021,8.0501993355482
2.0253164556962022,7.0501993355482
2.0263131665503837,5.0501993355482
2.027309877404565,1.0501993355482
2.028306588258746,-0.9498006644518
2.029303299112927,-1.9498006644518
2.0303000099671085,-6.9498006644518
2.0312967208212895,-12.9498006644518
2.0322934316754706,-13.9498006644518
2.033290142529652,-12.9498006644518
2.034286853383833,-9.9498006644518
2.0352835642380143,-3.9498006644518
2.036280275092196,-5.9498006644518
2.037276985946377,0.0501993355482
2.038273696800558,4.0501993355482
2.039270407654739,6.0501993355482
2.0402671185089205,12.0501993355482
2.0412638293631016,9.0501993355482
2.0422605402172826,10.0501993355482
2.043257251071464,14.0501993355482
2.0442539619256452,7.0501993355482
2.0452506727798263,4.0501993355482
2.0462473836340074,6.0501993355482
2.047244094488189,1.0501993355482
2.04824080534237,-4.9498006644518
2.049237516196551,-4.9498006644518
2.0502342270507325,-10.9498006644518
2.0512309379049136,-10.9498006644518
2.0522276487590947,-13.9498006644518
2.053224359613276,-12.9498006644518
2.0542210704674573,-9.9498006644518
2.0552177813216383,-2.9498006644518
2.0562144921758194,-3.9498006644518
2.057211203030001,1.0501993355482
2.058207913884182,2.0501993355482
2.059204624738363,3.0501993355482
2.0602013355925446,9.0501993355482
2.0611980464467257,14.0501993355482
2.0621947573009067,9.0501993355482
2.063191468155088,14.0501993355482
2.0641881790092693,6.0501993355482
2.0651848898634504,6.0501993355482
2.0661816007176315,5.0501993355482
2.067178311571813,1.0501993355482
2.068175022425994,-2.9498006644518
2.069171733280175,-6.9498006644518
2.0701684441343566,-9.9498006644518
2.0711651549885377,-11.9498006644518
2.0721618658427188,-14.9498006644518
2.0731585766969,-9.9498006644518
2.0741552875510814,-7.9498006644518
2.0751519984052624,-6.9498006644518
2.0761487092594435,-2.9498006644518
2.077145420113625,0.0501993355482
2.078142130967806,1.0501993355482
2.079138841821987,8.0501993355482
2.0801355526761687,9.0501993355482
2.0811322635303497,9.0501993355482
2.082128974384531,12.0501993355482
2.083125685238712,11.0501993355482
2.0841223960928934,5.0501993355482
2.0851191069470745,5.0501993355482
2.0861158178012555,2.0501993355482
2.087112528655437,0.0501993355482
2.088109239509618,3.0501993355482
2.089105950363799,-7.9498006644518
2.0901026612179803,-11.9498006644518
2.091099372072162,-9.9498006644518
2.092096082926343,-13.9498006644518
2.093092793780524,-12.9498006644518
2.0940895046347054,-7.9498006644518
2.0950862154888865,-2.9498006644518
2.0960829263430676,-4.9498006644518
2.097079637197249,-1.9498006644518
2.09807634805143,1.0501993355482
2.0990730589056112,6.0501993355482
2.1000697697597923,8.0501993355482
2.101066480613974,12.0501993355482
2.102063191468155,11.0501993355482
2.103059902322336,12.0501993355482
2.1040566131765175,6.0501993355482
2.1050533240306986,7.0501993355482
2.1060500348848796,5.0501993355482
2.1070467457390607,4.0501993355482
2.108043456593242,-5.9498006644518
2.1090401674474233,-7.9498006644518
2.1100368783016044,-11.9498006644518
2.111033589155786,-13.9498006644518
2.112030300009967,-11.9498006644518
2.113027010864148,-9.9498006644518
2.1140237217183295,-11.9498006644518
2.1150204325725106,-6.9498006644518
2.1160171434266917,-3.9498006644518
2.1170138542808727,-0.9498006644518
2.1180105651350543,10.0501993355482
2.1190072759892353,5.0501993355482
2.1200039868434164,7.0501993355482
2.121000697697598,8.0501993355482
2.121997408551779,12.0501993355482
2.12299411940596,12.0501993355482
2.123990830260141,7.0501993355482
2.1249875411143226,6.0501993355482
2.1259842519685037,4.0501993355482
2.126980962822685,0.0501993355482
2.1279776736768663,-2.9498006644518
2.1289743845310474,-2.9498006644518
2.1299710953852284,-10.9498006644518
2.13096780623941,-13.9498006644518
2.131964517093591,-11.9498006644518
2.132961227947772,-14.9498006644518
2.133957938801953,-9.9498006644518
2.1349546496561347,-2.9498006644518
2.1359513605103158,-3.9498006644518
2.136948071364497,1.0501993355482
2.1379447822186783,7.0501993355482
2.1389414930728594,4.0501993355482
2.1399382039270405,9.0501993355482
2.1409349147812216,12.0501993355482
2.141931625635403,10.0501993355482
2.142928336489584,8.0501993355482
2.143925047343765,8.0501993355482
2.1449217581979467,7.0501993355482
2.145918469052128,3.0501993355482
2.146915179906309,1.0501993355482
2.1479118907604904,-2.9498006644518
2.1489086016146715,-6.9498006644518
2.1499053124688525,-10.9498006644518
2.1509020233230336,-12.9498006644518
2.151898734177215,-14.9498006644518
2.152895445031396,-10.9498006644518
2.1538921558855773,-6.9498006644518
2.1548888667397588,-6.9498006644518
2.15588557759394,-2.9498006644518
2.156882288448121,1.0501993355482
2.1578789993023024,4.0501993355482
2.1588757101564835,4.0501993355482
2.1598724210106646,10.0501993355482
2.1608691318648456,10.0501993355482
2.161865842719027,14.0501993355482
2.1628625535732082,11.0501993355482
2.1638592644273893,6.0501993355482
2.164855975281571,8.0501993355482
2.165852686135752,4.0501993355482
2.166849396989933,1.0501993355482
2.167846107844114,1.0501993355482
2.1688428186982955,-4.9498006644518
2.1698395295524766,-8.9498006644518
2.1708362404066577,-10.9498006644518
2.171832951260839,-13.9498006644518
2.1728296621150203,-11.9498006644518
2.1738263729692013,-4.9498006644518
2.174823083823383,-3.9498006644518
2.175819794677564,-4.9498006644518
2.176816505531745,-3.9498006644518
2.177813216385926,4.0501993355482
2.1788099272401076,7.0501993355482
2.1798066380942887,9.0501993355482
2.1808033489484697,12.0501993355482
2.1818000598026512,12.0501993355482
2.1827967706568323,10.0501993355482
2.1837934815110134,6.0501993355482
2.1847901923651945,6.0501993355482
2.185786903219376,6.0501993355482
2.186783614073557,-2.9498006644518
2.187780324927738,1.0501993355482
2.1887770357819196,-5.9498006644518
2.1897737466361007,-10.9498006644518
2.1907704574902818,-12.9498006644518
2.1917671683444633,-12.9498006644518
2.1927638791986444,-11.9498006644518
2.1937605900528254,-6.9498006644518
2.1947573009070065,-6.9498006644518
2.195754011761188,-3.9498006644518
2.196750722615369,1.0501993355482
2.19774743346955,4.0501993355482
2.1987441443237317,4.0501993355482
2.1997408551779127,9.0501993355482
2.200737566032094,11.0501993355482
2.201734276886275,9.0501993355482
2.2027309877404564,10.0501993355482
2.2037276985946375,9.0501993355482
2.2047244094488185,9.0501993355482
2.205721120303,6.0501993355482
2.206717831157181,1.0501993355482
2.207714542011362,-3.9498006644518
2.2087112528655437,-6.9498006644518
2.2097079637197248,-6.9498006644518
2.210704674573906,-7.9498006644518
2.211701385428087,-12.9498006644518
2.2126980962822684,-9.9498006644518
2.2136948071364495,-8.9498006644518
2.2146915179906306,-4.9498006644518
2.215688228844812,-2.9498006644518
2.216684939698993,0.0501993355482
2.2176816505531742,4.0501993355482
2.2186783614073553,5.0501993355482
2.219675072261537,9.0501993355482
2.220671783115718,10.0501993355482
2.221668493969899,9.0501993355482
2.2226652048240805,8.0501993355482
2.2236619156782615,8.0501993355482
2.2246586265324426,6.0501993355482
2.225655337386624,6.0501993355482
2.226652048240805,-0.9498006644518
2.2276487590949863,-3.9498006644518
2.2286454699491673,-7.9498006644518
2.229642180803349,-8.9498006644518
2.23063889165753,-11.9498006644518
2.231635602511711,-9.9498006644518
2.2326323133658925,-12.9498006644518
2.2336290242200736,-11.9498006644518
2.2346257350742547,-6.9498006644518
2.235622445928436,-3.9498006644518
2.2366191567826172,3.0501993355482
2.2376158676367983,5.0501993355482
2.2386125784909794,6.0501993355482
2.239609289345161,11.0501993355482
2.240606000199342,8.0501993355482
2.241602711053523,7.0501993355482
2.2425994219077046,12.0501993355482
2.2435961327618856,6.0501993355482
2.2445928436160667,8.0501993355482
2.2455895544702478,7.0501993355482
2.2465862653244293,-0.9498006644518
2.2475829761786104,-1.9498006644518
2.2485796870327914,-4.9498006644518
2.249576397886973,-10.9498006644518
2.250573108741154,-12.9498006644518
2.251569819595335,-13.9498006644518
2.2525665304495166,-11.9498006644518
2.2535632413036977,-8.9498006644518
2.2545599521578787,-4.9498006644518
2.25555666301206,-2.9498006644518
2.2565533738662413,0.0501993355482
2.2575500847204224,5.0501993355482
2.2585467955746035,6.0501993355482
2.259543506428785,11.0501993355482
2.260540217282966,13.0501993355482
2.261536928137147,9.0501993355482
2.262533638991328,12.0501993355482
2.2635303498455097,8.0501993355482
2.264527060699691,8.0501993355482
2.265523771553872,4.0501993355482
2.2665204824080534,-2.9498006644518
2.2675171932622344,-2.9498006644518
2.2685139041164155,-5.9498006644518
2.269510614970597,-7.9498006644518
2.270507325824778,-12.9498006644518
2.271504036678959,-15.9498006644518
2.2725007475331402,-11.9498006644518
2.2734974583873218,-7.9498006644518
2.274494169241503,-5.9498006644518
2.275490880095684,-0.9498006644518
2.2764875909498654,0.0501993355482
2.2774843018040465,5.0501993355482
2.2784810126582276,4.0501993355482
2.2794777235124086,9.0501993355482
2.28047443436659,14.0501993355482
2.281471145220771,8.0501993355482
2.2824678560749523,12.0501993355482
2.283464566929134,4.0501993355482
2.284461277783315,5.0501993355482
2.285457988637496,3.0501993355482
2.2864546994916775,2.0501993355482
2.2874514103458585,-3.9498006644518
2.2884481212000396,-6.9498006644518
2.2894448320542207,-9.9498006644518
2.290441542908402,-11.9498006644518
2.2914382537625833,-11.9498006644518
2.2924349646167643,-11.9498006644518
2.293431675470946,-6.9498006644518
2.294428386325127,-2.9498006644518
2.295425097179308,-4.9498006644518
2.2964218080334895,0.0501993355482
2.2974185188876706,8.0501993355482
2.2984152297418516,1.0501993355482
2.2994119405960327,9.0501993355482
2.3004086514502142,14.0501993355482
2.3014053623043953,10.0501993355482
2.3024020731585764,8.0501993355482
2.303398784012758,8.0501993355482
2.304395494866939,8.0501993355482
2.30539220572112,6.0501993355482
2.306388916575301,1.0501993355482
2.3073856274294826,0.0501993355482
2.3083823382836637,-7.9498006644518
2.3093790491378448,-11.9498006644518
2.3103757599920263,-11.9498006644518
2.3113724708462073,-9.9498006644518
2.3123691817003884,-9.9498006644518
2.31336589255457,-10.9498006644518
2.314362603408751,-2.9498006644518
2.315359314262932,-4.9498006644518
2.316356025117113,-1.9498006644518
2.3173527359712947,5.0501993355482
2.3183494468254757,6.0501993355482
2.319346157679657,9.0501993355482
2.3203428685338383,12.0501993355482
2.3213395793880194,11.0501993355482
2.3223362902422005,11.0501993355482
2.3233330010963815,8.0501993355482
2.324329711950563,6.0501993355482
2.325326422804744,4.0501993355482
2.326323133658925,-1.9498006644518
2.3273198445131067,-1.9498006644518
2.3283165553672878,-7.9498006644518
2.329313266221469,-10.9498006644518
2.3303099770756504,-12.9498006644518
2.3313066879298314,-12.9498006644518
2.3323033987840125,-11.9498006644518
2.3333001096381936,-4.9498006644518
2.334296820492375,-3.9498006644518
2.335293531346556,-1.9498006644518
2.336290242200737,-1.9498006644518
2.3372869530549187,9.0501993355482
2.3382836639091,5.0501993355482
2.339280374763281,10.0501993355482
2.340277085617462,10.0501993355482
2.3412737964716435,11.0501993355482
2.3422705073258245,8.0501993355482
2.3432672181800056,6.0501993355482
2.344263929034187,6.0501993355482
2.345260639888368,6.0501993355482
2.3462573507425493,1.0501993355482
2.347254061596731,-2.9498006644518
2.348250772450912,-2.9498006644518
2.349247483305093,-9.9498006644518
2.350244194159274,-13.9498006644518
2.3512409050134555,-15.9498006644518
2.3522376158676366,-12.9498006644518
2.3532343267218176,-3.9498006644518
2.354231037575999,-2.9498006644518
2.3552277484301802,-5.9498006644518
2.3562244592843613,1.0501993355482
2.3572211701385424,1.0501993355482
2.358217880992724,3.0501993355482
2.359214591846905,8.0501993355482
2.360211302701086,12.0501993355482
2.3612080135552675,9.0501993355482
2.3622047244094486,7.0501993355482
2.3632014352636297,6.0501993355482
2.364198146117811,8.0501993355482
2.3651948569719923,2.0501993355482
2.3661915678261733,0.0501993355482
2.3671882786803544,-1.9498006644518
2.368184989534536,-6.9498006644518
2.369181700388717,-7.9498006644518
2.370178411242898,-12.9498006644518
2.3711751220970796,-11.9498006644518
2.3721718329512607,-7.9498006644518
2.3731685438054417,-9.9498006644518
2.3741652546596232,-4.9498006644518
2.3751619655138043,-2.9498006644518
2.3761586763679854,1.0501993355482
2.3771553872221665,4.0501993355482
2.378152098076348,6.0501993355482
2.379148808930529,8.0501993355482
2.38014551978471,9.0501993355482
2.3811422306388916,14.0501993355482
2.3821389414930727,9.0501993355482
2.3831356523472538,5.0501993355482
2.384132363201435,8.0501993355482
2.3851290740556164,3.0501993355482
2.3861257849097974,-0.9498006644518
2.3871224957639785,1.0501993355482
2.38811920661816,-6.9498006644518
2.389115917472341,-8.9498006644518
2.390112628326522,-10.9498006644518
2.3911093391807037,-14.9498006644518
2.3921060500348847,-8.9498006644518
2.393102760889066,-4.9498006644518
2.394099471743247,-4.9498006644518
2.3950961825974284,-1.9498006644518
2.3960928934516095,-0.9498006644518
2.3970896043057905,4.0501993355482
2.398086315159972,8.0501993355482
2.399083026014153,7.0501993355482
2.400079736868334,12.0501993355482
2.4010764477225153,9.0501993355482
2.402073158576697,12.0501993355482
2.403069869430878,8.0501993355482
2.404066580285059,6.0501993355482
2.4050632911392404,4.0501993355482
2.4060600019934215,0.0501993355482
2.4070567128476026,-4.9498006644518
2.408053423701784,-9.9498006644518
2.409050134555965,-8.9498006644518
2.4100468454101462,-10.9498006644518
2.4110435562643273,-11.9498006644518
2.412040267118509,-10.9498006644518
2.41303697797269,-4.9498006644518
2.414033688826871,-3.9498006644518
2.4150303996810525,-1.9498006644518
2.4160271105352336,0.0501993355482
2.4170238213894146,6.0501993355482
2.4180205322435957,3.0501993355482
2.419017243097777,9.0501993355482
2.4200139539519583,13.0501993355482
2.4210106648061394,8.0501993355482
2.422007375660321,14.0501993355482
2.423004086514502,4.0501993355482
2.424000797368683,5.0501993355482
2.4249975082228645,2.0501993355482
2.4259942190770456,-1.9498006644518
2.4269909299312267,-2.9498006644518
2.4279876407854077,-3.9498006644518
2.4289843516395893,-9.9498006644518
2.4299810624937703,-12.9498006644518
2.4309777733479514,-13.9498006644518
2.431974484202133,-11.9498006644518
2.432971195056314,-6.9498006644518
2.433967905910495,-2.9498006644518
2.434964616764676,-2.9498006644518
2.4359613276188576,1.0501993355482
2.4369580384730387,5.0501993355482
2.43795474932722,8.0501993355482
2.4389514601814013,9.0501993355482
2.4399481710355824,13.0501993355482
2.4409448818897634,10.0501993355482
2.441941592743945,9.0501993355482
2.442938303598126,8.0501993355482
2.443935014452307,4.0501993355482
2.444931725306488,5.0501993355482
2.4459284361606697,1.0501993355482
2.4469251470148508,-1.9498006644518
2.447921857869032,-6.9498006644518
2.4489185687232133,-10.9498006644518
2.4499152795773944,-9.9498006644518
2.4509119904315755,-12.9498006644518
2.451908701285757,-10.9498006644518
2.452905412139938,-4.9498006644518
2.453902122994119,-3.9498006644518
2.4548988338483,-1.9498006644518
2.4558955447024817,1.0501993355482
2.456892255556663,2.0501993355482
2.457888966410844,4.0501993355482
2.4588856772650254,8.0501993355482
2.4598823881192065,7.0501993355482
2.4608790989733875,14.0501993355482
2.4618758098275686,11.0501993355482
2.46287252068175,4.0501993355482
2.463869231535931,6.0501993355482
2.4648659423901123,4.0501993355482
2.4658626532442938,0.0501993355482
2.466859364098475,-0.9498006644518
2.467856074952656,-9.9498006644518
2.4688527858068374,-11.9498006644518
2.4698494966610185,-14.9498006644518
2.4708462075151996,-11.9498006644518
2.4718429183693806,-10.9498006644518
2.472839629223562,-4.9498006644518
2.4738363400777432,-6.9498006644518
2.4748330509319243,-0.9498006644518
2.475829761786106,0.0501993355482
2.476826472640287,6.0501993355482
2.477823183494468,8.0501993355482
2.478819894348649,11.0501993355482
2.4798166052028305,8.0501993355482
2.4808133160570116,12.0501993355482
2.4818100269111927,8.0501993355482
2.482806737765374,7.0501993355482
2.4838034486195553,6.0501993355482
2.4848001594737363,3.0501993355482
2.485796870327918,0.0501993355482
2.486793581182099,-1.9498006644518
2.48779029203628,-7.9498006644518
2.488787002890461,-9.9498006644518
2.4897837137446426,-11.9498006644518
2.4907804245988237,-12.9498006644518
2.4917771354530047,-9.9498006644518
2.4927738463071862,-5.9498006644518
2.4937705571613673,-4.9498006644518
2.4947672680155484,-0.9498006644518
2.4957639788697294,1.0501993355482
2.496760689723911,6.0501993355482
2.497757400578092,5.0501993355482
2.498754111432273,8.0501993355482
2.4997508222864546,12.0501993355482
2.5007475331406357,11.0501993355482
2.5017442439948168,9.0501993355482
2.5027409548489983,8.0501993355482
2.5037376657031793,8.0501993355482
2.5047343765573604,6.0501993355482
2.5057310874115415,1.0501993355482
2.506727798265723,-4.9498006644518
2.507724509119904,-10.9498006644518
2.508721219974085,-10.9498006644518
2.5097179308282667,-12.9498006644518
2.5107146416824477,-11.9498006644518
2.511711352536629,-7.9498006644518
2.51270806339081,-10.9498006644518
2.5137047742449914,-5.9498006644518
2.5147014850991725,-1.9498006644518
2.5156981959533535,-0.9498006644518
2.516694906807535,3.0501993355482
2.517691617661716,5.0501993355482
2.518688328515897,11.0501993355482
2.5196850393700787,12.0501993355482
2.5206817502242598,11.0501993355482
2.521678461078441,11.0501993355482
2.522675171932622,5.0501993355482
2.5236718827868034,6.0501993355482
2.5246685936409845,6.0501993355482
2.5256653044951656,0.0501993355482
2.526662015349347,0.0501993355482
2.527658726203528,-5.9498006644518
2.5286554370577092,-11.9498006644518
2.5296521479118907,-14.9498006644518
2.530648858766072,-10.9498006644518
2.531645569620253,-11.9498006644518
2.532642280474434,-6.9498006644518
2.5336389913286155,-6.9498006644518
2.5346357021827965,-4.9498006644518
2.5356324130369776,1.0501993355482
2.536629123891159,4.0501993355482
2.53762583474534,2.0501993355482
2.5386225455995213,9.0501993355482
2.5396192564537023,8.0501993355482
2.540615967307884,12.0501993355482
2.541612678162065,12.0501993355482
2.542609389016246,9.0501993355482
2.5436060998704275,7.0501993355482
2.5446028107246086,2.0501993355482
2.5455995215787897,-1.9498006644518
2.546596232432971,-2.9498006644518
2.5475929432871522,-7.9498006644518
2.5485896541413333,-7.9498006644518
2.5495863649955144,-10.9498006644518
2.550583075849696,-14.9498006644518
2.551579786703877,-10.9498006644518
2.552576497558058,-5.9498006644518
2.5535732084122396,-3.9498006644518
2.5545699192664206,-4.9498006644518
2.5555666301206017,1.0501993355482
2.5565633409747828,3.0501993355482
2.5575600518289643,6.0501993355482
2.5585567626831454,11.0501993355482
2.5595534735373264,11.0501993355482
2.560550184391508,13.0501993355482
2.561546895245689,13.0501993355482
2.56254360609987,6.0501993355482
2.5635403169540516,6.0501993355482
2.5645370278082327,5.0501993355482
2.5655337386624137,-1.9498006644518
2.566530449516595,-3.9498006644518
2.5675271603707763,-5.9498006644518
2.5685238712249574,-8.9498006644518
2.5695205820791385,-10.9498006644518
2.57051729293332,-15.9498006644518
2.571514003787501,-9.9498006644518
2.572510714641682,-7.9498006644518
2.573507425495863,-2.9498006644518
2.5745041363500447,-1.9498006644518
2.575500847204226,-0.9498006644518
2.576497558058407,4.0501993355482
2.5774942689125884,6.0501993355482
2.5784909797667694,7.0501993355482
2.5794876906209505,8.0501993355482
2.580484401475132,13.0501993355482
2.581481112329313,8.0501993355482
2.582477823183494,5.0501993355482
2.5834745340376752,6.0501993355482
2.5844712448918568,3.0501993355482
2.585467955746038,0.0501993355482
2.586464666600219,0.0501993355482
2.5874613774544004,-7.9498006644518
2.5884580883085815,-10.9498006644518
2.5894547991627626,-13.9498006644518
2.590451510016944,-12.9498006644518
2.591448220871125,-7.9498006644518
2.592444931725306,-5.9498006644518
2.5934416425794873,-1.9498006644518
2.594438353433669,-0.9498006644518
2.59543506428785,-1.9498006644518
2.596431775142031,2.0501993355482
2.5974284859962125,5.0501993355482
2.5984251968503935,8.0501993355482
2.5994219077045746,11.0501993355482
2.6004186185587557,10.0501993355482
2.601415329412937,12.0501993355482
2.6024120402671183,9.0501993355482
2.6034087511212993,7.0501993355482
2.604405461975481,3.0501993355482
2.605402172829662,4.0501993355482
2.606398883683843,-2.9498006644518
2.6073955945380245,-7.9498006644518
2.6083923053922056,-7.9498006644518
2.6093890162463866,-12.9498006644518
2.6103857271005677,-12.9498006644518
2.6113824379547492,-10.9498006644518
2.6123791488089303,-7.9498006644518
2.6133758596631114,-3.9498006644518
2.614372570517293,-6.9498006644518
2.615369281371474,0.0501993355482
2.616365992225655,4.0501993355482
2.617362703079836,6.0501993355482
2.6183594139340176,11.0501993355482
2.6193561247881987,9.0501993355482
2.6203528356423798,10.0501993355482
2.6213495464965613,8.0501993355482
2.6223462573507423,7.0501993355482
2.6233429682049234,4.0501993355482
2.624339679059105,4.0501993355482
2.625336389913286,1.0501993355482
2.626333100767467,1.0501993355482
2.627329811621648,-2.9498006644518
2.6283265224758297,-10.9498006644518
2.6293232333300107,-12.9498006644518
2.630319944184192,-12.9498006644518
2.6313166550383733,-10.9498006644518
2.6323133658925544,-7.9498006644518
2.6333100767467355,-5.9498006644518
2.6343067876009165,0.0501993355482
2.635303498455098,-2.9498006644518
2.636300209309279,9.0501993355482
2.63729692016346,5.0501993355482
2.6382936310176417,8.0501993355482
2.6392903418718228,10.0501993355482
2.640287052726004,9.0501993355482
2.6412837635801854,9.0501993355482
2.6422804744343664,6.0501993355482
2.6432771852885475,6.0501993355482
2.6442738961427286,4.0501993355482
2.64527060699691,-1.9498006644518
2.646267317851091,-2.9498006644518
2.647264028705272,-4.9498006644518
2.6482607395594537,-8.9498006644518
2.649257450413635,-12.9498006644518
2.650254161267816,-13.9498006644518
2.651250872121997,-9.9498006644518
2.6522475829761785,-6.9498006644518
2.6532442938303595,-4.9498006644518
2.6542410046845406,-3.9498006644518
2.655237715538722,4.0501993355482
2.656234426392903,6.0501993355482
2.6572311372470843,4.0501993355482
2.6582278481012658,9.0501993355482
2.659224558955447,9.0501993355482
2.660221269809628,12.0501993355482
2.661217980663809,13.0501993355482
2.6622146915179905,3.0501993355482
2.6632114023721716,5.0501993355482
2.6642081132263526,6.0501993355482
2.665204824080534,-2.9498006644518
2.6662015349347152,-3.9498006644518
2.6671982457888963,-2.9498006644518
2.668194956643078,-8.9498006644518
2.669191667497259,-10.9498006644518
2.67018837835144,-13.9498006644518
2.671185089205621,-10.9498006644518
2.6721818000598025,-4.9498006644518
2.6731785109139836,-3.9498006644518
2.6741752217681647,-2.9498006644518
2.675171932622346,-1.9498006644518
2.6761686434765273,3.0501993355482
2.6771653543307083,7.0501993355482
2.6781620651848894,10.0501993355482
2.679158776039071,10.0501993355482
2.680155486893252,12.0501993355482
2.681152197747433,9.0501993355482
2.6821489086016146,5.0501993355482
2.6831456194557957,4.0501993355482
2.6841423303099767,3.0501993355482
2.6851390411641582,1.0501993355482
2.6861357520183393,-0.9498006644518
2.6871324628725204,-6.9498006644518
2.6881291737267015,-14.9498006644518
2.689125884580883,-14.9498006644518
2.690122595435064,-11.9498006644518
2.691119306289245,-7.9498006644518
2.6921160171434266,-9.9498006644518
2.6931127279976077,-5.9498006644518
2.6941094388517888,1.0501993355482
2.69510614970597,0.0501993355482
2.6961028605601514,5.0501993355482
2.6970995714143324,4.0501993355482
2.6980962822685135,11.0501993355482
2.699092993122695,12.0501993355482
2.700089703976876,13.0501993355482
2.701086414831057,12.0501993355482
2.7020831256852387,7.0501993355482
2.7030798365394197,5.0501993355482
2.704076547393601,2.0501993355482
2.705073258247782,0.0501993355482
2.7060699691019634,-2.9498006644518
2.7070666799561445,-6.9498006644518
2.7080633908103255,-9.9498006644518
2.709060101664507,-14.9498006644518
2.710056812518688,-14.9498006644518
2.711053523372869,-6.9498006644518
2.7120502342270503,-8.9498006644518
2.713046945081232,-6.9498006644518
2.714043655935413,-1.9498006644518
2.715040366789594,1.0501993355482
2.7160370776437754,1.0501993355482
2.7170337884979565,7.0501993355482
2.7180304993521376,11.0501993355482
2.719027210206319,14.0501993355482
2.7200239210605,11.0501993355482
2.7210206319146812,11.0501993355482
2.7220173427688623,6.0501993355482
2.723014053623044,5.0501993355482
2.724010764477225,4.0501993355482
2.725007475331406,1.0501993355482
2.7260041861855875,-2.9498006644518
2.7270008970397686,-7.9498006644518
2.7279976078939496,-9.9498006644518
2.7289943187481307,-12.9498006644518
2.729991029602312,-13.9498006644518
2.7309877404564933,-9.9498006644518
2.7319844513106744,-8.9498006644518
2.732981162164856,-2.9498006644518
2.733977873019037,1.0501993355482
2.734974583873218,-1.9498006644518
2.7359712947273995,10.0501993355482
2.7369680055815806,2.0501993355482
2.7379647164357617,9.0501993355482
2.7389614272899427,11.0501993355482
2.7399581381441243,13.0501993355482
2.7409548489983053,14.0501993355482
2.7419515598524864,5.0501993355482
2.742948270706668,6.0501993355482
2.743944981560849,3.0501993355482
2.74494169241503,-1.9498006644518
2.7459384032692116,-4.9498006644518
2.7469351141233926,-7.9498006644518
2.7479318249775737,-8.9498006644518
2.748928535831755,-10.9498006644518
2.7499252466859363,-14.9498006644518
2.7509219575401174,-10.9498006644518
2.7519186683942984,-6.9498006644518
2.75291537924848,-4.9498006644518
2.753912090102661,-4.9498006644518
2.754908800956842,2.0501993355482
2.755905511811023,5.0501993355482
2.7569022226652047,6.0501993355482
2.7578989335193858,8.0501993355482
2.758895644373567,16.0501993355482
2.7598923552277483,8.0501993355482
2.7608890660819294,15.0501993355482
2.7618857769361105,4.0501993355482
2.762882487790292,7.0501993355482
2.763879198644473,5.0501993355482
2.764875909498654,-0.9498006644518
2.765872620352835,-3.9498006644518
2.7668693312070167,-4.9498006644518
2.767866042061198,-11.9498006644518
2.768862752915379,-12.9498006644518
2.7698594637695604,-14.9498006644518
2.7708561746237415,-10.9498006644518
2.7718528854779225,-4.9498006644518
2.7728495963321036,-1.9498006644518
2.773846307186285,-0.9498006644518
2.774843018040466,1.0501993355482
2.7758397288946473,4.0501993355482
2.7768364397488288,6.0501993355482
2.77783315060301,8.0501993355482
2.778829861457191,8.0501993355482
2.7798265723113724,12.0501993355482
2.7808232831655535,9.0501993355482
2.7818199940197346,6.0501993355482
2.7828167048739156,5.0501993355482
2.783813415728097,1.0501993355482
2.7848101265822782,-0.9498006644518
2.7858068374364593,1.0501993355482
2.786803548290641,-8.9498006644518
2.787800259144822,-12.9498006644518
2.788796969999003,-14.9498006644518
2.789793680853184,-11.9498006644518
2.7907903917073655,-11.9498006644518
2.7917871025615466,-4.9498006644518
2.7927838134157277,-2.9498006644518
2.793780524269909,-1.9498006644518
2.7947772351240903,0.0501993355482
2.7957739459782713,8.0501993355482
2.796770656832453,5.0501993355482
2.797767367686634,9.0501993355482
2.798764078540815,12.0501993355482
2.799760789394996,12.0501993355482
2.8007575002491776,11.0501993355482
2.8017542111033586,5.0501993355482
2.8027509219575397,6.0501993355482
2.8037476328117212,3.0501993355482
2.8047443436659023,1.0501993355482
2.8057410545200834,-4.9498006644518
2.8067377653742644,-11.9498006644518
2.807734476228446,-10.9498006644518
2.808731187082627,-14.9498006644518
2.809727897936808,-10.9498006644518
2.8107246087909896,-7.9498006644518
2.8117213196451707,-7.9498006644518
2.8127180304993518,-2.9498006644518
2.8137147413535333,-0.9498006644518
2.8147114522077143,-1.9498006644518
2.8157081630618954,5.0501993355482
2.8167048739160765,7.0501993355482
2.817701584770258,8.0501993355482
2.818698295624439,11.0501993355482
2.81969500647862,13.0501993355482
2.8206917173328017,11.0501993355482
2.8216884281869827,8.0501993355482
2.822685139041164,4.0501993355482
2.8236818498953453,5.0501993355482
2.8246785607495264,-1.9498006644518
2.8256752716037075,-2.9498006644518
2.8266719824578885,-7.9498006644518
2.82766869331207,-10.9498006644518
2.828665404166251,-12.9498006644518
2.829662115020432,-10.9498006644518
2.8306588258746137,-9.9498006644518
2.8316555367287948,-6.9498006644518
2.832652247582976,-3.9498006644518
2.833648958437157,0.0501993355482
2.8346456692913384,0.0501993355482
2.8356423801455195,4.0501993355482
2.8366390909997006,4.0501993355482
2.837635801853882,10.0501993355482
2.838632512708063,12.0501993355482
2.8396292235622442,9.0501993355482
2.8406259344164257,12.0501993355482
2.841622645270607,4.0501993355482
2.842619356124788,8.0501993355482
2.843616066978969,3.0501993355482
2.8446127778331505,-0.9498006644518
2.8456094886873315,-3.9498006644518
2.8466061995415126,-6.9498006644518
2.847602910395694,-7.9498006644518
2.848599621249875,-12.9498006644518
2.8495963321040563,-14.9498006644518
2.8505930429582373,-9.9498006644518
2.851589753812419,-3.9498006644518
2.8525864646666,-5.9498006644518
2.853583175520781,-4.9498006644518
2.8545798863749625,1.0501993355482
2.8555765972291436,2.0501993355482
2.8565733080833247,6.0501993355482
2.857570018937506,10.0501993355482
2.8585667297916872,11.0501993355482
2.8595634406458683,11.0501993355482
2.8605601515000494,15.0501993355482
2.861556862354231,5.0501993355482
2.862553573208412,4.0501993355482
2.863550284062593,4.0501993355482
2.8645469949167746,-2.9498006644518
2.8655437057709556,-3.9498006644518
2.8665404166251367,-9.9498006644518
2.8675371274793178,-10.9498006644518
2.8685338383334993,-13.9498006644518
2.8695305491876804,-13.9498006644518
2.8705272600418614,-9.9498006644518
2.871523970896043,-4.9498006644518
2.872520681750224,-3.9498006644518
2.873517392604405,-1.9498006644518
2.8745141034585866,0.0501993355482
2.8755108143127677,5.0501993355482
2.8765075251669487,5.0501993355482
2.87750423602113,11.0501993355482
2.8785009468753113,8.0501993355482
2.8794976577294924,11.0501993355482
2.8804943685836735,8.0501993355482
2.881491079437855,8.0501993355482
2.882487790292036,7.0501993355482
2.883484501146217,3.0501993355482
2.8844812120003986,0.0501993355482
2.8854779228545797,0.0501993355482
2.886474633708761,-9.9498006644518
2.887471344562942,-8.9498006644518
2.8884680554171234,-12.9498006644518
2.8894647662713044,-14.9498006644518
2.8904614771254855,-10.9498006644518
2.891458187979667,-4.9498006644518
2.892454898833848,-5.9498006644518
2.893451609688029,-2.9498006644518
2.8944483205422102,3.0501993355482
2.8954450313963918,6.0501993355482
2.896441742250573,7.0501993355482
2.897438453104754,10.0501993355482
2.8984351639589354,11.0501993355482
2.8994318748131165,10.0501993355482
2.9004285856672976,10.0501993355482
2.901425296521479,6.0501993355482
2.90242200737566,5.0501993355482
2.903418718229841,1.0501993355482
2.9044154290840223,-0.9498006644518
2.905412139938204,-2.9498006644518
2.906408850792385,-7.9498006644518
2.907405561646566,-10.9498006644518
2.9084022725007475,-13.9498006644518
2.9093989833549285,-13.9498006644518
2.9103956942091096,-7.9498006644518
2.9113924050632907,-4.9498006644518
2.912389115917472,-3.9498006644518
2.9133858267716533,-1.9498006644518
2.9143825376258343,0.0501993355482
2.915379248480016,4.0501993355482
2.916375959334197,6.0501993355482
2.917372670188378,8.0501993355482
2.9183693810425595,7.0501993355482
2.9193660918967406,11.0501993355482
2.9203628027509216,6.0501993355482
2.9213595136051027,5.0501993355482
2.9223562244592842,6.0501993355482
2.9233529353134653,2.0501993355482
2.9243496461676464,2.0501993355482
2.925346357021828,-4.9498006644518
2.926343067876009,-10.9498006644518
2.92733977873019,-9.9498006644518
2.928336489584371,-7.9498006644518
2.9293332004385526,-10.9498006644518
2.9303299112927337,-4.9498006644518
2.9313266221469148,-7.9498006644518
2.9323233330010963,-4.9498006644518
2.9333200438552773,-2.9498006644518
2.9343167547094584,1.0501993355482
2.93531346556364,9.0501993355482
2.936310176417821,6.0501993355482
2.937306887272002,7.0501993355482
2.938303598126183,12.0501993355482
2.9393003089803647,12.0501993355482
2.9402970198345457,11.0501993355482
2.941293730688727,5.0501993355482
2.9422904415429083,4.0501993355482
2.9432871523970894,5.0501993355482
2.9442838632512704,1.0501993355482
2.9452805741054515,-2.9498006644518
2.946277284959633,-5.9498006644518
2.947273995813814,-9.9498006644518
2.948270706667995,-11.9498006644518
2.9492674175221767,-11.9498006644518
2.9502641283763578,-10.9498006644518
2.951260839230539,-6.9498006644518
2.9522575500847204,-4.9498006644518
2.9532542609389014,-5.9498006644518
2.9542509717930825,2.0501993355482
2.9552476826472636,3.0501993355482
2.956244393501445,4.0501993355482
2.957241104355626,10.0501993355482
2.958237815209807,15.0501993355482
2.9592345260639887,11.0501993355482
2.96023123691817,12.0501993355482
2.961227947772351,4.0501993355482
2.9622246586265324,5.0501993355482
2.9632213694807135,2.0501993355482
2.9642180803348945,1.0501993355482
2.9652147911890756,1.0501993355482
2.966211502043257,-5.9498006644518
2.967208212897438,-9.9498006644518
2.9682049237516193,-14.9498006644518
2.9692016346058008,-12.9498006644518
2.970198345459982,-10.9498006644518
2.971195056314163,-6.9498006644518
2.972191767168344,-2.9498006644518
2.9731884780225255,-1.9498006644518
2.9741851888767066,1.0501993355482
2.9751818997308876,8.0501993355482
2.976178610585069,7.0501993355482
2.9771753214392502,10.0501993355482
2.9781720322934313,5.0501993355482
2.979168743147613,11.0501993355482
2.980165454001794,8.0501993355482
2.981162164855975,7.0501993355482
2.982158875710156,8.0501993355482
2.9831555865643375,9.0501993355482
2.9841522974185186,-1.9498006644518
2.9851490082726997,0.0501993355482
2.986145719126881,-10.9498006644518
2.9871424299810623,-11.9498006644518
2.9881391408352433,-15.9498006644518
2.9891358516894244,-13.9498006644518
2.990132562543606,-9.9498006644518
2.991129273397787,-6.9498006644518
2.992125984251968,-3.9498006644518
2.9931226951061496,-1.9498006644518
2.9941194059603307,0.0501993355482
2.9951161168145117,7.0501993355482
2.9961128276686932,8.0501993355482
2.9971095385228743,9.0501993355482
2.9981062493770554,10.0501993355482
2.9991029602312365,7.0501993355482
3.000099671085418,8.0501993355482
3.001096381939599,7.0501993355482
3.00209309279378,6.0501993355482
3.0030898036479616,5.0501993355482
3.0040865145021427,3.0501993355482
3.0050832253563238,0.0501993355482
3.006079936210505,-6.9498006644518
3.0070766470646864,-9.9498006644518
3.0080733579188674,-14.9498006644518
3.0090700687730485,-12.9498006644518
3.01006677962723,-5.9498006644518
3.011063490481411,-7.9498006644518
3.012060201335592,-6.9498006644518
3.0130569121897737,0.0501993355482
3.0140536230439547,1.0501993355482
3.015050333898136,4.0501993355482
3.016047044752317,4.0501993355482
3.0170437556064984,8.0501993355482
3.0180404664606795,12.0501993355482
3.0190371773148605,9.0501993355482
3.020033888169042,11.0501993355482
3.021030599023223,8.0501993355482
3.022027309877404,8.0501993355482
3.0230240207315853,3.0501993355482
3.024020731585767,-3.9498006644518
3.025017442439948,-4.9498006644518
3.026014153294129,-7.9498006644518
3.0270108641483104,-10.9498006644518
3.0280075750024915,-13.9498006644518
3.0290042858566726,-10.9498006644518
3.030000996710854,-8.9498006644518
3.030997707565035,-7.9498006644518
3.0319944184192162,-3.9498006644518
3.0329911292733973,-2.9498006644518
3.033987840127579,2.0501993355482
3.03498455098176,3.0501993355482
3.035981261835941,9.0501993355482
3.0369779726901225,14.0501993355482
3.0379746835443036,15.0501993355482
3.0389713943984846,11.0501993355482
3.039968105252666,12.0501993355482
3.040964816106847,3.0501993355482
3.0419615269610283,4.0501993355482
3.0429582378152094,3.0501993355482
3.043954948669391,0.0501993355482
3.044951659523572,-2.9498006644518
3.045948370377753,-5.9498006644518
3.0469450812319345,-10.9498006644518
3.0479417920861156,-11.9498006644518
3.0489385029402967,-14.9498006644518
3.0499352137944777,-9.9498006644518
3.0509319246486593,-4.9498006644518
3.0519286355028403,-4.9498006644518
3.0529253463570214,-4.9498006644518
3.053922057211203,4.0501993355482
3.054918768065384,6.0501993355482
3.055915478919565,7.0501993355482
3.0569121897737466,12.0501993355482
3.0579089006279276,11.0501993355482
3.0589056114821087,7.0501993355482
3.05990232233629,14.0501993355482
3.0608990331904713,5.0501993355482
3.0618957440446524,6.0501993355482
3.0628924548988334,5.0501993355482
3.063889165753015,-0.9498006644518
3.064885876607196,-2.9498006644518
3.065882587461377,-4.9498006644518
3.066879298315558,-9.9498006644518
3.0678760091697397,-13.9498006644518
3.0688727200239208,-14.9498006644518
3.069869430878102,-7.9498006644518
3.0708661417322833,-3.9498006644518
3.0718628525864644,-3.9498006644518
3.0728595634406455,-1.9498006644518
3.073856274294827,1.0501993355482
3.074852985149008,4.0501993355482
3.075849696003189,6.0501993355482
3.07684640685737,11.0501993355482
3.0778431177115517,11.0501993355482
3.078839828565733,14.0501993355482
3.079836539419914,8.0501993355482
3.0808332502740954,5.0501993355482
3.0818299611282765,6.0501993355482
3.0828266719824575,1.0501993355482
3.0838233828366386,0.0501993355482
3.08482009369082,0.0501993355482
3.085816804545001,-9.9498006644518
3.0868135153991823,-12.9498006644518
3.0878102262533638,-10.9498006644518
3.088806937107545,-11.9498006644518
3.089803647961726,-11.9498006644518
3.0908003588159074,-3.9498006644518
3.0917970696700885,-4.9498006644518
3.0927937805242696,0.0501993355482
3.0937904913784506,3.0501993355482
3.094787202232632,3.0501993355482
3.095783913086813,6.0501993355482
3.0967806239409943,8.0501993355482
3.097777334795176,10.0501993355482
3.098774045649357,9.0501993355482
3.099770756503538,10.0501993355482
3.1007674673577195,7.0501993355482
3.1017641782119005,6.0501993355482
3.1027608890660816,2.0501993355482
3.1037575999202627,1.0501993355482
3.104754310774444,-4.9498006644518
3.1057510216286253,-9.9498006644518
3.1067477324828063,-13.9498006644518
3.107744443336988,-9.9498006644518
3.108741154191169,-14.9498006644518
3.10973786504535,-8.9498006644518
3.110734575899531,-7.9498006644518
3.1117312867537126,0.0501993355482
3.1127279976078936,-7.9498006644518
3.1137247084620747,2.0501993355482
3.1147214193162562,8.0501993355482
3.1157181301704373,9.0501993355482
3.1167148410246184,9.0501993355482
3.1177115518788,12.0501993355482
3.118708262732981,7.0501993355482
3.119704973587162,9.0501993355482
3.120701684441343,8.0501993355482
3.1216983952955246,7.0501993355482
3.1226951061497057,5.0501993355482
3.1236918170038868,-1.9498006644518
3.1246885278580683,-0.9498006644518
3.1256852387122493,-5.9498006644518
3.1266819495664304,-9.9498006644518
3.1276786604206115,-14.9498006644518
3.128675371274793,-14.9498006644518
3.129672082128974,-12.9498006644518
3.130668792983155,-9.9498006644518
3.1316655038373367,-4.9498006644518
3.1326622146915177,-0.9498006644518
3.133658925545699,1.0501993355482
3.1346556363998803,5.0501993355482
3.1356523472540614,5.0501993355482
3.1366490581082425,12.0501993355482
3.1376457689624235,11.0501993355482
3.138642479816605,14.0501993355482
3.139639190670786,8.0501993355482
3.140635901524967,4.0501993355482
3.1416326123791487,8.0501993355482
3.1426293232333298,1.0501993355482
3.143626034087511,-1.9498006644518
3.144622744941692,-0.9498006644518
3.1456194557958734,-6.9498006644518
3.1466161666500545,-10.9498006644518
3.1476128775042356,-12.9498006644518
3.148609588358417,-13.9498006644518
3.149606299212598,-10.9498006644518
3.1506030100667792,-4.9498006644518
3.1515997209209607,-5.9498006644518
3.152596431775142,-4.9498006644518
3.153593142629323,4.0501993355482
3.154589853483504,5.0501993355482
3.1555865643376855,5.0501993355482
3.1565832751918665,10.0501993355482
3.1575799860460476,6.0501993355482
3.158576696900229,11.0501993355482
3.15957340775441,7.0501993355482
3.1605701186085913,8.0501993355482
3.1615668294627723,7.0501993355482
3.162563540316954,5.0501993355482
3.163560251171135,1.0501993355482
3.164556962025316,-1.9498006644518
3.1655536728794975,-7.9498006644518
3.1665503837336786,-10.9498006644518
3.1675470945878597,-11.9498006644518
3.168543805442041,-14.9498006644518
3.1695405162962222,-10.9498006644518
3.1705372271504033,-7.9498006644518
3.1715339380045844,-3.9498006644518
3.172530648858766,-1.9498006644518
3.173527359712947,1.0501993355482
3.174524070567128,5.0501993355482
3.1755207814213096,8.0501993355482
3.1765174922754906,10.0501993355482
3.1775142031296717,10.0501993355482
3.178510913983853,11.0501993355482
3.1795076248380343,9.0501993355482
3.1805043356922154,8.0501993355482
3.1815010465463964,6.0501993355482
3.182497757400578,3.0501993355482
3.183494468254759,-2.9498006644518
3.18449117910894,-2.9498006644518
3.1854878899631216,-9.9498006644518
3.1864846008173027,-11.9498006644518
3.1874813116714837,-16.9498006644518
3.188478022525665,-11.9498006644518
3.1894747333798463,-11.9498006644518
3.1904714442340274,-7.9498006644518
3.1914681550882085,-2.9498006644518
3.19246486594239,-1.9498006644518
3.193461576796571,3.0501993355482
3.194458287650752,4.0501993355482
3.1954549985049336,6.0501993355482
3.1964517093591147,9.0501993355482
3.197448420213296,9.0501993355482
3.198445131067477,9.0501993355482
3.1994418419216584,12.0501993355482
3.2004385527758394,7.0501993355482
3.2014352636300205,8.0501993355482
3.202431974484202,4.0501993355482
3.203428685338383,1.0501993355482
3.204425396192564,-6.9498006644518
3.2054221070467452,-11.9498006644518
3.2064188179009268,-8.9498006644518
3.207415528755108,-15.9498006644518
3.208412239609289,-11.9498006644518
3.2094089504634704,-8.9498006644518
3.2104056613176515,-4.9498006644518
3.2114023721718326,-5.9498006644518
3.212399083026014,-3.9498006644518
3.213395793880195,1.0501993355482
3.214392504734376,5.0501993355482
3.2153892155885573,11.0501993355482
3.216385926442739,13.0501993355482
3.21738263729692,12.0501993355482
3.218379348151101,10.0501993355482
3.2193760590052825,4.0501993355482
3.2203727698594635,9.0501993355482
3.2213694807136446,8.0501993355482
3.2223661915678257,3.0501993355482
3.223362902422007,-3.9498006644518
3.2243596132761883,-3.9498006644518
3.2253563241303693,-6.9498006644518
3.226353034984551,-8.9498006644518
3.227349745838732,-12.9498006644518
3.228346456692913,-11.9498006644518
3.2293431675470945,-10.9498006644518
3.2303398784012756,-9.9498006644518
3.2313365892554566,-2.9498006644518
3.2323333001096377,0.0501993355482
3.2333300109638192,0.0501993355482
3.2343267218180003,8.0501993355482
3.2353234326721814,5.0501993355482
3.236320143526363,13.0501993355482
3.237316854380544,14.0501993355482
3.238313565234725,12.0501993355482
3.239310276088906,8.0501993355482
3.2403069869430876,5.0501993355482
3.2413036977972687,4.0501993355482
3.2423004086514498,2.0501993355482
3.2432971195056313,1.0501993355482
3.2442938303598123,-2.9498006644518
3.2452905412139934,-8.9498006644518
3.246287252068175,-11.9498006644518
3.247283962922356,-12.9498006644518
3.248280673776537,-13.9498006644518
3.249277384630718,-10.9498006644518
3.2502740954848997,-6.9498006644518
3.2512708063390807,-3.9498006644518
3.252267517193262,-3.9498006644518
3.2532642280474433,3.0501993355482
3.2542609389016244,5.0501993355482
3.2552576497558054,5.0501993355482
3.256254360609987,9.0501993355482
3.257251071464168,11.0501993355482
3.258247782318349,14.0501993355482
3.25924449317253,9.0501993355482
3.2602412040267117,6.0501993355482
3.2612379148808928,8.0501993355482
3.262234625735074,1.0501993355482
3.2632313365892553,2.0501993355482
3.2642280474434364,-1.9498006644518
3.2652247582976175,-9.9498006644518
3.2662214691517986,-12.9498006644518
3.26721818000598,-12.9498006644518
3.268214890860161,-11.9498006644518
3.269211601714342,-8.9498006644518
3.2702083125685237,-4.9498006644518
3.271205023422705,-3.9498006644518
3.272201734276886,-1.9498006644518
3.2731984451310674,-0.9498006644518
3.2741951559852485,6.0501993355482
3.2751918668394295,9.0501993355482
3.2761885776936106,10.0501993355482
3.277185288547792,9.0501993355482
3.278181999401973,14.0501993355482
3.2791787102561543,8.0501993355482
3.2801754211103358,6.0501993355482
3.281172131964517,4.0501993355482
3.282168842818698,1.0501993355482
3.283165553672879,-0.9498006644518
3.2841622645270605,0.0501993355482
3.2851589753812416,-9.9498006644518
3.2861556862354226,-12.9498006644518
3.287152397089604,-11.9498006644518
3.2881491079437852,-13.9498006644518
3.2891458187979663,-10.9498006644518
3.290142529652148,-5.9498006644518
3.291139240506329,-1.9498006644518
3.29213595136051,0.0501993355482
3.293132662214691,2.0501993355482
3.2941293730688725,3.0501993355482
3.2951260839230536,7.0501993355482
3.2961227947772347,8.0501993355482
3.297119505631416,12.0501993355482
3.2981162164855973,10.0501993355482
3.2991129273397783,7.0501993355482
3.3001096381939594,6.0501993355482
3.301106349048141,6.0501993355482
3.302103059902322,1.0501993355482
3.303099770756503,1.0501993355482
3.3040964816106846,-1.9498006644518
3.3050931924648657,-7.9498006644518
3.3060899033190467,-7.9498006644518
3.3070866141732282,-14.9498006644518
3.3080833250274093,-12.9498006644518
3.3090800358815904,-8.9498006644518
3.3100767467357715,-9.9498006644518
3.311073457589953,-1.9498006644518
3.312070168444134,1.0501993355482
3.313066879298315,2.0501993355482
3.3140635901524966,4.0501993355482
3.3150603010066777,6.0501993355482
3.3160570118608588,11.0501993355482
3.3170537227150403,11.0501993355482
3.3180504335692214,11.0501993355482
3.3190471444234024,11.0501993355482
3.3200438552775835,7.0501993355482
3.321040566131765,9.0501993355482
3.322037276985946,4.0501993355482
3.323033987840127,-0.9498006644518
3.3240306986943087,-2.9498006644518
3.3250274095484897,-10.9498006644518
3.326024120402671,-12.9498006644518
3.327020831256852,-13.9498006644518
3.3280175421110334,-12.9498006644518
3.3290142529652145,-10.9498006644518
3.3300109638193955,-9.9498006644518
3.331007674673577,-6.9498006644518
3.332004385527758,-5.9498006644518
3.333001096381939,5.0501993355482
3.3339978072361207,5.0501993355482
3.334994518090302,6.0501993355482
3.335991228944483,12.0501993355482
3.336987939798664,10.0501993355482
3.3379846506528454,12.0501993355482
3.3389813615070265,10.0501993355482
3.3399780723612076,7.0501993355482
3.340974783215389,7.0501993355482
3.34197149406957,6.0501993355482
3.3429682049237512,-2.9498006644518
3.3439649157779323,-5.9498006644518
3.344961626632114,-5.9498006644518
3.345958337486295,-9.9498006644518
3.346955048340476,-10.9498006644518
3.3479517591946575,-11.9498006644518
3.3489484700488386,-8.9498006644518
3.3499451809030196,-7.9498006644518
3.350941891757201,-4.9498006644518
3.351938602611382,-1.9498006644518
3.3529353134655633,2.0501993355482
3.3539320243197444,5.0501993355482
3.354928735173926,6.0501993355482
3.355925446028107,11.0501993355482
3.356922156882288,8.0501993355482
3.3579188677364695,9.0501993355482
3.3589155785906506,8.0501993355482
3.3599122894448317,5.0501993355482
3.3609090002990127,6.0501993355482
3.3619057111531943,4.0501993355482
3.3629024220073753,-0.9498006644518
3.3638991328615564,-0.9498006644518
