Time,EMG
0.0,1.0568106312292116
0.000996710854181202,23.05681063122921
0.001993421708362404,53.05681063122921
0.002990132562543606,16.05681063122921
0.003986843416724808,-35.94318936877079
0.00498355427090601,-46.94318936877079
0.005980265125087212,-39.94318936877079
0.006976975979268414,12.056810631229212
0.007973686833449616,44.05681063122921
0.008970397687630818,41.05681063122921
0.00996710854181202,29.05681063122921
0.01096381939599322,-18.94318936877079
0.011960530250174423,-53.94318936877079
0.012957241104355626,-44.94318936877079
0.013953951958536827,-31.94318936877079
0.014950662812718028,-8.943189368770788
0.01594737366689923,-5.943189368770788
0.016944084521080434,-20.94318936877079
0.017940795375261637,-9.943189368770788
0.018937506229442836,13.056810631229212
0.01993421708362404,21.05681063122921
0.02093092793780524,25.05681063122921
0.02192763879198644,30.05681063122921
0.022924349646167644,22.05681063122921
0.023921060500348847,36.05681063122921
0.02491777135453005,28.05681063122921
0.025914482208711252,11.056810631229212
0.02691119306289245,-0.9431893687707884
0.027907903917073654,-11.943189368770788
0.028904614771254857,-22.94318936877079
0.029901325625436057,2.0568106312292116
0.03089803647961726,10.056810631229212
0.03189474733379846,-15.943189368770788
0.032891458187979665,-45.94318936877079
0.03388816904216087,-25.94318936877079
0.03488487989634207,-5.943189368770788
0.03588159075052327,-14.943189368770788
0.03687830160470447,-9.943189368770788
0.03787501245888567,2.0568106312292116
0.038871723313066875,8.056810631229212
0.03986843416724808,11.056810631229212
0.04086514502142928,15.056810631229212
0.04186185587561048,20.05681063122921
0.042858566729791686,8.056810631229212
0.04385527758397288,12.056810631229212
0.044851988438154085,16.05681063122921
0.04584869929233529,2.0568106312292116
0.04684541014651649,2.0568106312292116
0.04784212100069769,26.05681063122921
0.048838831854878896,56.05681063122921
0.0498355427090601,36.05681063122921
0.0508322535632413,-41.94318936877079
0.051828964417422504,-59.94318936877079
0.0528256752716037,-72.94318936877079
0.0538223861257849,-59.94318936877079
0.054819096979966106,-19.94318936877079
0.05581580783414731,8.056810631229212
0.05681251868832851,8.056810631229212
0.057809229542509714,11.056810631229212
0.05880594039669092,15.056810631229212
0.05980265125087211,5.056810631229212
0.060799362105053316,0.056810631229211594
0.06179607295923452,19.05681063122921
0.06279278381341573,31.05681063122921
0.06378949466759692,11.056810631229212
0.06478620552177812,27.05681063122921
0.06578291637595933,23.05681063122921
0.06677962723014053,8.056810631229212
0.06777633808432174,4.056810631229212
0.06877304893850293,9.056810631229212
0.06976975979268414,14.056810631229212
0.07076647064686534,25.05681063122921
0.07176318150104655,-7.943189368770788
0.07275989235522774,-22.94318936877079
0.07375660320940894,-57.94318936877079
0.07475331406359015,-46.94318936877079
0.07575002491777134,-29.94318936877079
0.07674673577195255,-27.94318936877079
0.07774344662613375,-22.94318936877079
0.07874015748031496,-6.943189368770788
0.07973686833449616,12.056810631229212
0.08073357918867735,9.056810631229212
0.08173029004285856,41.05681063122921
0.08272700089703976,80.05681063122921
0.08372371175122097,103.05681063122921
0.08472042260540216,57.05681063122921
0.08571713345958337,-19.94318936877079
0.08671384431376457,-70.94318936877079
0.08771055516794576,-93.94318936877079
0.08870726602212697,-72.94318936877079
0.08970397687630817,-18.94318936877079
0.09070068773048938,8.056810631229212
0.09169739858467058,6.056810631229212
0.09269410943885178,0.056810631229211594
0.09369082029303298,0.056810631229211594
0.09468753114721419,7.056810631229212
0.09568424200139539,7.056810631229212
0.09668095285557658,21.05681063122921
0.09767766370975779,44.05681063122921
0.09867437456393899,53.05681063122921
0.0996710854181202,28.05681063122921
0.1006677962723014,-13.943189368770788
0.1016645071264826,-19.94318936877079
0.1026612179806638,-23.94318936877079
0.10365792883484501,-6.943189368770788
0.1046546396890262,-2.9431893687707884
0.1056513505432074,-2.9431893687707884
0.10664806139738861,1.0568106312292116
0.1076447722515698,-3.9431893687707884
0.10864148310575102,-14.943189368770788
0.10963819395993221,-15.943189368770788
0.11063490481411342,-27.94318936877079
0.11163161566829462,-35.94318936877079
0.11262832652247581,0.056810631229211594
0.11362503737665702,11.056810631229212
0.11462174823083822,25.05681063122921
0.11561845908501943,28.05681063122921
0.11661516993920062,1.0568106312292116
0.11761188079338183,-7.943189368770788
0.11860859164756303,-4.943189368770788
0.11960530250174423,4.056810631229212
0.12060201335592544,35.05681063122921
0.12159872421010663,19.05681063122921
0.12259543506428784,19.05681063122921
0.12359214591846904,8.056810631229212
0.12458885677265025,-1.9431893687707884
0.12558556762683146,-5.943189368770788
0.12658227848101264,-26.94318936877079
0.12757898933519385,-19.94318936877079
0.12857570018937506,-23.94318936877079
0.12957241104355624,-28.94318936877079
0.13056912189773745,-21.94318936877079
0.13156583275191866,-7.943189368770788
0.13256254360609987,-2.9431893687707884
0.13355925446028105,-4.943189368770788
0.13455596531446226,10.056810631229212
0.13555267616864347,51.05681063122921
0.13654938702282465,52.05681063122921
0.13754609787700586,32.05681063122921
0.13854280873118707,26.05681063122921
0.13953951958536828,10.056810631229212
0.14053623043954946,-36.94318936877079
0.14153294129373067,-49.94318936877079
0.14252965214791188,-0.9431893687707884
0.1435263630020931,17.05681063122921
0.14452307385627428,20.05681063122921
0.14551978471045549,7.056810631229212
0.1465164955646367,-8.943189368770788
0.14751320641881788,-12.943189368770788
0.1485099172729991,-25.94318936877079
0.1495066281271803,-9.943189368770788
0.1505033389813615,-26.94318936877079
0.1515000498355427,-36.94318936877079
0.1524967606897239,-19.94318936877079
0.1534934715439051,-18.94318936877079
0.1544901823980863,-3.9431893687707884
0.1554868932522675,24.05681063122921
0.1564836041064487,56.05681063122921
0.15748031496062992,61.05681063122921
0.1584770258148111,48.05681063122921
0.1594737366689923,11.056810631229212
0.16047044752317352,-47.94318936877079
0.1614671583773547,-58.94318936877079
0.1624638692315359,-27.94318936877079
0.16346058008571712,4.056810631229212
0.16445729093989833,-3.9431893687707884
0.1654540017940795,-30.94318936877079
0.16645071264826072,-26.94318936877079
0.16744742350244193,5.056810631229212
0.16844413435662312,28.05681063122921
0.16944084521080433,46.05681063122921
0.17043755606498553,22.05681063122921
0.17143426691916674,27.05681063122921
0.17243097777334793,53.05681063122921
0.17342768862752914,28.05681063122921
0.17442439948171035,-7.943189368770788
0.17542111033589153,-36.94318936877079
0.17641782119007274,-46.94318936877079
0.17741453204425395,-49.94318936877079
0.17841124289843516,-30.94318936877079
0.17940795375261634,-14.943189368770788
0.18040466460679755,11.056810631229212
0.18140137546097876,25.05681063122921
0.18239808631515997,32.05681063122921
0.18339479716934115,10.056810631229212
0.18439150802352236,-9.943189368770788
0.18538821887770357,-11.943189368770788
0.18638492973188475,1.0568106312292116
0.18738164058606596,35.05681063122921
0.18837835144024717,37.05681063122921
0.18937506229442838,6.056810631229212
0.19037177314860956,-45.94318936877079
0.19136848400279077,-51.94318936877079
0.19236519485697198,-39.94318936877079
0.19336190571115316,-21.94318936877079
0.19435861656533437,12.056810631229212
0.19535532741951558,21.05681063122921
0.1963520382736968,24.05681063122921
0.19734874912787798,18.05681063122921
0.19834545998205919,-1.9431893687707884
0.1993421708362404,5.056810631229212
0.20033888169042158,9.056810631229212
0.2013355925446028,22.05681063122921
0.202332303398784,15.056810631229212
0.2033290142529652,-0.9431893687707884
0.2043257251071464,-26.94318936877079
0.2053224359613276,-33.94318936877079
0.2063191468155088,-13.943189368770788
0.20731585766969002,4.056810631229212
0.2083125685238712,19.05681063122921
0.2093092793780524,13.056810631229212
0.21030599023223362,-16.94318936877079
0.2113027010864148,-28.94318936877079
0.212299411940596,-10.943189368770788
0.21329612279477722,32.05681063122921
0.21429283364895843,29.05681063122921
0.2152895445031396,18.05681063122921
0.21628625535732082,11.056810631229212
0.21728296621150203,-11.943189368770788
0.21827967706568321,-26.94318936877079
0.21927638791986442,14.056810631229212
0.22027309877404563,-2.9431893687707884
0.22126980962822684,-10.943189368770788
0.22226652048240803,-7.943189368770788
0.22326323133658924,-10.943189368770788
0.22425994219077044,-10.943189368770788
0.22525665304495163,-12.943189368770788
0.22625336389913284,9.056810631229212
0.22725007475331405,25.05681063122921
0.22824678560749526,-3.9431893687707884
0.22924349646167644,-7.943189368770788
0.23024020731585765,-19.94318936877079
0.23123691817003886,-15.943189368770788
0.23223362902422004,12.056810631229212
0.23323033987840125,33.05681063122921
0.23422705073258246,38.05681063122921
0.23522376158676367,44.05681063122921
0.23622047244094485,14.056810631229212
0.23721718329512606,-2.9431893687707884
0.23821389414930727,-19.94318936877079
0.23921060500348845,-36.94318936877079
0.24020731585766966,-50.94318936877079
0.24120402671185087,-35.94318936877079
0.24220073756603208,-3.9431893687707884
0.24319744842021326,4.056810631229212
0.24419415927439447,19.05681063122921
0.24519087012857568,24.05681063122921
0.2461875809827569,27.05681063122921
0.24718429183693807,4.056810631229212
0.24818100269111928,-12.943189368770788
0.2491777135453005,-10.943189368770788
0.2501744243994817,-7.943189368770788
0.2511711352536629,-1.9431893687707884
0.2521678461078441,14.056810631229212
0.2531645569620253,12.056810631229212
0.2541612678162065,17.05681063122921
0.2551579786703877,31.05681063122921
0.2561546895245689,8.056810631229212
0.2571514003787501,-2.9431893687707884
0.2581481112329313,-2.9431893687707884
0.2591448220871125,-26.94318936877079
0.2601415329412937,-54.94318936877079
0.2611382437954749,-63.94318936877079
0.26213495464965614,-35.94318936877079
0.2631316655038373,44.05681063122921
0.2641283763580185,89.05681063122921
0.26512508721219974,76.05681063122921
0.2661217980663809,45.05681063122921
0.2671185089205621,0.056810631229211594
0.26811521977474334,-28.94318936877079
0.2691119306289245,-45.94318936877079
0.2701086414831057,-52.94318936877079
0.27110535233728694,-45.94318936877079
0.2721020631914681,-15.943189368770788
0.2730987740456493,-9.943189368770788
0.27409548489983054,-11.943189368770788
0.2750921957540117,14.056810631229212
0.27608890660819296,17.05681063122921
0.27708561746237415,8.056810631229212
0.2780823283165553,-1.9431893687707884
0.27907903917073656,5.056810631229212
0.28007575002491775,16.05681063122921
0.28107246087909893,11.056810631229212
0.28206917173328017,12.056810631229212
0.28306588258746135,4.056810631229212
0.28406259344164253,-14.943189368770788
0.28505930429582377,8.056810631229212
0.28605601515000495,29.05681063122921
0.2870527260041862,29.05681063122921
0.28804943685836737,36.05681063122921
0.28904614771254855,23.05681063122921
0.2900428585667298,-4.943189368770788
0.29103956942091097,-4.943189368770788
0.29203628027509215,-2.9431893687707884
0.2930329911292734,-51.94318936877079
0.29402970198345457,-61.94318936877079
0.29502641283763575,-40.94318936877079
0.296023123691817,-26.94318936877079
0.2970198345459982,-7.943189368770788
0.29801654540017936,24.05681063122921
0.2990132562543606,52.05681063122921
0.3000099671085418,70.05681063122921
0.301006677962723,38.05681063122921
0.3020033888169042,16.05681063122921
0.3030000996710854,-11.943189368770788
0.3039968105252666,-38.94318936877079
0.3049935213794478,-27.94318936877079
0.305990232233629,-34.94318936877079
0.3069869430878102,-16.94318936877079
0.3079836539419914,9.056810631229212
0.3089803647961726,20.05681063122921
0.3099770756503538,1.0568106312292116
0.310973786504535,-12.943189368770788
0.3119704973587162,-7.943189368770788
0.3129672082128974,-13.943189368770788
0.3139639190670786,-13.943189368770788
0.31496062992125984,-17.94318936877079
0.315957340775441,4.056810631229212
0.3169540516296222,-5.943189368770788
0.31795076248380344,-14.943189368770788
0.3189474733379846,8.056810631229212
0.3199441841921658,22.05681063122921
0.32094089504634704,51.05681063122921
0.3219376059005282,56.05681063122921
0.3229343167547094,-3.9431893687707884
0.32393102760889064,-36.94318936877079
0.3249277384630718,-48.94318936877079
0.32592444931725306,-30.94318936877079
0.32692116017143424,-3.9431893687707884
0.3279178710256154,6.056810631229212
0.32891458187979666,-7.943189368770788
0.32991129273397785,-21.94318936877079
0.330908003588159,-6.943189368770788
0.33190471444234027,16.05681063122921
0.33290142529652145,46.05681063122921
0.33389813615070263,56.05681063122921
0.33489484700488387,53.05681063122921
0.33589155785906505,-17.94318936877079
0.33688826871324623,-39.94318936877079
0.33788497956742747,-33.94318936877079
0.33888169042160865,-14.943189368770788
0.3398784012757899,4.056810631229212
0.34087511212997107,38.05681063122921
0.34187182298415225,24.05681063122921
0.3428685338383335,6.056810631229212
0.34386524469251467,2.0568106312292116
0.34486195554669585,-14.943189368770788
0.3458586664008771,-23.94318936877079
0.3468553772550583,-36.94318936877079
0.34785208810923945,-34.94318936877079
0.3488487989634207,-39.94318936877079
0.3498455098176019,-2.9431893687707884
0.35084222067178306,65.05681063122921
0.3518389315259643,111.05681063122921
0.3528356423801455,52.05681063122921
0.3538323532343267,-9.943189368770788
0.3548290640885079,-9.943189368770788
0.3558257749426891,0.056810631229211594
0.3568224857968703,-1.9431893687707884
0.3578191966510515,-15.943189368770788
0.3588159075052327,-54.94318936877079
0.3598126183594139,-45.94318936877079
0.3608093292135951,-30.94318936877079
0.3618060400677763,15.056810631229212
0.3628027509219575,11.056810631229212
0.3637994617761387,-16.94318936877079
0.36479617263031994,-15.943189368770788
0.3657928834845011,-5.943189368770788
0.3667895943386823,-15.943189368770788
0.36778630519286354,11.056810631229212
0.3687830160470447,34.05681063122921
0.3697797269012259,1.0568106312292116
0.37077643775540714,-0.9431893687707884
0.3717731486095883,-12.943189368770788
0.3727698594637695,-6.943189368770788
0.37376657031795074,18.05681063122921
0.3747632811721319,19.05681063122921
0.3757599920263131,11.056810631229212
0.37675670288049434,1.0568106312292116
0.3777534137346755,8.056810631229212
0.37875012458885676,17.05681063122921
0.37974683544303794,26.05681063122921
0.3807435462972191,28.05681063122921
0.38174025715140036,6.056810631229212
0.38273696800558155,-13.943189368770788
0.38373367885976273,-26.94318936877079
0.38473038971394397,-28.94318936877079
0.38572710056812515,-14.943189368770788
0.38672381142230633,7.056810631229212
0.38772052227648757,14.056810631229212
0.38871723313066875,-1.9431893687707884
0.38971394398485,-30.94318936877079
0.39071065483903117,-40.94318936877079
0.39170736569321235,-24.94318936877079
0.3927040765473936,4.056810631229212
0.39370078740157477,27.05681063122921
0.39469749825575595,12.056810631229212
0.3956942091099372,1.0568106312292116
0.39669091996411837,32.05681063122921
0.39768763081829955,39.05681063122921
0.3986843416724808,61.05681063122921
0.399681052526662,54.05681063122921
0.40067776338084315,49.05681063122921
0.4016744742350244,-20.94318936877079
0.4026711850892056,-86.94318936877079
0.4036678959433868,-75.94318936877079
0.404664606797568,-63.94318936877079
0.4056613176517492,-43.94318936877079
0.4066580285059304,-10.943189368770788
0.4076547393601116,4.056810631229212
0.4086514502142928,27.05681063122921
0.409648161068474,41.05681063122921
0.4106448719226552,21.05681063122921
0.4116415827768364,-4.943189368770788
0.4126382936310176,-30.94318936877079
0.4136350044851988,-23.94318936877079
0.41463171533938004,-45.94318936877079
0.4156284261935612,-46.94318936877079
0.4166251370477424,26.05681063122921
0.41762184790192364,82.05681063122921
0.4186185587561048,85.05681063122921
0.419615269610286,32.05681063122921
0.42061198046446724,-4.943189368770788
0.4216086913186484,-19.94318936877079
0.4226054021728296,7.056810631229212
0.42360211302701084,8.056810631229212
0.424598823881192,-14.943189368770788
0.4255955347353732,-16.94318936877079
0.42659224558955444,6.056810631229212
0.4275889564437356,11.056810631229212
0.42858566729791686,-14.943189368770788
0.42958237815209804,-27.94318936877079
0.4305790890062792,-35.94318936877079
0.43157579986046046,-9.943189368770788
0.43257251071464164,3.0568106312292116
0.4335692215688228,29.05681063122921
0.43456593242300406,21.05681063122921
0.43556264327718525,13.056810631229212
0.43655935413136643,14.056810631229212
0.43755606498554767,4.056810631229212
0.43855277583972885,4.056810631229212
0.43954948669391003,-0.9431893687707884
0.44054619754809127,-33.94318936877079
0.44154290840227245,-50.94318936877079
0.4425396192564537,-17.94318936877079
0.44353633011063487,63.05681063122921
0.44453304096481605,78.05681063122921
0.4455297518189973,30.05681063122921
0.44652646267317847,-15.943189368770788
0.44752317352735965,-62.94318936877079
0.4485198843815409,-84.94318936877079
0.44951659523572207,-56.94318936877079
0.45051330608990325,-15.943189368770788
0.4515100169440845,27.05681063122921
0.4525067277982657,42.05681063122921
0.4535034386524469,13.056810631229212
0.4545001495066281,-13.943189368770788
0.4554968603608093,-13.943189368770788
0.4564935712149905,1.0568106312292116
0.4574902820691717,23.05681063122921
0.4584869929233529,19.05681063122921
0.4594837037775341,32.05681063122921
0.4604804146317153,25.05681063122921
0.4614771254858965,3.0568106312292116
0.4624738363400777,15.056810631229212
0.4634705471942589,-0.9431893687707884
0.4644672580484401,-9.943189368770788
0.4654639689026213,-33.94318936877079
0.4664606797568025,-19.94318936877079
0.46745739061098374,8.056810631229212
0.4684541014651649,6.056810631229212
0.4694508123193461,1.0568106312292116
0.47044752317352734,-29.94318936877079
0.4714442340277085,-34.94318936877079
0.4724409448818897,-19.94318936877079
0.47343765573607094,5.056810631229212
0.4744343665902521,29.05681063122921
0.4754310774444333,33.05681063122921
0.47642778829861454,40.05681063122921
0.4774244991527957,34.05681063122921
0.4784212100069769,26.05681063122921
0.47941792086115814,2.0568106312292116
0.4804146317153393,-30.94318936877079
0.48141134256952056,-20.94318936877079
0.48240805342370174,-15.943189368770788
0.4834047642778829,3.0568106312292116
0.48440147513206416,13.056810631229212
0.48539818598624535,-6.943189368770788
0.4863948968404265,-35.94318936877079
0.48739160769460776,-38.94318936877079
0.48838831854878895,-8.943189368770788
0.48938502940297013,38.05681063122921
0.49038174025715137,70.05681063122921
0.49137845111133255,38.05681063122921
0.4923751619655138,-24.94318936877079
0.49337187281969497,9.056810631229212
0.49436858367387615,1.0568106312292116
0.4953652945280574,-18.94318936877079
0.49636200538223857,-41.94318936877079
0.49735871623641975,-49.94318936877079
0.498355427090601,-49.94318936877079
0.49935213794478217,-34.94318936877079
0.5003488487989634,-9.943189368770788
0.5013455596531445,16.05681063122921
0.5023422705073258,25.05681063122921
0.503338981361507,34.05681063122921
0.5043356922156882,34.05681063122921
0.5053324030698694,6.056810631229212
0.5063291139240506,-26.94318936877079
0.5073258247782317,-9.943189368770788
0.508322535632413,-7.943189368770788
0.5093192464865942,33.05681063122921
0.5103159573407754,24.05681063122921
0.5113126681949566,-19.94318936877079
0.5123093790491378,-10.943189368770788
0.513306089903319,19.05681063122921
0.5143028007575002,24.05681063122921
0.5152995116116814,1.0568106312292116
0.5162962224658626,0.056810631229211594
0.5172929333200438,-14.943189368770788
0.518289644174225,-11.943189368770788
0.5192863550284063,12.056810631229212
0.5202830658825874,35.05681063122921
0.5212797767367686,28.05681063122921
0.5222764875909498,3.0568106312292116
0.523273198445131,23.05681063122921
0.5242699092993123,34.05681063122921
0.5252666201534935,21.05681063122921
0.5262633310076746,-27.94318936877079
0.5272600418618558,-91.94318936877079
0.528256752716037,-106.94318936877079
0.5292534635702182,-97.94318936877079
0.5302501744243995,-16.94318936877079
0.5312468852785807,64.05681063122921
0.5322435961327618,81.05681063122921
0.533240306986943,55.05681063122921
0.5342370178411242,24.05681063122921
0.5352337286953054,-2.9431893687707884
0.5362304395494867,-45.94318936877079
0.5372271504036679,-53.94318936877079
0.538223861257849,-24.94318936877079
0.5392205721120302,33.05681063122921
0.5402172829662114,99.05681063122921
0.5412139938203927,102.05681063122921
0.5422107046745739,36.05681063122921
0.5432074155287551,-31.94318936877079
0.5442041263829362,-79.94318936877079
0.5452008372371174,-69.94318936877079
0.5461975480912986,-66.94318936877079
0.5471942589454799,-35.94318936877079
0.5481909697996611,1.0568106312292116
0.5491876806538423,19.05681063122921
0.5501843915080235,21.05681063122921
0.5511811023622046,-19.94318936877079
0.5521778132163859,-24.94318936877079
0.5531745240705671,12.056810631229212
0.5541712349247483,33.05681063122921
0.5551679457789295,56.05681063122921
0.5561646566331107,51.05681063122921
0.5571613674872918,36.05681063122921
0.5581580783414731,39.05681063122921
0.5591547891956543,17.05681063122921
0.5601515000498355,-18.94318936877079
0.5611482109040167,-72.94318936877079
0.5621449217581979,-87.94318936877079
0.5631416326123792,-41.94318936877079
0.5641383434665603,9.056810631229212
0.5651350543207415,83.05681063122921
0.5661317651749227,51.05681063122921
0.5671284760291039,-25.94318936877079
0.5681251868832851,-31.94318936877079
0.5691218977374664,-7.943189368770788
0.5701186085916475,-23.94318936877079
0.5711153194458287,-17.94318936877079
0.5721120303000099,3.0568106312292116
0.5731087411541911,14.056810631229212
0.5741054520083724,1.0568106312292116
0.5751021628625536,20.05681063122921
0.5760988737167347,9.056810631229212
0.5770955845709159,-12.943189368770788
0.5780922954250971,-6.943189368770788
0.5790890062792783,8.056810631229212
0.5800857171334596,12.056810631229212
0.5810824279876408,8.056810631229212
0.5820791388418219,16.05681063122921
0.5830758496960031,25.05681063122921
0.5840725605501843,27.05681063122921
0.5850692714043655,-11.943189368770788
0.5860659822585468,-40.94318936877079
0.587062693112728,-28.94318936877079
0.5880594039669091,-35.94318936877079
0.5890561148210903,-33.94318936877079
0.5900528256752715,-17.94318936877079
0.5910495365294528,-4.943189368770788
0.592046247383634,13.056810631229212
0.5930429582378152,15.056810631229212
0.5940396690919963,-4.943189368770788
0.5950363799461775,-7.943189368770788
0.5960330908003587,5.056810631229212
0.59702980165454,22.05681063122921
0.5980265125087212,37.05681063122921
0.5990232233629024,85.05681063122921
0.6000199342170836,63.05681063122921
0.6010166450712647,-7.943189368770788
0.602013355925446,-60.94318936877079
0.6030100667796272,-67.94318936877079
0.6040067776338084,-37.94318936877079
0.6050034884879896,3.0568106312292116
0.6060001993421708,61.05681063122921
0.6069969101963519,44.05681063122921
0.6079936210505332,-21.94318936877079
0.6089903319047144,-54.94318936877079
0.6099870427588956,-34.94318936877079
0.6109837536130768,24.05681063122921
0.611980464467258,49.05681063122921
0.6129771753214392,56.05681063122921
0.6139738861756204,20.05681063122921
0.6149705970298016,-46.94318936877079
0.6159673078839828,-90.94318936877079
0.616964018738164,-94.94318936877079
0.6179607295923452,-11.943189368770788
0.6189574404465265,13.056810631229212
0.6199541513007076,41.05681063122921
0.6209508621548888,52.05681063122921
0.62194757300907,18.05681063122921
0.6229442838632512,16.05681063122921
0.6239409947174324,29.05681063122921
0.6249377055716137,32.05681063122921
0.6259344164257948,6.056810631229212
0.626931127279976,6.056810631229212
0.6279278381341572,-8.943189368770788
0.6289245489883384,-24.94318936877079
0.6299212598425197,-0.9431893687707884
0.6309179706967009,-10.943189368770788
0.631914681550882,-29.94318936877079
0.6329113924050632,-43.94318936877079
0.6339081032592444,-62.94318936877079
0.6349048141134256,-24.94318936877079
0.6359015249676069,41.05681063122921
0.6368982358217881,61.05681063122921
0.6378949466759692,41.05681063122921
0.6388916575301504,61.05681063122921
0.6398883683843316,24.05681063122921
0.6408850792385129,-8.943189368770788
0.6418817900926941,-47.94318936877079
0.6428785009468753,-26.94318936877079
0.6438752118010564,-17.94318936877079
0.6448719226552376,-10.943189368770788
0.6458686335094188,-9.943189368770788
0.6468653443636001,0.056810631229211594
0.6478620552177813,10.056810631229212
0.6488587660719625,-5.943189368770788
0.6498554769261436,-12.943189368770788
0.6508521877803248,12.056810631229212
0.6518488986345061,27.05681063122921
0.6528456094886873,24.05681063122921
0.6538423203428685,22.05681063122921
0.6548390311970497,1.0568106312292116
0.6558357420512309,-45.94318936877079
0.656832452905412,-58.94318936877079
0.6578291637595933,-29.94318936877079
0.6588258746137745,3.0568106312292116
0.6598225854679557,26.05681063122921
0.6608192963221369,31.05681063122921
0.661816007176318,1.0568106312292116
0.6628127180304992,-7.943189368770788
0.6638094288846805,21.05681063122921
0.6648061397388617,43.05681063122921
0.6658028505930429,15.056810631229212
0.6667995614472241,-14.943189368770788
0.6677962723014053,-1.9431893687707884
0.6687929831555866,11.056810631229212
0.6697896940097677,29.05681063122921
0.6707864048639489,25.05681063122921
0.6717831157181301,1.0568106312292116
0.6727798265723113,-15.943189368770788
0.6737765374264925,-20.94318936877079
0.6747732482806738,-7.943189368770788
0.6757699591348549,-46.94318936877079
0.6767666699890361,-53.94318936877079
0.6777633808432173,-47.94318936877079
0.6787600916973985,-24.94318936877079
0.6797568025515798,6.056810631229212
0.680753513405761,36.05681063122921
0.6817502242599421,57.05681063122921
0.6827469351141233,48.05681063122921
0.6837436459683045,8.056810631229212
0.6847403568224857,-21.94318936877079
0.685737067676667,-25.94318936877079
0.6867337785308482,-25.94318936877079
0.6877304893850293,-19.94318936877079
0.6887272002392105,-2.9431893687707884
0.6897239110933917,-0.9431893687707884
0.690720621947573,41.05681063122921
0.6917173328017542,59.05681063122921
0.6927140436559354,20.05681063122921
0.6937107545101165,-10.943189368770788
0.6947074653642977,4.056810631229212
0.6957041762184789,40.05681063122921
0.6967008870726602,31.05681063122921
0.6976975979268414,2.0568106312292116
0.6986943087810226,-43.94318936877079
0.6996910196352037,-77.94318936877079
0.7006877304893849,-65.94318936877079
0.7016844413435661,-36.94318936877079
0.7026811521977474,-5.943189368770788
0.7036778630519286,35.05681063122921
0.7046745739061098,37.05681063122921
0.705671284760291,15.056810631229212
0.7066679956144721,3.0568106312292116
0.7076647064686534,-6.943189368770788
0.7086614173228346,12.056810631229212
0.7096581281770158,10.056810631229212
0.710654839031197,3.0568106312292116
0.7116515498853782,1.0568106312292116
0.7126482607395593,-6.943189368770788
0.7136449715937406,-22.94318936877079
0.7146416824479218,-17.94318936877079
0.715638393302103,-0.9431893687707884
0.7166351041562842,-3.9431893687707884
0.7176318150104654,26.05681063122921
0.7186285258646467,37.05681063122921
0.7196252367188278,5.056810631229212
0.720621947573009,8.056810631229212
0.7216186584271902,43.05681063122921
0.7226153692813714,43.05681063122921
0.7236120801355526,37.05681063122921
0.7246087909897339,-14.943189368770788
0.725605501843915,-87.94318936877079
0.7266022126980962,-66.94318936877079
0.7275989235522774,-34.94318936877079
0.7285956344064586,-23.94318936877079
0.7295923452606399,-26.94318936877079
0.7305890561148211,-16.94318936877079
0.7315857669690022,28.05681063122921
0.7325824778231834,72.05681063122921
0.7335791886773646,94.05681063122921
0.7345758995315458,64.05681063122921
0.7355726103857271,24.05681063122921
0.7365693212399083,-34.94318936877079
0.7375660320940894,-74.94318936877079
0.7385627429482706,-76.94318936877079
0.7395594538024518,-36.94318936877079
0.7405561646566331,-16.94318936877079
0.7415528755108143,-6.943189368770788
0.7425495863649955,29.05681063122921
0.7435462972191766,48.05681063122921
0.7445430080733578,36.05681063122921
0.745539718927539,14.056810631229212
0.7465364297817203,-46.94318936877079
0.7475331406359015,-44.94318936877079
0.7485298514900827,-34.94318936877079
0.7495265623442638,-6.943189368770788
0.750523273198445,17.05681063122921
0.7515199840526262,27.05681063122921
0.7525166949068075,23.05681063122921
0.7535134057609887,43.05681063122921
0.7545101166151699,31.05681063122921
0.755506827469351,8.056810631229212
0.7565035383235322,12.056810631229212
0.7575002491777135,-14.943189368770788
0.7584969600318947,-19.94318936877079
0.7594936708860759,2.0568106312292116
0.7604903817402571,44.05681063122921
0.7614870925944383,65.05681063122921
0.7624838034486194,31.05681063122921
0.7634805143028007,-39.94318936877079
0.7644772251569819,-102.94318936877079
0.7654739360111631,-113.94318936877079
0.7664706468653443,-63.94318936877079
0.7674673577195255,-14.943189368770788
0.7684640685737067,-1.9431893687707884
0.7694607794278879,-7.943189368770788
0.7704574902820691,54.05681063122921
0.7714542011362503,86.05681063122921
0.7724509119904315,76.05681063122921
0.7734476228446127,46.05681063122921
0.774444333698794,2.0568106312292116
0.7754410445529751,-44.94318936877079
0.7764377554071563,-65.94318936877079
0.7774344662613375,-48.94318936877079
0.7784311771155187,-27.94318936877079
0.7794278879697,33.05681063122921
0.7804245988238812,47.05681063122921
0.7814213096780623,-10.943189368770788
0.7824180205322435,-60.94318936877079
0.7834147313864247,-3.9431893687707884
0.7844114422406059,37.05681063122921
0.7854081530947872,55.05681063122921
0.7864048639489684,54.05681063122921
0.7874015748031495,33.05681063122921
0.7883982856573307,-15.943189368770788
0.7893949965115119,-36.94318936877079
0.7903917073656931,-50.94318936877079
0.7913884182198744,-40.94318936877079
0.7923851290740556,-2.9431893687707884
0.7933818399282367,18.05681063122921
0.7943785507824179,51.05681063122921
0.7953752616365991,30.05681063122921
0.7963719724907804,1.0568106312292116
0.7973686833449616,41.05681063122921
0.7983653941991428,25.05681063122921
0.799362105053324,-4.943189368770788
0.8003588159075051,-34.94318936877079
0.8013555267616863,-47.94318936877079
0.8023522376158676,-25.94318936877079
0.8033489484700488,0.056810631229211594
0.80434565932423,-44.94318936877079
0.8053423701784111,-88.94318936877079
0.8063390810325923,-15.943189368770788
0.8073357918867736,30.05681063122921
0.8083325027409548,67.05681063122921
0.809329213595136,88.05681063122921
0.8103259244493172,42.05681063122921
0.8113226353034984,-23.94318936877079
0.8123193461576795,-70.94318936877079
0.8133160570118608,-61.94318936877079
0.814312767866042,-19.94318936877079
0.8153094787202232,9.056810631229212
0.8163061895744044,14.056810631229212
0.8173029004285856,61.05681063122921
0.8182996112827668,38.05681063122921
0.819296322136948,30.05681063122921
0.8202930329911292,6.056810631229212
0.8212897438453104,-30.94318936877079
0.8222864546994916,-32.94318936877079
0.8232831655536728,-33.94318936877079
0.824279876407854,0.056810631229211594
0.8252765872620352,-4.943189368770788
0.8262732981162164,24.05681063122921
0.8272700089703976,77.05681063122921
0.8282667198245788,71.05681063122921
0.8292634306787601,7.056810631229212
0.8302601415329413,-31.94318936877079
0.8312568523871224,-87.94318936877079
0.8322535632413036,-120.94318936877079
0.8332502740954848,-89.94318936877079
0.834246984949666,-37.94318936877079
0.8352436958038473,5.056810631229212
0.8362404066580285,51.05681063122921
0.8372371175122096,53.05681063122921
0.8382338283663908,19.05681063122921
0.839230539220572,3.0568106312292116
0.8402272500747532,-20.94318936877079
0.8412239609289345,-3.9431893687707884
0.8422206717831157,45.05681063122921
0.8432173826372968,95.05681063122921
0.844214093491478,122.05681063122921
0.8452108043456592,68.05681063122921
0.8462075151998405,-5.943189368770788
0.8472042260540217,-37.94318936877079
0.8482009369082029,-62.94318936877079
0.849197647762384,-102.94318936877079
0.8501943586165652,-71.94318936877079
0.8511910694707464,-15.943189368770788
0.8521877803249277,34.05681063122921
0.8531844911791089,46.05681063122921
0.8541812020332901,35.05681063122921
0.8551779128874712,11.056810631229212
0.8561746237416524,6.056810631229212
0.8571713345958337,-36.94318936877079
0.8581680454500149,-26.94318936877079
0.8591647563041961,-3.9431893687707884
0.8601614671583773,-31.94318936877079
0.8611581780125585,-23.94318936877079
0.8621548888667396,16.05681063122921
0.8631515997209209,35.05681063122921
0.8641483105751021,17.05681063122921
0.8651450214292833,-23.94318936877079
0.8661417322834645,-6.943189368770788
0.8671384431376457,10.056810631229212
0.868135153991827,-6.943189368770788
0.8691318648460081,-12.943189368770788
0.8701285757001893,26.05681063122921
0.8711252865543705,46.05681063122921
0.8721219974085517,31.05681063122921
0.8731187082627329,17.05681063122921
0.8741154191169141,56.05681063122921
0.8751121299710953,45.05681063122921
0.8761088408252765,-53.94318936877079
0.8771055516794577,-103.94318936877079
0.8781022625336389,-79.94318936877079
0.8790989733878201,-12.943189368770788
0.8800956842420014,11.056810631229212
0.8810923950961825,67.05681063122921
0.8820891059503637,26.05681063122921
0.8830858168045449,-24.94318936877079
0.8840825276587261,-6.943189368770788
0.8850792385129074,-19.94318936877079
0.8860759493670886,-52.94318936877079
0.8870726602212697,-71.94318936877079
0.8880693710754509,-20.94318936877079
0.8890660819296321,18.05681063122921
0.8900627927838133,29.05681063122921
0.8910595036379946,91.05681063122921
0.8920562144921758,92.05681063122921
0.8930529253463569,25.05681063122921
0.8940496362005381,-29.94318936877079
0.8950463470547193,-78.94318936877079
0.8960430579089006,-78.94318936877079
0.8970397687630818,-15.943189368770788
0.898036479617263,31.05681063122921
0.8990331904714441,33.05681063122921
0.9000299013256253,23.05681063122921
0.9010266121798065,35.05681063122921
0.9020233230339878,29.05681063122921
0.903020033888169,6.056810631229212
0.9040167447423502,-20.94318936877079
0.9050134555965313,-51.94318936877079
0.9060101664507125,-42.94318936877079
0.9070068773048938,-13.943189368770788
0.908003588159075,85.05681063122921
0.9090002990132562,128.0568106312292
0.9099970098674374,98.05681063122921
0.9109937207216185,49.05681063122921
0.9119904315757997,-33.94318936877079
0.912987142429981,-86.94318936877079
0.9139838532841622,-91.94318936877079
0.9149805641383434,-119.94318936877079
0.9159772749925246,-109.94318936877079
0.9169739858467058,-63.94318936877079
0.9179706967008869,5.056810631229212
0.9189674075550682,82.05681063122921
0.9199641184092494,107.05681063122921
0.9209608292634306,67.05681063122921
0.9219575401176118,27.05681063122921
0.922954250971793,-16.94318936877079
0.9239509618259742,-39.94318936877079
0.9249476726801554,-8.943189368770788
0.9259443835343366,-31.94318936877079
0.9269410943885178,-21.94318936877079
0.927937805242699,54.05681063122921
0.9289345160968802,78.05681063122921
0.9299312269510615,4.056810631229212
0.9309279378052426,-36.94318936877079
0.9319246486594238,-58.94318936877079
0.932921359513605,-70.94318936877079
0.9339180703677862,63.05681063122921
0.9349147812219675,61.05681063122921
0.9359114920761487,27.05681063122921
0.9369082029303298,-19.94318936877079
0.937904913784511,-72.94318936877079
0.9389016246386922,-48.94318936877079
0.9398983354928734,3.0568106312292116
0.9408950463470547,0.056810631229211594
0.9418917572012359,6.056810631229212
0.942888468055417,22.05681063122921
0.9438851789095982,19.05681063122921
0.9448818897637794,19.05681063122921
0.9458786006179607,-8.943189368770788
0.9468753114721419,2.0568106312292116
0.9478720223263231,4.056810631229212
0.9488687331805042,0.056810631229211594
0.9498654440346854,-2.9431893687707884
0.9508621548888666,1.0568106312292116
0.9518588657430479,-2.9431893687707884
0.9528555765972291,8.056810631229212
0.9538522874514103,51.05681063122921
0.9548489983055914,36.05681063122921
0.9558457091597726,-25.94318936877079
0.9568424200139538,-36.94318936877079
0.9578391308681351,-30.94318936877079
0.9588358417223163,-6.943189368770788
0.9598325525764975,58.05681063122921
0.9608292634306786,68.05681063122921
0.9618259742848598,93.05681063122921
0.9628226851390411,76.05681063122921
0.9638193959932223,-17.94318936877079
0.9648161068474035,-121.94318936877079
0.9658128177015847,-183.9431893687708
0.9668095285557659,-115.94318936877079
0.967806239409947,-44.94318936877079
0.9688029502641283,15.056810631229212
0.9697996611183095,19.05681063122921
0.9707963719724907,31.05681063122921
0.9717930828266719,45.05681063122921
0.972789793680853,36.05681063122921
0.9737865045350343,-0.9431893687707884
0.9747832153892155,-15.943189368770788
0.9757799262433967,-46.94318936877079
0.9767766370975779,-2.9431893687707884
0.9777733479517591,74.05681063122921
0.9787700588059403,101.05681063122921
0.9797667696601216,121.05681063122921
0.9807634805143027,53.05681063122921
0.9817601913684839,0.056810631229211594
0.9827569022226651,-85.94318936877079
0.9837536130768463,-99.94318936877079
0.9847503239310276,-44.94318936877079
0.9857470347852088,46.05681063122921
0.9867437456393899,72.05681063122921
0.9877404564935711,27.05681063122921
0.9887371673477523,-81.94318936877079
0.9897338782019335,-137.9431893687708
0.9907305890561148,-84.94318936877079
0.991727299910296,11.056810631229212
0.9927240107644771,26.05681063122921
0.9937207216186583,52.05681063122921
0.9947174324728395,72.05681063122921
0.9957141433270208,61.05681063122921
0.996710854181202,29.05681063122921
0.9977075650353832,-20.94318936877079
0.9987042758895643,-46.94318936877079
0.9997009867437455,-57.94318936877079
1.0006976975979267,21.05681063122921
1.001694408452108,28.05681063122921
1.002691119306289,-9.943189368770788
1.0036878301604704,-31.94318936877079
1.0046845410146517,-49.94318936877079
1.0056812518688327,-62.94318936877079
1.006677962723014,-67.94318936877079
1.007674673577195,-5.943189368770788
1.0086713844313764,75.05681063122921
1.0096680952855577,110.05681063122921
1.0106648061397387,93.05681063122921
1.01166151699392,29.05681063122921
1.0126582278481011,-22.94318936877079
1.0136549387022824,-25.94318936877079
1.0146516495564635,-17.94318936877079
1.0156483604106448,4.056810631229212
1.016645071264826,5.056810631229212
1.0176417821190071,-10.943189368770788
1.0186384929731884,-10.943189368770788
1.0196352038273695,-52.94318936877079
1.0206319146815508,-36.94318936877079
1.021628625535732,18.05681063122921
1.0226253363899132,53.05681063122921
1.0236220472440944,118.05681063122921
1.0246187580982755,71.05681063122921
1.0256154689524568,9.056810631229212
1.026612179806638,-28.94318936877079
1.0276088906608192,-44.94318936877079
1.0286056015150005,-31.94318936877079
1.0296023123691815,-19.94318936877079
1.0305990232233628,-7.943189368770788
1.031595734077544,-16.94318936877079
1.0325924449317252,-34.94318936877079
1.0335891557859065,-36.94318936877079
1.0345858666400876,-60.94318936877079
1.0355825774942689,16.05681063122921
1.03657928834845,75.05681063122921
1.0375759992026312,60.05681063122921
1.0385727100568125,6.056810631229212
1.0395694209109936,-62.94318936877079
1.0405661317651749,-67.94318936877079
1.041562842619356,-26.94318936877079
1.0425595534735372,-4.943189368770788
1.0435562643277185,0.056810631229211594
1.0445529751818996,-13.943189368770788
1.045549686036081,-4.943189368770788
1.046546396890262,3.0568106312292116
1.0475431077444433,51.05681063122921
1.0485398185986246,58.05681063122921
1.0495365294528056,19.05681063122921
1.050533240306987,19.05681063122921
1.051529951161168,70.05681063122921
1.0525266620153493,33.05681063122921
1.0535233728695304,-19.94318936877079
1.0545200837237116,-52.94318936877079
1.055516794577893,-60.94318936877079
1.056513505432074,-44.94318936877079
1.0575102162862553,-44.94318936877079
1.0585069271404364,-34.94318936877079
1.0595036379946177,34.05681063122921
1.060500348848799,104.05681063122921
1.06149705970298,159.0568106312292
1.0624937705571613,172.0568106312292
1.0634904814113424,76.05681063122921
1.0644871922655237,-87.94318936877079
1.065483903119705,-143.9431893687708
1.066480613973886,-139.9431893687708
1.0674773248280673,-90.94318936877079
1.0684740356822484,-100.94318936877079
1.0694707465364297,-73.94318936877079
1.0704674573906108,-22.94318936877079
1.071464168244792,28.05681063122921
1.0724608790989734,37.05681063122921
1.0734575899531544,21.05681063122921
1.0744543008073357,19.05681063122921
1.0754510116615168,1.0568106312292116
1.076447722515698,-25.94318936877079
1.0774444333698794,-34.94318936877079
1.0784411442240605,16.05681063122921
1.0794378550782417,82.05681063122921
1.0804345659324228,91.05681063122921
1.0814312767866041,96.05681063122921
1.0824279876407854,57.05681063122921
1.0834246984949665,-26.94318936877079
1.0844214093491478,-36.94318936877079
1.0854181202033288,-37.94318936877079
1.0864148310575101,26.05681063122921
1.0874115419116914,46.05681063122921
1.0884082527658725,-6.943189368770788
1.0894049636200538,-85.94318936877079
1.0904016744742349,-73.94318936877079
1.0913983853284162,-51.94318936877079
1.0923950961825972,54.05681063122921
1.0933918070367785,108.05681063122921
1.0943885178909598,105.05681063122921
1.0953852287451409,39.05681063122921
1.0963819395993222,-64.94318936877079
1.0973786504535032,-88.94318936877079
1.0983753613076845,-114.94318936877079
1.0993720721618658,-122.94318936877079
1.100368783016047,-68.94318936877079
1.1013654938702282,15.056810631229212
1.1023622047244093,65.05681063122921
1.1033589155785906,58.05681063122921
1.1043556264327719,2.0568106312292116
1.105352337286953,-19.94318936877079
1.1063490481411342,20.05681063122921
1.1073457589953153,96.05681063122921
1.1083424698494966,57.05681063122921
1.1093391807036777,13.056810631229212
1.110335891557859,-40.94318936877079
1.1113326024120402,-67.94318936877079
1.1123293132662213,-39.94318936877079
1.1133260241204026,24.05681063122921
1.1143227349745837,56.05681063122921
1.115319445828765,30.05681063122921
1.1163161566829463,18.05681063122921
1.1173128675371273,-3.9431893687707884
1.1183095783913086,-5.943189368770788
1.1193062892454897,0.056810631229211594
1.120303000099671,-25.94318936877079
1.1212997109538523,-42.94318936877079
1.1222964218080334,-32.94318936877079
1.1232931326622146,0.056810631229211594
1.1242898435163957,56.05681063122921
1.125286554370577,114.05681063122921
1.1262832652247583,78.05681063122921
1.1272799760789394,-9.943189368770788
1.1282766869331207,-53.94318936877079
1.1292733977873017,-102.94318936877079
1.130270108641483,-87.94318936877079
1.131266819495664,-41.94318936877079
1.1322635303498454,35.05681063122921
1.1332602412040267,74.05681063122921
1.1342569520582078,32.05681063122921
1.135253662912389,-12.943189368770788
1.1362503737665701,-1.9431893687707884
1.1372470846207514,1.0568106312292116
1.1382437954749327,10.056810631229212
1.1392405063291138,0.056810631229211594
1.140237217183295,-41.94318936877079
1.1412339280374761,-25.94318936877079
1.1422306388916574,-6.943189368770788
1.1432273497458387,-7.943189368770788
1.1442240606000198,0.056810631229211594
1.145220771454201,-11.943189368770788
1.1462174823083822,-4.943189368770788
1.1472141931625635,5.056810631229212
1.1482109040167447,3.0568106312292116
1.1492076148709258,24.05681063122921
1.1502043257251071,27.05681063122921
1.1512010365792882,18.05681063122921
1.1521977474334695,-34.94318936877079
1.1531944582876505,-74.94318936877079
1.1541911691418318,-59.94318936877079
1.1551878799960131,-6.943189368770788
1.1561845908501942,88.05681063122921
1.1571813017043755,121.05681063122921
1.1581780125585566,36.05681063122921
1.1591747234127379,-19.94318936877079
1.1601714342669192,20.05681063122921
1.1611681451211002,50.05681063122921
1.1621648559752815,48.05681063122921
1.1631615668294626,5.056810631229212
1.1641582776836439,-66.94318936877079
1.1651549885378252,-89.94318936877079
1.1661516993920062,-64.94318936877079
1.1671484102461875,-35.94318936877079
1.1681451211003686,-7.943189368770788
1.16914183195455,-5.943189368770788
1.170138542808731,0.056810631229211594
1.1711352536629123,3.0568106312292116
1.1721319645170936,6.056810631229212
1.1731286753712746,28.05681063122921
1.174125386225456,33.05681063122921
1.175122097079637,17.05681063122921
1.1761188079338183,3.0568106312292116
1.1771155187879996,-6.943189368770788
1.1781122296421807,1.0568106312292116
1.179108940496362,12.056810631229212
1.180105651350543,29.05681063122921
1.1811023622047243,14.056810631229212
1.1820990730589056,-17.94318936877079
1.1830957839130867,-17.94318936877079
1.184092494767268,-15.943189368770788
1.185089205621449,-14.943189368770788
1.1860859164756303,20.05681063122921
1.1870826273298116,-16.94318936877079
1.1880793381839927,-55.94318936877079
1.189076049038174,-49.94318936877079
1.190072759892355,-8.943189368770788
1.1910694707465364,47.05681063122921
1.1920661816007174,29.05681063122921
1.1930628924548987,57.05681063122921
1.19405960330908,88.05681063122921
1.195056314163261,12.056810631229212
1.1960530250174424,-22.94318936877079
1.1970497358716234,-34.94318936877079
1.1980464467258047,7.056810631229212
1.199043157579986,11.056810631229212
1.200039868434167,8.056810631229212
1.2010365792883484,-7.943189368770788
1.2020332901425295,-50.94318936877079
1.2030300009967108,-69.94318936877079
1.204026711850892,-38.94318936877079
1.2050234227050731,-8.943189368770788
1.2060201335592544,1.0568106312292116
1.2070168444134355,-0.9431893687707884
1.2080135552676168,-20.94318936877079
1.2090102661217978,12.056810631229212
1.2100069769759791,64.05681063122921
1.2110036878301604,84.05681063122921
1.2120003986843415,33.05681063122921
1.2129971095385228,5.056810631229212
1.2139938203927039,-22.94318936877079
1.2149905312468852,-25.94318936877079
1.2159872421010665,-26.94318936877079
1.2169839529552475,3.0568106312292116
1.2179806638094288,4.056810631229212
1.21897737466361,3.0568106312292116
1.2199740855177912,-4.943189368770788
1.2209707963719725,-2.9431893687707884
1.2219675072261535,19.05681063122921
1.2229642180803348,19.05681063122921
1.223960928934516,4.056810631229212
1.2249576397886972,-18.94318936877079
1.2259543506428785,-24.94318936877079
1.2269510614970596,-10.943189368770788
1.2279477723512409,-10.943189368770788
1.228944483205422,-13.943189368770788
1.2299411940596032,-34.94318936877079
1.2309379049137843,-34.94318936877079
1.2319346157679656,-1.9431893687707884
1.2329313266221469,27.05681063122921
1.233928037476328,26.05681063122921
1.2349247483305092,11.056810631229212
1.2359214591846903,-4.943189368770788
1.2369181700388716,-4.943189368770788
1.237914880893053,-4.943189368770788
1.238911591747234,16.05681063122921
1.2399083026014153,30.05681063122921
1.2409050134555963,24.05681063122921
1.2419017243097776,4.056810631229212
1.242898435163959,9.056810631229212
1.24389514601814,-10.943189368770788
1.2448918568723213,-15.943189368770788
1.2458885677265024,18.05681063122921
1.2468852785806837,18.05681063122921
1.2478819894348647,-0.9431893687707884
1.248878700289046,-18.94318936877079
1.2498754111432273,-12.943189368770788
1.2508721219974084,6.056810631229212
1.2518688328515897,-1.9431893687707884
1.2528655437057707,-9.943189368770788
1.253862254559952,-20.94318936877079
1.2548589654141333,-43.94318936877079
1.2558556762683144,-33.94318936877079
1.2568523871224957,35.05681063122921
1.2578490979766768,58.05681063122921
1.258845808830858,61.05681063122921
1.2598425196850394,43.05681063122921
1.2608392305392204,15.056810631229212
1.2618359413934017,-13.943189368770788
1.2628326522475828,-52.94318936877079
1.263829363101764,-55.94318936877079
1.2648260739559454,-55.94318936877079
1.2658227848101264,-23.94318936877079
1.2668194956643077,-13.943189368770788
1.2678162065184888,-8.943189368770788
1.26881291737267,4.056810631229212
1.2698096282268512,21.05681063122921
1.2708063390810325,51.05681063122921
1.2718030499352138,51.05681063122921
1.2727997607893948,46.05681063122921
1.2737964716435761,29.05681063122921
1.2747931824977572,-28.94318936877079
1.2757898933519385,-62.94318936877079
1.2767866042061198,-78.94318936877079
1.2777833150603009,-48.94318936877079
1.2787800259144821,-4.943189368770788
1.2797767367686632,37.05681063122921
1.2807734476228445,60.05681063122921
1.2817701584770258,64.05681063122921
1.2827668693312069,58.05681063122921
1.2837635801853882,-41.94318936877079
1.2847602910395692,-55.94318936877079
1.2857570018937505,-25.94318936877079
1.2867537127479316,12.056810631229212
1.287750423602113,31.05681063122921
1.2887471344562942,6.056810631229212
1.2897438453104753,-30.94318936877079
1.2907405561646565,-8.943189368770788
1.2917372670188376,-14.943189368770788
1.292733977873019,-9.943189368770788
1.2937306887272002,52.05681063122921
1.2947273995813813,40.05681063122921
1.2957241104355626,36.05681063122921
1.2967208212897436,22.05681063122921
1.297717532143925,-0.9431893687707884
1.2987142429981062,-4.943189368770788
1.2997109538522873,-17.94318936877079
1.3007076647064686,-20.94318936877079
1.3017043755606497,-18.94318936877079
1.302701086414831,-6.943189368770788
1.3036977972690122,-37.94318936877079
1.3046945081231933,-33.94318936877079
1.3056912189773746,-17.94318936877079
1.3066879298315557,-31.94318936877079
1.307684640685737,-23.94318936877079
1.308681351539918,13.056810631229212
1.3096780623940993,25.05681063122921
1.3106747732482806,-1.9431893687707884
1.3116714841024617,-35.94318936877079
1.312668194956643,-10.943189368770788
1.313664905810824,45.05681063122921
1.3146616166650054,93.05681063122921
1.3156583275191867,145.0568106312292
1.3166550383733677,102.05681063122921
1.317651749227549,-62.94318936877079
1.31864846008173,-103.94318936877079
1.3196451709359114,-86.94318936877079
1.3206418817900927,-57.94318936877079
1.3216385926442737,-34.94318936877079
1.322635303498455,2.0568106312292116
1.323632014352636,35.05681063122921
1.3246287252068174,23.05681063122921
1.3256254360609985,21.05681063122921
1.3266221469151798,9.056810631229212
1.327618857769361,12.056810631229212
1.3286155686235421,5.056810631229212
1.3296122794777234,2.0568106312292116
1.3306089903319045,-5.943189368770788
1.3316057011860858,-20.94318936877079
1.332602412040267,-33.94318936877079
1.3335991228944482,-14.943189368770788
1.3345958337486294,44.05681063122921
1.3355925446028105,61.05681063122921
1.3365892554569918,38.05681063122921
1.337585966311173,-6.943189368770788
1.3385826771653542,-59.94318936877079
1.3395793880195355,-56.94318936877079
1.3405760988737165,-14.943189368770788
1.3415728097278978,17.05681063122921
1.3425695205820791,20.05681063122921
1.3435662314362602,9.056810631229212
1.3445629422904415,-30.94318936877079
1.3455596531446226,-69.94318936877079
1.3465563639988039,-62.94318936877079
1.347553074852985,2.0568106312292116
1.3485497857071662,43.05681063122921
1.3495464965613475,112.05681063122921
1.3505432074155286,123.05681063122921
1.3515399182697099,69.05681063122921
1.352536629123891,5.056810631229212
1.3535333399780722,-58.94318936877079
1.3545300508322535,-68.94318936877079
1.3555267616864346,-45.94318936877079
1.356523472540616,-29.94318936877079
1.357520183394797,-19.94318936877079
1.3585168942489783,-19.94318936877079
1.3595136051031596,-18.94318936877079
1.3605103159573406,7.056810631229212
1.361507026811522,8.056810631229212
1.362503737665703,3.0568106312292116
1.3635004485198843,15.056810631229212
1.3644971593740653,-0.9431893687707884
1.3654938702282466,-19.94318936877079
1.366490581082428,-7.943189368770788
1.367487291936609,32.05681063122921
1.3684840027907903,41.05681063122921
1.3694807136449714,23.05681063122921
1.3704774244991527,42.05681063122921
1.371474135353334,37.05681063122921
1.372470846207515,12.056810631229212
1.3734675570616963,-0.9431893687707884
1.3744642679158774,-37.94318936877079
1.3754609787700587,-71.94318936877079
1.37645768962424,-66.94318936877079
1.377454400478421,-47.94318936877079
1.3784511113326023,-28.94318936877079
1.3794478221867834,17.05681063122921
1.3804445330409647,19.05681063122921
1.381441243895146,30.05681063122921
1.382437954749327,32.05681063122921
1.3834346656035084,48.05681063122921
1.3844313764576894,36.05681063122921
1.3854280873118707,40.05681063122921
1.3864247981660518,4.056810631229212
1.387421509020233,-50.94318936877079
1.3884182198744144,-42.94318936877079
1.3894149307285955,-21.94318936877079
1.3904116415827767,-28.94318936877079
1.3914083524369578,-19.94318936877079
1.3924050632911391,4.056810631229212
1.3934017741453204,-6.943189368770788
1.3943984849995015,-10.943189368770788
1.3953951958536828,20.05681063122921
1.3963919067078638,57.05681063122921
1.3973886175620451,143.0568106312292
1.3983853284162264,87.05681063122921
1.3993820392704075,-17.94318936877079
1.4003787501245888,-63.94318936877079
1.4013754609787699,-71.94318936877079
1.4023721718329512,-66.94318936877079
1.4033688826871322,-54.94318936877079
1.4043655935413135,-0.9431893687707884
1.4053623043954948,22.05681063122921
1.4063590152496759,39.05681063122921
1.4073557261038572,21.05681063122921
1.4083524369580382,2.0568106312292116
1.4093491478122195,-27.94318936877079
1.4103458586664008,-55.94318936877079
1.411342569520582,-33.94318936877079
1.4123392803747632,12.056810631229212
1.4133359912289443,35.05681063122921
1.4143327020831256,16.05681063122921
1.4153294129373069,20.05681063122921
1.416326123791488,3.0568106312292116
1.4173228346456692,-6.943189368770788
1.4183195454998503,5.056810631229212
1.4193162563540316,-36.94318936877079
1.4203129672082129,-39.94318936877079
1.421309678062394,-9.943189368770788
1.4223063889165752,5.056810631229212
1.4233030997707563,23.05681063122921
1.4242998106249376,8.056810631229212
1.4252965214791187,-3.9431893687707884
1.4262932323333,-19.94318936877079
1.4272899431874813,-11.943189368770788
1.4282866540416623,7.056810631229212
1.4292833648958436,14.056810631229212
1.4302800757500247,42.05681063122921
1.431276786604206,68.05681063122921
1.4322734974583873,101.05681063122921
1.4332702083125684,64.05681063122921
1.4342669191667496,-37.94318936877079
1.4352636300209307,-45.94318936877079
1.436260340875112,-57.94318936877079
1.4372570517292933,-45.94318936877079
1.4382537625834744,-26.94318936877079
1.4392504734376557,-35.94318936877079
1.4402471842918367,-31.94318936877079
1.441243895146018,-11.943189368770788
1.4422406060001993,-7.943189368770788
1.4432373168543804,20.05681063122921
1.4442340277085617,24.05681063122921
1.4452307385627428,20.05681063122921
1.446227449416924,9.056810631229212
1.4472241602711051,-4.943189368770788
1.4482208711252864,-17.94318936877079
1.4492175819794677,11.056810631229212
1.4502142928336488,51.05681063122921
1.45121100368783,46.05681063122921
1.4522077145420111,9.056810631229212
1.4532044253961924,-7.943189368770788
1.4542011362503737,-30.94318936877079
1.4551978471045548,-57.94318936877079
1.456194557958736,-20.94318936877079
1.4571912688129172,14.056810631229212
1.4581879796670985,-7.943189368770788
1.4591846905212797,-3.9431893687707884
1.4601814013754608,6.056810631229212
1.4611781122296421,2.0568106312292116
1.4621748230838232,-9.943189368770788
1.4631715339380045,-0.9431893687707884
1.4641682447921855,18.05681063122921
1.4651649556463668,1.0568106312292116
1.4661616665005481,-3.9431893687707884
1.4671583773547292,1.0568106312292116
1.4681550882089105,-0.9431893687707884
1.4691517990630916,-5.943189368770788
1.4701485099172729,-6.943189368770788
1.4711452207714542,-9.943189368770788
1.4721419316256352,4.056810631229212
1.4731386424798165,9.056810631229212
1.4741353533339976,8.056810631229212
1.4751320641881789,30.05681063122921
1.4761287750423602,39.05681063122921
1.4771254858965412,-8.943189368770788
1.4781221967507225,-23.94318936877079
1.4791189076049036,-19.94318936877079
1.480115618459085,-35.94318936877079
1.4811123293132662,-4.943189368770788
1.4821090401674473,33.05681063122921
1.4831057510216286,16.05681063122921
1.4841024618758096,5.056810631229212
1.485099172729991,4.056810631229212
1.486095883584172,-12.943189368770788
1.4870925944383533,-16.94318936877079
1.4880893052925346,-19.94318936877079
1.4890860161467157,-1.9431893687707884
1.490082727000897,29.05681063122921
1.491079437855078,67.05681063122921
1.4920761487092593,31.05681063122921
1.4930728595634406,-22.94318936877079
1.4940695704176217,-17.94318936877079
1.495066281271803,-7.943189368770788
1.496062992125984,-7.943189368770788
1.4970597029801653,-43.94318936877079
1.4980564138343466,-58.94318936877079
1.4990531246885277,7.056810631229212
1.500049835542709,93.05681063122921
1.50104654639689,94.05681063122921
1.5020432572510714,81.05681063122921
1.5030399681052524,-25.94318936877079
1.5040366789594337,-88.94318936877079
1.505033389813615,-74.94318936877079
1.506030100667796,-14.943189368770788
1.5070268115219774,30.05681063122921
1.5080235223761584,10.056810631229212
1.5090202332303397,-47.94318936877079
1.510016944084521,-54.94318936877079
1.511013654938702,-80.94318936877079
1.5120103657928834,-65.94318936877079
1.5130070766470645,-10.943189368770788
1.5140037875012458,50.05681063122921
1.515000498355427,55.05681063122921
1.5159972092096081,25.05681063122921
1.5169939200637894,9.056810631229212
1.5179906309179705,40.05681063122921
1.5189873417721518,48.05681063122921
1.519984052626333,38.05681063122921
1.5209807634805141,18.05681063122921
1.5219774743346954,-14.943189368770788
1.5229741851888765,-33.94318936877079
1.5239708960430578,-17.94318936877079
1.5249676068972389,9.056810631229212
1.5259643177514202,64.05681063122921
1.5269610286056015,49.05681063122921
1.5279577394597825,-17.94318936877079
1.5289544503139638,-51.94318936877079
1.529951161168145,-33.94318936877079
1.5309478720223262,4.056810631229212
1.5319445828765075,4.056810631229212
1.5329412937306885,-17.94318936877079
1.5339380045848698,-23.94318936877079
1.534934715439051,6.056810631229212
1.5359314262932322,3.0568106312292116
1.5369281371474135,0.056810631229211594
1.5379248480015946,7.056810631229212
1.5389215588557759,7.056810631229212
1.539918269709957,10.056810631229212
1.5409149805641382,-2.9431893687707884
1.5419116914183193,-5.943189368770788
1.5429084022725006,-2.9431893687707884
1.5439051131266819,-7.943189368770788
1.544901823980863,-9.943189368770788
1.5458985348350442,2.0568106312292116
1.5468952456892253,3.0568106312292116
1.5478919565434066,8.056810631229212
1.548888667397588,19.05681063122921
1.549885378251769,20.05681063122921
1.5508820891059503,-9.943189368770788
1.5518787999601313,-14.943189368770788
1.5528755108143126,1.0568106312292116
1.553872221668494,-7.943189368770788
1.554868932522675,-27.94318936877079
1.5558656433768563,-15.943189368770788
1.5568623542310374,12.056810631229212
1.5578590650852187,32.05681063122921
1.5588557759394,35.05681063122921
1.559852486793581,18.05681063122921
1.5608491976477623,16.05681063122921
1.5618459085019434,-1.9431893687707884
1.5628426193561247,3.0568106312292116
1.5638393302103057,11.056810631229212
1.564836041064487,-1.9431893687707884
1.5658327519186683,-13.943189368770788
1.5668294627728494,-40.94318936877079
1.5678261736270307,-75.94318936877079
1.5688228844812118,-89.94318936877079
1.569819595335393,-32.94318936877079
1.5708163061895744,1.0568106312292116
1.5718130170437554,35.05681063122921
1.5728097278979367,32.05681063122921
1.5738064387521178,7.056810631229212
1.574803149606299,-3.9431893687707884
1.5757998604604804,-28.94318936877079
1.5767965713146614,8.056810631229212
1.5777932821688427,63.05681063122921
1.5787899930230238,103.05681063122921
1.579786703877205,72.05681063122921
1.5807834147313862,6.056810631229212
1.5817801255855675,-34.94318936877079
1.5827768364397488,-18.94318936877079
1.5837735472939298,-5.943189368770788
1.5847702581481111,-29.94318936877079
1.5857669690022922,-51.94318936877079
1.5867636798564735,-18.94318936877079
1.5877603907106548,8.056810631229212
1.5887571015648358,-3.9431893687707884
1.5897538124190171,-9.943189368770788
1.5907505232731982,-4.943189368770788
1.5917472341273795,13.056810631229212
1.5927439449815608,35.05681063122921
1.5937406558357419,85.05681063122921
1.5947373666899232,59.05681063122921
1.5957340775441042,32.05681063122921
1.5967307883982855,-41.94318936877079
1.5977274992524668,-66.94318936877079
1.598724210106648,-56.94318936877079
1.5997209209608292,-22.94318936877079
1.6007176318150103,11.056810631229212
1.6017143426691915,4.056810631229212
1.6027110535233726,-23.94318936877079
1.603707764377554,-51.94318936877079
1.6047044752317352,-52.94318936877079
1.6057011860859163,-49.94318936877079
1.6066978969400976,-19.94318936877079
1.6076946077942786,16.05681063122921
1.60869131864846,45.05681063122921
1.6096880295026412,45.05681063122921
1.6106847403568223,44.05681063122921
1.6116814512110036,24.05681063122921
1.6126781620651847,20.05681063122921
1.613674872919366,16.05681063122921
1.6146715837735472,13.056810631229212
1.6156682946277283,0.056810631229211594
1.6166650054819096,-6.943189368770788
1.6176617163360907,-2.9431893687707884
1.618658427190272,7.056810631229212
1.619655138044453,12.056810631229212
1.6206518488986343,44.05681063122921
1.6216485597528156,14.056810631229212
1.6226452706069967,-25.94318936877079
1.623641981461178,-32.94318936877079
1.624638692315359,-14.943189368770788
1.6256354031695404,7.056810631229212
1.6266321140237217,-19.94318936877079
1.6276288248779027,-34.94318936877079
1.628625535732084,-44.94318936877079
1.629622246586265,-50.94318936877079
1.6306189574404464,-10.943189368770788
1.6316156682946277,5.056810631229212
1.6326123791488087,47.05681063122921
1.63360909000299,57.05681063122921
1.634605800857171,38.05681063122921
1.6356025117113524,17.05681063122921
1.6365992225655337,-19.94318936877079
1.6375959334197148,-34.94318936877079
1.638592644273896,-12.943189368770788
1.6395893551280771,42.05681063122921
1.6405860659822584,73.05681063122921
1.6415827768364395,51.05681063122921
1.6425794876906208,4.056810631229212
1.643576198544802,-55.94318936877079
1.6445729093989832,-76.94318936877079
1.6455696202531644,-69.94318936877079
1.6465663311073455,-30.94318936877079
1.6475630419615268,-2.9431893687707884
1.648559752815708,4.056810631229212
1.6495564636698892,12.056810631229212
1.6505531745240705,8.056810631229212
1.6515498853782515,8.056810631229212
1.6525465962324328,13.056810631229212
1.6535433070866141,28.05681063122921
1.6545400179407952,13.056810631229212
1.6555367287949765,12.056810631229212
1.6565334396491576,3.0568106312292116
1.6575301505033389,-11.943189368770788
1.6585268613575201,-29.94318936877079
1.6595235722117012,-26.94318936877079
1.6605202830658825,41.05681063122921
1.6615169939200636,107.05681063122921
1.6625137047742449,43.05681063122921
1.663510415628426,-22.94318936877079
1.6645071264826072,-56.94318936877079
1.6655038373367885,-60.94318936877079
1.6665005481909696,-52.94318936877079
1.667497259045151,-16.94318936877079
1.668493969899332,-2.9431893687707884
1.6694906807535133,8.056810631229212
1.6704873916076945,11.056810631229212
1.6714841024618756,5.056810631229212
1.672480813316057,-8.943189368770788
1.673477524170238,3.0568106312292116
1.6744742350244193,22.05681063122921
1.6754709458786006,38.05681063122921
1.6764676567327816,51.05681063122921
1.677464367586963,59.05681063122921
1.678461078441144,36.05681063122921
1.6794577892953253,3.0568106312292116
1.6804545001495064,-29.94318936877079
1.6814512110036877,-54.94318936877079
1.682447921857869,-53.94318936877079
1.68344463271205,-25.94318936877079
1.6844413435662313,-4.943189368770788
1.6854380544204124,11.056810631229212
1.6864347652745937,9.056810631229212
1.687431476128775,6.056810631229212
1.688428186982956,-9.943189368770788
1.6894248978371373,-43.94318936877079
1.6904216086913184,-37.94318936877079
1.6914183195454997,-14.943189368770788
1.692415030399681,0.056810631229211594
1.693411741253862,-5.943189368770788
1.6944084521080434,-4.943189368770788
1.6954051629622244,8.056810631229212
1.6964018738164057,16.05681063122921
1.697398584670587,41.05681063122921
1.698395295524768,30.05681063122921
1.6993920063789494,26.05681063122921
1.7003887172331305,15.056810631229212
1.7013854280873117,8.056810631229212
1.7023821389414928,-7.943189368770788
1.703378849795674,7.056810631229212
1.7043755606498554,16.05681063122921
1.7053722715040365,-15.943189368770788
1.7063689823582178,-44.94318936877079
1.7073656932123988,-28.94318936877079
1.7083624040665801,7.056810631229212
1.7093591149207614,12.056810631229212
1.7103558257749425,-14.943189368770788
1.7113525366291238,-20.94318936877079
1.7123492474833049,7.056810631229212
1.7133459583374862,21.05681063122921
1.7143426691916674,30.05681063122921
1.7153393800458485,27.05681063122921
1.7163360909000298,9.056810631229212
1.7173328017542109,22.05681063122921
1.7183295126083922,37.05681063122921
1.7193262234625732,33.05681063122921
1.7203229343167545,-7.943189368770788
1.7213196451709358,-32.94318936877079
1.722316356025117,-21.94318936877079
1.7233130668792982,-63.94318936877079
1.7243097777334793,-32.94318936877079
1.7253064885876606,8.056810631229212
1.7263031994418419,4.056810631229212
1.727299910296023,-15.943189368770788
1.7282966211502042,-18.94318936877079
1.7292933320043853,-20.94318936877079
1.7302900428585666,-20.94318936877079
1.7312867537127479,2.0568106312292116
1.732283464566929,4.056810631229212
1.7332801754211102,40.05681063122921
1.7342768862752913,82.05681063122921
1.7352735971294726,33.05681063122921
1.736270307983654,-14.943189368770788
1.737267018837835,-43.94318936877079
1.7382637296920163,-50.94318936877079
1.7392604405461973,-26.94318936877079
1.7402571514003786,-13.943189368770788
1.7412538622545597,22.05681063122921
1.742250573108741,22.05681063122921
1.7432472839629223,23.05681063122921
1.7442439948171033,16.05681063122921
1.7452407056712846,-24.94318936877079
1.7462374165254657,-11.943189368770788
1.747234127379647,5.056810631229212
1.7482308382338283,-7.943189368770788
1.7492275490880094,-6.943189368770788
1.7502242599421907,1.0568106312292116
1.7512209707963717,6.056810631229212
1.752217681650553,0.056810631229211594
1.7532143925047343,0.056810631229211594
1.7542111033589154,15.056810631229212
1.7552078142130967,12.056810631229212
1.7562045250672778,5.056810631229212
1.757201235921459,7.056810631229212
1.7581979467756401,20.05681063122921
1.7591946576298214,12.056810631229212
1.7601913684840027,-2.9431893687707884
1.7611880793381838,-17.94318936877079
1.762184790192365,-14.943189368770788
1.7631815010465461,3.0568106312292116
1.7641782119007274,-2.9431893687707884
1.7651749227549087,-26.94318936877079
1.7661716336090898,-33.94318936877079
1.767168344463271,-4.943189368770788
1.7681650553174522,29.05681063122921
1.7691617661716335,30.05681063122921
1.7701584770258147,43.05681063122921
1.7711551878799958,0.056810631229211594
1.7721518987341771,8.056810631229212
1.7731486095883582,20.05681063122921
1.7741453204425395,47.05681063122921
1.7751420312967208,36.05681063122921
1.7761387421509018,-34.94318936877079
1.7771354530050831,-78.94318936877079
1.7781321638592642,-65.94318936877079
1.7791288747134455,-76.94318936877079
1.7801255855676266,-47.94318936877079
1.7811222964218079,-0.9431893687707884
1.7821190072759892,43.05681063122921
1.7831157181301702,43.05681063122921
1.7841124289843515,26.05681063122921
1.7851091398385326,-14.943189368770788
1.7861058506927139,-20.94318936877079
1.7871025615468952,-3.9431893687707884
1.7880992724010762,8.056810631229212
1.7890959832552575,27.05681063122921
1.7900926941094386,32.05681063122921
1.79108940496362,14.056810631229212
1.7920861158178012,1.0568106312292116
1.7930828266719823,-26.94318936877079
1.7940795375261636,-12.943189368770788
1.7950762483803446,4.056810631229212
1.796072959234526,10.056810631229212
1.797069670088707,18.05681063122921
1.7980663809428883,18.05681063122921
1.7990630917970696,25.05681063122921
1.8000598026512507,16.05681063122921
1.801056513505432,-0.9431893687707884
1.802053224359613,-14.943189368770788
1.8030499352137943,-31.94318936877079
1.8040466460679756,-31.94318936877079
1.8050433569221567,-25.94318936877079
1.806040067776338,-13.943189368770788
1.807036778630519,5.056810631229212
1.8080334894847003,4.056810631229212
1.8090302003388816,3.0568106312292116
1.8100269111930627,0.056810631229211594
1.811023622047244,7.056810631229212
1.812020332901425,4.056810631229212
1.8130170437556064,1.0568106312292116
1.8140137546097876,0.056810631229211594
1.8150104654639687,9.056810631229212
1.81600717631815,18.05681063122921
1.817003887172331,5.056810631229212
1.8180005980265124,3.0568106312292116
1.8189973088806934,-3.9431893687707884
1.8199940197348747,-22.94318936877079
1.820990730589056,-26.94318936877079
1.821987441443237,-9.943189368770788
1.8229841522974184,26.05681063122921
1.8239808631515995,56.05681063122921
1.8249775740057808,61.05681063122921
1.825974284859962,44.05681063122921
1.8269709957141431,-23.94318936877079
1.8279677065683244,-58.94318936877079
1.8289644174225055,-30.94318936877079
1.8299611282766868,-15.943189368770788
1.830957839130868,-21.94318936877079
1.8319545499850491,-15.943189368770788
1.8329512608392304,-7.943189368770788
1.8339479716934115,-22.94318936877079
1.8349446825475928,-23.94318936877079
1.8359413934017739,-1.9431893687707884
1.8369381042559552,38.05681063122921
1.8379348151101365,0.056810631229211594
1.8389315259643175,4.056810631229212
1.8399282368184988,74.05681063122921
1.84092494767268,71.05681063122921
1.8419216585268612,20.05681063122921
1.8429183693810425,-5.943189368770788
1.8439150802352235,-66.94318936877079
1.8449117910894048,-47.94318936877079
1.845908501943586,-41.94318936877079
1.8469052127977672,-58.94318936877079
1.8479019236519485,-26.94318936877079
1.8488986345061296,-0.9431893687707884
1.8498953453603109,-5.943189368770788
1.850892056214492,-16.94318936877079
1.8518887670686732,-4.943189368770788
1.8528854779228545,26.05681063122921
1.8538821887770356,36.05681063122921
1.8548788996312169,42.05681063122921
1.855875610485398,62.05681063122921
1.8568723213395792,37.05681063122921
1.8578690321937603,20.05681063122921
1.8588657430479416,30.05681063122921
1.859862453902123,14.056810631229212
1.860859164756304,-12.943189368770788
1.8618558756104853,-46.94318936877079
1.8628525864646663,-51.94318936877079
1.8638492973188476,-33.94318936877079
1.864846008173029,-17.94318936877079
1.86584271902721,4.056810631229212
1.8668394298813913,10.056810631229212
1.8678361407355724,4.056810631229212
1.8688328515897537,25.05681063122921
1.869829562443935,31.05681063122921
1.870826273298116,12.056810631229212
1.8718229841522973,-6.943189368770788
1.8728196950064784,-50.94318936877079
1.8738164058606597,-66.94318936877079
1.8748131167148407,-16.94318936877079
1.875809827569022,39.05681063122921
1.8768065384232033,64.05681063122921
1.8778032492773844,64.05681063122921
1.8787999601315657,35.05681063122921
1.8797966709857468,-17.94318936877079
1.880793381839928,-67.94318936877079
1.8817900926941094,-56.94318936877079
1.8827868035482904,-22.94318936877079
1.8837835144024717,4.056810631229212
1.8847802252566528,-2.9431893687707884
1.885776936110834,-12.943189368770788
1.8867736469650154,-7.943189368770788
1.8877703578191964,-5.943189368770788
1.8887670686733777,-1.9431893687707884
1.8897637795275588,5.056810631229212
1.89076049038174,12.056810631229212
1.8917572012359214,23.05681063122921
1.8927539120901025,43.05681063122921
1.8937506229442838,50.05681063122921
1.8947473337984648,29.05681063122921
1.8957440446526461,21.05681063122921
1.8967407555068272,1.0568106312292116
1.8977374663610085,-36.94318936877079
1.8987341772151898,-36.94318936877079
1.8997308880693708,-43.94318936877079
1.9007275989235521,-43.94318936877079
1.9017243097777332,25.05681063122921
1.9027210206319145,74.05681063122921
1.9037177314860958,51.05681063122921
1.9047144423402769,-6.943189368770788
1.9057111531944582,-73.94318936877079
1.9067078640486392,-85.94318936877079
1.9077045749028205,-47.94318936877079
1.9087012857570018,-4.943189368770788
1.909697996611183,-0.9431893687707884
1.9106947074653642,23.05681063122921
1.9116914183195453,74.05681063122921
1.9126881291737265,96.05681063122921
1.9136848400279076,84.05681063122921
1.914681550882089,42.05681063122921
1.9156782617362702,-19.94318936877079
1.9166749725904513,-91.94318936877079
1.9176716834446326,-75.94318936877079
1.9186683942988136,-61.94318936877079
1.919665105152995,-33.94318936877079
1.9206618160071762,-1.9431893687707884
1.9216585268613573,13.056810631229212
1.9226552377155386,13.056810631229212
1.9236519485697197,-3.9431893687707884
1.924648659423901,-4.943189368770788
1.9256453702780822,3.0568106312292116
1.9266420811322633,6.056810631229212
1.9276387919864446,2.0568106312292116
1.9286355028406257,24.05681063122921
1.929632213694807,72.05681063122921
1.9306289245489883,62.05681063122921
1.9316256354031693,20.05681063122921
1.9326223462573506,-13.943189368770788
1.9336190571115317,-35.94318936877079
1.934615767965713,-49.94318936877079
1.935612478819894,-56.94318936877079
1.9366091896740754,-59.94318936877079
1.9376059005282567,-25.94318936877079
1.9386026113824377,12.056810631229212
1.939599322236619,52.05681063122921
1.9405960330908,73.05681063122921
1.9415927439449814,42.05681063122921
1.9425894547991627,0.056810631229211594
1.9435861656533437,-28.94318936877079
1.944582876507525,-35.94318936877079
1.945579587361706,-31.94318936877079
1.9465762982158874,-19.94318936877079
1.9475730090700687,-10.943189368770788
1.9485697199242498,-1.9431893687707884
1.949566430778431,4.056810631229212
1.9505631416326121,2.0568106312292116
1.9515598524867934,8.056810631229212
1.9525565633409747,26.05681063122921
1.9535532741951558,34.05681063122921
1.954549985049337,19.05681063122921
1.9555466959035182,14.056810631229212
1.9565434067576994,21.05681063122921
1.9575401176118805,20.05681063122921
1.9585368284660618,16.05681063122921
1.959533539320243,16.05681063122921
1.9605302501744242,-8.943189368770788
1.9615269610286055,-34.94318936877079
1.9625236718827865,-64.94318936877079
1.9635203827369678,-71.94318936877079
1.9645170935911491,-51.94318936877079
1.9655138044453302,-17.94318936877079
1.9665105152995115,9.056810631229212
1.9675072261536926,5.056810631229212
1.9685039370078738,20.05681063122921
1.9695006478620551,49.05681063122921
1.9704973587162362,53.05681063122921
1.9714940695704175,48.05681063122921
1.9724907804245986,5.056810631229212
1.9734874912787799,-32.94318936877079
1.974484202132961,-46.94318936877079
1.9754809129871422,-33.94318936877079
1.9764776238413235,6.056810631229212
1.9774743346955046,30.05681063122921
1.978471045549686,11.056810631229212
1.979467756403867,-11.943189368770788
1.9804644672580483,-3.9431893687707884
1.9814611781122295,21.05681063122921
1.9824578889664106,40.05681063122921
1.983454599820592,33.05681063122921
1.984451310674773,7.056810631229212
1.9854480215289543,-15.943189368770788
1.9864447323831356,-41.94318936877079
1.9874414432373166,-53.94318936877079
1.988438154091498,-74.94318936877079
1.989434864945679,-53.94318936877079
1.9904315757998603,5.056810631229212
1.9914282866540416,73.05681063122921
1.9924249975082227,77.05681063122921
1.993421708362404,66.05681063122921
1.994418419216585,22.05681063122921
1.9954151300707663,-46.94318936877079
1.9964118409249474,-52.94318936877079
1.9974085517791287,-34.94318936877079
1.99840526263331,5.056810631229212
1.999401973487491,9.056810631229212
2.0003986843416723,4.056810631229212
2.0013953951958534,10.056810631229212
2.0023921060500345,8.056810631229212
2.003388816904216,-9.943189368770788
2.004385527758397,-7.943189368770788
2.005382238612578,12.056810631229212
2.0063789494667597,11.056810631229212
2.0073756603209407,4.056810631229212
2.008372371175122,5.056810631229212
2.0093690820293033,-4.943189368770788
2.0103657928834844,20.05681063122921
2.0113625037376655,37.05681063122921
2.0123592145918465,3.0568106312292116
2.013355925446028,-4.943189368770788
2.014352636300209,4.056810631229212
2.01534934715439,-15.943189368770788
2.0163460580085717,-37.94318936877079
2.0173427688627528,-50.94318936877079
2.018339479716934,8.056810631229212
2.0193361905711154,49.05681063122921
2.0203329014252964,40.05681063122921
2.0213296122794775,-2.9431893687707884
2.0223263231336586,-46.94318936877079
2.02332303398784,-44.94318936877079
2.024319744842021,-31.94318936877079
2.0253164556962022,-12.943189368770788
2.0263131665503837,-1.9431893687707884
2.027309877404565,4.056810631229212
2.028306588258746,1.0568106312292116
2.029303299112927,10.056810631229212
2.0303000099671085,17.05681063122921
2.0312967208212895,16.05681063122921
2.0322934316754706,23.05681063122921
2.033290142529652,36.05681063122921
2.034286853383833,16.05681063122921
2.0352835642380143,9.056810631229212
2.036280275092196,-23.94318936877079
2.037276985946377,-29.94318936877079
2.038273696800558,-9.943189368770788
2.039270407654739,-2.9431893687707884
2.0402671185089205,21.05681063122921
2.0412638293631016,24.05681063122921
2.0422605402172826,32.05681063122921
2.043257251071464,43.05681063122921
2.0442539619256452,14.056810631229212
2.0452506727798263,-36.94318936877079
2.0462473836340074,-51.94318936877079
2.047244094488189,-46.94318936877079
2.04824080534237,-16.94318936877079
2.049237516196551,29.05681063122921
2.0502342270507325,22.05681063122921
2.0512309379049136,-6.943189368770788
2.0522276487590947,-13.943189368770788
2.053224359613276,-8.943189368770788
2.0542210704674573,8.056810631229212
2.0552177813216383,20.05681063122921
2.0562144921758194,11.056810631229212
2.057211203030001,1.0568106312292116
2.058207913884182,-10.943189368770788
2.059204624738363,-4.943189368770788
2.0602013355925446,11.056810631229212
2.0611980464467257,-2.9431893687707884
2.0621947573009067,-26.94318936877079
2.063191468155088,-6.943189368770788
2.0641881790092693,-3.9431893687707884
2.0651848898634504,-6.943189368770788
2.0661816007176315,5.056810631229212
2.067178311571813,12.056810631229212
2.068175022425994,11.056810631229212
2.069171733280175,11.056810631229212
2.0701684441343566,3.0568106312292116
2.0711651549885377,-10.943189368770788
2.0721618658427188,-14.943189368770788
2.0731585766969,-10.943189368770788
2.0741552875510814,-3.9431893687707884
2.0751519984052624,-25.94318936877079
2.0761487092594435,-25.94318936877079
2.077145420113625,18.05681063122921
2.078142130967806,36.05681063122921
2.079138841821987,38.05681063122921
2.0801355526761687,30.05681063122921
2.0811322635303497,14.056810631229212
2.082128974384531,-15.943189368770788
2.083125685238712,-30.94318936877079
2.0841223960928934,-32.94318936877079
2.0851191069470745,-19.94318936877079
2.0861158178012555,-0.9431893687707884
2.087112528655437,6.056810631229212
2.088109239509618,0.056810631229211594
2.089105950363799,1.0568106312292116
2.0901026612179803,5.056810631229212
2.091099372072162,-5.943189368770788
2.092096082926343,-10.943189368770788
2.093092793780524,14.056810631229212
2.0940895046347054,47.05681063122921
2.0950862154888865,71.05681063122921
2.0960829263430676,64.05681063122921
2.097079637197249,-7.943189368770788
2.09807634805143,-44.94318936877079
2.0990730589056112,-59.94318936877079
2.1000697697597923,-45.94318936877079
2.101066480613974,-34.94318936877079
2.102063191468155,-23.94318936877079
2.103059902322336,-40.94318936877079
2.1040566131765175,-11.943189368770788
2.1050533240306986,47.05681063122921
2.1060500348848796,34.05681063122921
2.1070467457390607,25.05681063122921
2.108043456593242,3.0568106312292116
2.1090401674474233,-19.94318936877079
2.1100368783016044,-10.943189368770788
2.111033589155786,5.056810631229212
2.112030300009967,19.05681063122921
2.113027010864148,14.056810631229212
2.1140237217183295,4.056810631229212
2.1150204325725106,5.056810631229212
2.1160171434266917,17.05681063122921
2.1170138542808727,8.056810631229212
2.1180105651350543,3.0568106312292116
2.1190072759892353,-6.943189368770788
2.1200039868434164,24.05681063122921
2.121000697697598,17.05681063122921
2.121997408551779,-12.943189368770788
2.12299411940596,-22.94318936877079
2.123990830260141,-38.94318936877079
2.1249875411143226,-18.94318936877079
2.1259842519685037,-16.94318936877079
2.126980962822685,14.056810631229212
2.1279776736768663,11.056810631229212
2.1289743845310474,-31.94318936877079
2.1299710953852284,-33.94318936877079
2.13096780623941,-6.943189368770788
2.131964517093591,23.05681063122921
2.132961227947772,53.05681063122921
2.133957938801953,53.05681063122921
2.1349546496561347,27.05681063122921
2.1359513605103158,14.056810631229212
2.136948071364497,-17.94318936877079
2.1379447822186783,-26.94318936877079
2.1389414930728594,-19.94318936877079
2.1399382039270405,13.056810631229212
2.1409349147812216,-10.943189368770788
2.141931625635403,-37.94318936877079
2.142928336489584,-39.94318936877079
2.143925047343765,-19.94318936877079
2.1449217581979467,-2.9431893687707884
2.145918469052128,22.05681063122921
2.146915179906309,21.05681063122921
2.1479118907604904,12.056810631229212
2.1489086016146715,2.0568106312292116
2.1499053124688525,15.056810631229212
2.1509020233230336,20.05681063122921
2.151898734177215,4.056810631229212
2.152895445031396,3.0568106312292116
2.1538921558855773,-38.94318936877079
2.1548888667397588,-59.94318936877079
2.15588557759394,-43.94318936877079
2.156882288448121,-20.94318936877079
2.1578789993023024,9.056810631229212
2.1588757101564835,52.05681063122921
2.1598724210106646,46.05681063122921
2.1608691318648456,8.056810631229212
2.161865842719027,32.05681063122921
2.1628625535732082,24.05681063122921
2.1638592644273893,11.056810631229212
2.164855975281571,17.05681063122921
2.165852686135752,1.0568106312292116
2.166849396989933,-11.943189368770788
2.167846107844114,-4.943189368770788
2.1688428186982955,-7.943189368770788
2.1698395295524766,-14.943189368770788
2.1708362404066577,-18.94318936877079
2.171832951260839,-26.94318936877079
2.1728296621150203,-23.94318936877079
2.1738263729692013,-16.94318936877079
2.174823083823383,-9.943189368770788
2.175819794677564,8.056810631229212
2.176816505531745,41.05681063122921
2.177813216385926,68.05681063122921
2.1788099272401076,92.05681063122921
2.1798066380942887,39.05681063122921
2.1808033489484697,-30.94318936877079
2.1818000598026512,-61.94318936877079
2.1827967706568323,-105.94318936877079
2.1837934815110134,-83.94318936877079
2.1847901923651945,-26.94318936877079
2.185786903219376,-5.943189368770788
2.186783614073557,9.056810631229212
2.187780324927738,-6.943189368770788
2.1887770357819196,-8.943189368770788
2.1897737466361007,52.05681063122921
2.1907704574902818,109.05681063122921
2.1917671683444633,97.05681063122921
2.1927638791986444,42.05681063122921
2.1937605900528254,-28.94318936877079
2.1947573009070065,-59.94318936877079
2.195754011761188,-52.94318936877079
2.196750722615369,-33.94318936877079
2.19774743346955,-5.943189368770788
2.1987441443237317,-2.9431893687707884
2.1997408551779127,-2.9431893687707884
2.200737566032094,-7.943189368770788
2.201734276886275,1.0568106312292116
2.2027309877404564,-1.9431893687707884
2.2037276985946375,-4.943189368770788
2.2047244094488185,-3.9431893687707884
2.205721120303,-1.9431893687707884
2.206717831157181,5.056810631229212
2.207714542011362,3.0568106312292116
2.2087112528655437,1.0568106312292116
2.2097079637197248,19.05681063122921
2.210704674573906,34.05681063122921
2.211701385428087,53.05681063122921
2.2126980962822684,35.05681063122921
2.2136948071364495,-4.943189368770788
2.2146915179906306,-38.94318936877079
2.215688228844812,-52.94318936877079
2.216684939698993,-31.94318936877079
2.2176816505531742,-2.9431893687707884
2.2186783614073553,-1.9431893687707884
2.219675072261537,4.056810631229212
2.220671783115718,-9.943189368770788
2.221668493969899,-24.94318936877079
2.2226652048240805,-6.943189368770788
2.2236619156782615,19.05681063122921
2.2246586265324426,36.05681063122921
2.225655337386624,35.05681063122921
2.226652048240805,1.0568106312292116
2.2276487590949863,-26.94318936877079
2.2286454699491673,-27.94318936877079
2.229642180803349,-17.94318936877079
2.23063889165753,12.056810631229212
2.231635602511711,24.05681063122921
2.2326323133658925,56.05681063122921
2.2336290242200736,42.05681063122921
2.2346257350742547,-8.943189368770788
2.235622445928436,-31.94318936877079
2.2366191567826172,-19.94318936877079
2.2376158676367983,-16.94318936877079
2.2386125784909794,-21.94318936877079
2.239609289345161,-2.9431893687707884
2.240606000199342,32.05681063122921
2.241602711053523,54.05681063122921
2.2425994219077046,32.05681063122921
2.2435961327618856,-14.943189368770788
2.2445928436160667,-57.94318936877079
2.2455895544702478,-71.94318936877079
2.2465862653244293,-35.94318936877079
2.2475829761786104,-19.94318936877079
2.2485796870327914,-21.94318936877079
2.249576397886973,-8.943189368770788
2.250573108741154,20.05681063122921
2.251569819595335,28.05681063122921
2.2525665304495166,19.05681063122921
2.2535632413036977,18.05681063122921
2.2545599521578787,16.05681063122921
2.25555666301206,27.05681063122921
2.2565533738662413,41.05681063122921
2.2575500847204224,37.05681063122921
2.2585467955746035,30.05681063122921
2.259543506428785,19.05681063122921
2.260540217282966,-35.94318936877079
2.261536928137147,-73.94318936877079
2.262533638991328,-82.94318936877079
2.2635303498455097,-43.94318936877079
2.264527060699691,-9.943189368770788
2.265523771553872,7.056810631229212
2.2665204824080534,13.056810631229212
2.2675171932622344,27.05681063122921
2.2685139041164155,36.05681063122921
2.269510614970597,25.05681063122921
2.270507325824778,22.05681063122921
2.271504036678959,12.056810631229212
2.2725007475331402,-2.9431893687707884
2.2734974583873218,-10.943189368770788
2.274494169241503,8.056810631229212
2.275490880095684,-2.9431893687707884
2.2764875909498654,-27.94318936877079
2.2774843018040465,-23.94318936877079
2.2784810126582276,-24.94318936877079
2.2794777235124086,-15.943189368770788
2.28047443436659,25.05681063122921
2.281471145220771,63.05681063122921
2.2824678560749523,37.05681063122921
2.283464566929134,-3.9431893687707884
2.284461277783315,20.05681063122921
2.285457988637496,28.05681063122921
2.2864546994916775,-0.9431893687707884
2.2874514103458585,-45.94318936877079
2.2884481212000396,-62.94318936877079
2.2894448320542207,-49.94318936877079
2.290441542908402,-38.94318936877079
2.2914382537625833,-15.943189368770788
2.2924349646167643,14.056810631229212
2.293431675470946,46.05681063122921
2.294428386325127,77.05681063122921
2.295425097179308,79.05681063122921
2.2964218080334895,47.05681063122921
2.2974185188876706,-42.94318936877079
2.2984152297418516,-107.94318936877079
2.2994119405960327,-92.94318936877079
2.3004086514502142,-2.9431893687707884
2.3014053623043953,51.05681063122921
2.3024020731585764,-1.9431893687707884
2.303398784012758,-17.94318936877079
2.304395494866939,18.05681063122921
2.30539220572112,44.05681063122921
2.306388916575301,17.05681063122921
2.3073856274294826,-27.94318936877079
2.3083823382836637,-42.94318936877079
2.3093790491378448,-37.94318936877079
2.3103757599920263,-25.94318936877079
2.3113724708462073,35.05681063122921
2.3123691817003884,66.05681063122921
2.31336589255457,72.05681063122921
2.314362603408751,71.05681063122921
2.315359314262932,19.05681063122921
2.316356025117113,-18.94318936877079
2.3173527359712947,-22.94318936877079
2.3183494468254757,-23.94318936877079
2.319346157679657,-28.94318936877079
2.3203428685338383,-28.94318936877079
2.3213395793880194,-41.94318936877079
2.3223362902422005,-51.94318936877079
2.3233330010963815,-42.94318936877079
2.324329711950563,-12.943189368770788
2.325326422804744,22.05681063122921
2.326323133658925,54.05681063122921
2.3273198445131067,51.05681063122921
2.3283165553672878,38.05681063122921
2.329313266221469,56.05681063122921
2.3303099770756504,33.05681063122921
2.3313066879298314,-41.94318936877079
2.3323033987840125,-77.94318936877079
2.3333001096381936,-51.94318936877079
2.334296820492375,-0.9431893687707884
2.335293531346556,19.05681063122921
2.336290242200737,6.056810631229212
2.3372869530549187,-28.94318936877079
2.3382836639091,-30.94318936877079
2.339280374763281,-1.9431893687707884
2.340277085617462,36.05681063122921
2.3412737964716435,46.05681063122921
2.3422705073258245,14.056810631229212
2.3432672181800056,-39.94318936877079
2.344263929034187,-44.94318936877079
2.345260639888368,-23.94318936877079
2.3462573507425493,1.0568106312292116
2.347254061596731,28.05681063122921
2.348250772450912,36.05681063122921
2.349247483305093,39.05681063122921
2.350244194159274,13.056810631229212
2.3512409050134555,-7.943189368770788
2.3522376158676366,2.0568106312292116
2.3532343267218176,-4.943189368770788
2.354231037575999,-19.94318936877079
2.3552277484301802,-7.943189368770788
2.3562244592843613,12.056810631229212
2.3572211701385424,52.05681063122921
2.358217880992724,80.05681063122921
2.359214591846905,43.05681063122921
2.360211302701086,-19.94318936877079
2.3612080135552675,-61.94318936877079
2.3622047244094486,-107.94318936877079
2.3632014352636297,-85.94318936877079
2.364198146117811,-30.94318936877079
2.3651948569719923,5.056810631229212
2.3661915678261733,11.056810631229212
2.3671882786803544,6.056810631229212
2.368184989534536,9.056810631229212
2.369181700388717,13.056810631229212
2.370178411242898,5.056810631229212
2.3711751220970796,10.056810631229212
2.3721718329512607,27.05681063122921
2.3731685438054417,45.05681063122921
2.3741652546596232,39.05681063122921
2.3751619655138043,13.056810631229212
2.3761586763679854,8.056810631229212
2.3771553872221665,14.056810631229212
2.378152098076348,20.05681063122921
2.379148808930529,8.056810631229212
2.38014551978471,-13.943189368770788
2.3811422306388916,-15.943189368770788
2.3821389414930727,-39.94318936877079
2.3831356523472538,-55.94318936877079
2.384132363201435,-28.94318936877079
2.3851290740556164,-15.943189368770788
2.3861257849097974,-24.94318936877079
2.3871224957639785,12.056810631229212
2.38811920661816,60.05681063122921
2.389115917472341,41.05681063122921
2.390112628326522,29.05681063122921
2.3911093391807037,-14.943189368770788
2.3921060500348847,-24.94318936877079
2.393102760889066,-36.94318936877079
2.394099471743247,-27.94318936877079
2.3950961825974284,20.05681063122921
2.3960928934516095,25.05681063122921
2.3970896043057905,39.05681063122921
2.398086315159972,26.05681063122921
2.399083026014153,2.0568106312292116
2.400079736868334,-15.943189368770788
2.4010764477225153,-67.94318936877079
2.402073158576697,-86.94318936877079
2.403069869430878,-62.94318936877079
2.404066580285059,7.056810631229212
2.4050632911392404,92.05681063122921
2.4060600019934215,95.05681063122921
2.4070567128476026,44.05681063122921
2.408053423701784,0.056810631229211594
2.409050134555965,-25.94318936877079
2.4100468454101462,-24.94318936877079
2.4110435562643273,-15.943189368770788
2.412040267118509,8.056810631229212
2.41303697797269,44.05681063122921
2.414033688826871,52.05681063122921
2.4150303996810525,8.056810631229212
2.4160271105352336,-44.94318936877079
2.4170238213894146,-80.94318936877079
2.4180205322435957,-76.94318936877079
2.419017243097777,-40.94318936877079
2.4200139539519583,-15.943189368770788
2.4210106648061394,7.056810631229212
2.422007375660321,32.05681063122921
2.423004086514502,3.0568106312292116
2.424000797368683,-23.94318936877079
2.4249975082228645,-8.943189368770788
2.4259942190770456,36.05681063122921
2.4269909299312267,88.05681063122921
2.4279876407854077,113.05681063122921
2.4289843516395893,56.05681063122921
2.4299810624937703,12.056810631229212
2.4309777733479514,-28.94318936877079
2.431974484202133,-58.94318936877079
2.432971195056314,-60.94318936877079
2.433967905910495,-53.94318936877079
2.434964616764676,-30.94318936877079
2.4359613276188576,9.056810631229212
2.4369580384730387,43.05681063122921
2.43795474932722,46.05681063122921
2.4389514601814013,38.05681063122921
2.4399481710355824,1.0568106312292116
2.4409448818897634,-36.94318936877079
2.441941592743945,-45.94318936877079
2.442938303598126,-39.94318936877079
2.443935014452307,-37.94318936877079
2.444931725306488,-30.94318936877079
2.4459284361606697,-4.943189368770788
2.4469251470148508,44.05681063122921
2.447921857869032,89.05681063122921
2.4489185687232133,65.05681063122921
2.4499152795773944,13.056810631229212
2.4509119904315755,-44.94318936877079
2.451908701285757,-65.94318936877079
2.452905412139938,-58.94318936877079
2.453902122994119,-30.94318936877079
2.4548988338483,9.056810631229212
2.4558955447024817,36.05681063122921
2.456892255556663,50.05681063122921
2.457888966410844,21.05681063122921
2.4588856772650254,1.0568106312292116
2.4598823881192065,-15.943189368770788
2.4608790989733875,-43.94318936877079
2.4618758098275686,-23.94318936877079
2.46287252068175,-19.94318936877079
2.463869231535931,-27.94318936877079
2.4648659423901123,13.056810631229212
2.4658626532442938,61.05681063122921
2.466859364098475,81.05681063122921
2.467856074952656,46.05681063122921
2.4688527858068374,-3.9431893687707884
2.4698494966610185,-18.94318936877079
2.4708462075151996,-26.94318936877079
2.4718429183693806,-8.943189368770788
2.472839629223562,-3.9431893687707884
2.4738363400777432,4.056810631229212
2.4748330509319243,-10.943189368770788
2.475829761786106,-3.9431893687707884
2.476826472640287,-4.943189368770788
2.477823183494468,-20.94318936877079
2.478819894348649,25.05681063122921
2.4798166052028305,30.05681063122921
2.4808133160570116,-0.9431893687707884
2.4818100269111927,20.05681063122921
2.482806737765374,-7.943189368770788
2.4838034486195553,-27.94318936877079
2.4848001594737363,-35.94318936877079
2.485796870327918,-27.94318936877079
2.486793581182099,-15.943189368770788
2.48779029203628,-11.943189368770788
2.488787002890461,-3.9431893687707884
2.4897837137446426,-23.94318936877079
2.4907804245988237,-21.94318936877079
2.4917771354530047,-11.943189368770788
2.4927738463071862,12.056810631229212
2.4937705571613673,33.05681063122921
2.4947672680155484,17.05681063122921
2.4957639788697294,20.05681063122921
2.496760689723911,46.05681063122921
2.497757400578092,34.05681063122921
2.498754111432273,25.05681063122921
2.4997508222864546,0.056810631229211594
2.5007475331406357,-56.94318936877079
2.5017442439948168,-97.94318936877079
2.5027409548489983,-69.94318936877079
2.5037376657031793,12.056810631229212
2.5047343765573604,105.05681063122921
2.5057310874115415,117.05681063122921
2.506727798265723,45.05681063122921
2.507724509119904,-12.943189368770788
2.508721219974085,-25.94318936877079
2.5097179308282667,-10.943189368770788
2.5107146416824477,-19.94318936877079
2.511711352536629,-34.94318936877079
2.51270806339081,-27.94318936877079
2.5137047742449914,-6.943189368770788
2.5147014850991725,-8.943189368770788
2.5156981959533535,-6.943189368770788
2.516694906807535,-2.9431893687707884
2.517691617661716,-11.943189368770788
2.518688328515897,-13.943189368770788
2.5196850393700787,10.056810631229212
2.5206817502242598,-2.9431893687707884
2.521678461078441,9.056810631229212
2.522675171932622,5.056810631229212
2.5236718827868034,17.05681063122921
2.5246685936409845,32.05681063122921
2.5256653044951656,26.05681063122921
2.526662015349347,41.05681063122921
2.527658726203528,-1.9431893687707884
2.5286554370577092,-51.94318936877079
2.5296521479118907,-65.94318936877079
2.530648858766072,-46.94318936877079
2.531645569620253,-38.94318936877079
2.532642280474434,4.056810631229212
2.5336389913286155,28.05681063122921
2.5346357021827965,48.05681063122921
2.5356324130369776,63.05681063122921
2.536629123891159,32.05681063122921
2.53762583474534,-7.943189368770788
2.5386225455995213,-25.94318936877079
2.5396192564537023,-29.94318936877079
2.540615967307884,-4.943189368770788
2.541612678162065,7.056810631229212
2.542609389016246,-10.943189368770788
2.5436060998704275,-2.9431893687707884
2.5446028107246086,29.05681063122921
2.5455995215787897,16.05681063122921
2.546596232432971,10.056810631229212
2.5475929432871522,-19.94318936877079
2.5485896541413333,-23.94318936877079
2.5495863649955144,28.05681063122921
2.550583075849696,56.05681063122921
2.551579786703877,39.05681063122921
2.552576497558058,16.05681063122921
2.5535732084122396,-43.94318936877079
2.5545699192664206,-80.94318936877079
2.5555666301206017,-55.94318936877079
2.5565633409747828,-26.94318936877079
2.5575600518289643,1.0568106312292116
2.5585567626831454,8.056810631229212
2.5595534735373264,-9.943189368770788
2.560550184391508,-17.94318936877079
2.561546895245689,-5.943189368770788
2.56254360609987,-5.943189368770788
2.5635403169540516,22.05681063122921
2.5645370278082327,48.05681063122921
2.5655337386624137,56.05681063122921
2.566530449516595,38.05681063122921
2.5675271603707763,-22.94318936877079
2.5685238712249574,-20.94318936877079
2.5695205820791385,-45.94318936877079
2.57051729293332,-29.94318936877079
2.571514003787501,5.056810631229212
2.572510714641682,8.056810631229212
2.573507425495863,36.05681063122921
2.5745041363500447,11.056810631229212
2.575500847204226,13.056810631229212
2.576497558058407,6.056810631229212
2.5774942689125884,-16.94318936877079
2.5784909797667694,-8.943189368770788
2.5794876906209505,2.0568106312292116
2.580484401475132,9.056810631229212
2.581481112329313,6.056810631229212
2.582477823183494,-44.94318936877079
2.5834745340376752,-44.94318936877079
2.5844712448918568,33.05681063122921
2.585467955746038,49.05681063122921
2.586464666600219,89.05681063122921
2.5874613774544004,105.05681063122921
2.5884580883085815,13.056810631229212
2.5894547991627626,-84.94318936877079
2.590451510016944,-187.9431893687708
2.591448220871125,-142.9431893687708
2.592444931725306,-45.94318936877079
2.5934416425794873,36.05681063122921
2.594438353433669,89.05681063122921
2.59543506428785,77.05681063122921
2.596431775142031,35.05681063122921
2.5974284859962125,36.05681063122921
2.5984251968503935,14.056810631229212
2.5994219077045746,-3.9431893687707884
2.6004186185587557,-3.9431893687707884
2.601415329412937,-27.94318936877079
2.6024120402671183,-34.94318936877079
2.6034087511212993,-32.94318936877079
2.604405461975481,-38.94318936877079
2.605402172829662,-36.94318936877079
2.606398883683843,-4.943189368770788
2.6073955945380245,31.05681063122921
2.6083923053922056,104.05681063122921
2.6093890162463866,81.05681063122921
2.6103857271005677,-22.94318936877079
2.6113824379547492,-42.94318936877079
2.6123791488089303,-5.943189368770788
2.6133758596631114,22.05681063122921
2.614372570517293,93.05681063122921
2.615369281371474,70.05681063122921
2.616365992225655,-20.94318936877079
2.617362703079836,-8.943189368770788
2.6183594139340176,14.056810631229212
2.6193561247881987,21.05681063122921
2.6203528356423798,-57.94318936877079
2.6213495464965613,-159.9431893687708
2.6223462573507423,-140.9431893687708
2.6233429682049234,-66.94318936877079
2.624339679059105,28.05681063122921
2.625336389913286,82.05681063122921
2.626333100767467,53.05681063122921
2.627329811621648,21.05681063122921
2.6283265224758297,-27.94318936877079
2.6293232333300107,-38.94318936877079
2.630319944184192,-17.94318936877079
2.6313166550383733,7.056810631229212
2.6323133658925544,75.05681063122921
2.6333100767467355,82.05681063122921
2.6343067876009165,9.056810631229212
2.635303498455098,-27.94318936877079
2.636300209309279,-61.94318936877079
2.63729692016346,-51.94318936877079
2.6382936310176417,-9.943189368770788
2.6392903418718228,7.056810631229212
2.640287052726004,-21.94318936877079
2.6412837635801854,19.05681063122921
2.6422804744343664,68.05681063122921
2.6432771852885475,93.05681063122921
2.6442738961427286,85.05681063122921
2.64527060699691,-15.943189368770788
2.646267317851091,-62.94318936877079
2.647264028705272,-41.94318936877079
2.6482607395594537,-24.94318936877079
2.649257450413635,-36.94318936877079
2.650254161267816,-13.943189368770788
2.651250872121997,29.05681063122921
2.6522475829761785,64.05681063122921
2.6532442938303595,72.05681063122921
2.6542410046845406,39.05681063122921
2.655237715538722,-29.94318936877079
2.656234426392903,-49.94318936877079
2.6572311372470843,-22.94318936877079
2.6582278481012658,17.05681063122921
2.659224558955447,-13.943189368770788
2.660221269809628,-66.94318936877079
2.661217980663809,-95.94318936877079
2.6622146915179905,-59.94318936877079
2.6632114023721716,8.056810631229212
2.6642081132263526,14.056810631229212
2.665204824080534,-19.94318936877079
2.6662015349347152,-9.943189368770788
2.6671982457888963,8.056810631229212
2.668194956643078,45.05681063122921
2.669191667497259,101.05681063122921
2.67018837835144,49.05681063122921
2.671185089205621,-1.9431893687707884
2.6721818000598025,6.056810631229212
2.6731785109139836,-4.943189368770788
2.6741752217681647,17.05681063122921
2.675171932622346,-3.9431893687707884
2.6761686434765273,-46.94318936877079
2.6771653543307083,-47.94318936877079
2.6781620651848894,1.0568106312292116
2.679158776039071,77.05681063122921
2.680155486893252,100.05681063122921
2.681152197747433,49.05681063122921
2.6821489086016146,17.05681063122921
2.6831456194557957,-16.94318936877079
2.6841423303099767,-44.94318936877079
2.6851390411641582,-34.94318936877079
2.6861357520183393,-65.94318936877079
2.6871324628725204,-103.94318936877079
2.6881291737267015,-95.94318936877079
2.689125884580883,-65.94318936877079
2.690122595435064,-9.943189368770788
2.691119306289245,73.05681063122921
2.6921160171434266,105.05681063122921
2.6931127279976077,85.05681063122921
2.6941094388517888,47.05681063122921
2.69510614970597,17.05681063122921
2.6961028605601514,-29.94318936877079
2.6970995714143324,-54.94318936877079
2.6980962822685135,-39.94318936877079
2.699092993122695,-36.94318936877079
2.700089703976876,-43.94318936877079
2.701086414831057,-22.94318936877079
2.7020831256852387,19.05681063122921
2.7030798365394197,85.05681063122921
2.704076547393601,73.05681063122921
2.705073258247782,20.05681063122921
2.7060699691019634,41.05681063122921
2.7070666799561445,28.05681063122921
2.7080633908103255,-9.943189368770788
2.709060101664507,-36.94318936877079
2.710056812518688,-50.94318936877079
2.711053523372869,-68.94318936877079
2.7120502342270503,-53.94318936877079
2.713046945081232,18.05681063122921
2.714043655935413,69.05681063122921
2.715040366789594,46.05681063122921
2.7160370776437754,29.05681063122921
2.7170337884979565,-1.9431893687707884
2.7180304993521376,-65.94318936877079
2.719027210206319,-108.94318936877079
2.7200239210605,-43.94318936877079
2.7210206319146812,58.05681063122921
2.7220173427688623,97.05681063122921
2.723014053623044,78.05681063122921
2.724010764477225,16.05681063122921
2.725007475331406,-44.94318936877079
2.7260041861855875,-105.94318936877079
2.7270008970397686,-84.94318936877079
2.7279976078939496,-21.94318936877079
2.7289943187481307,59.05681063122921
2.729991029602312,79.05681063122921
2.7309877404564933,58.05681063122921
2.7319844513106744,41.05681063122921
2.732981162164856,24.05681063122921
2.733977873019037,3.0568106312292116
2.734974583873218,-14.943189368770788
2.7359712947273995,-17.94318936877079
2.7369680055815806,-10.943189368770788
2.7379647164357617,-15.943189368770788
2.7389614272899427,-19.94318936877079
2.7399581381441243,-34.94318936877079
2.7409548489983053,-17.94318936877079
2.7419515598524864,4.056810631229212
2.742948270706668,33.05681063122921
2.743944981560849,9.056810631229212
2.74494169241503,-13.943189368770788
2.7459384032692116,-47.94318936877079
2.7469351141233926,-71.94318936877079
2.7479318249775737,-78.94318936877079
2.748928535831755,-30.94318936877079
2.7499252466859363,41.05681063122921
2.7509219575401174,60.05681063122921
2.7519186683942984,111.05681063122921
2.75291537924848,153.0568106312292
2.753912090102661,69.05681063122921
2.754908800956842,-14.943189368770788
2.755905511811023,-46.94318936877079
2.7569022226652047,-71.94318936877079
2.7578989335193858,-90.94318936877079
2.758895644373567,-67.94318936877079
2.7598923552277483,-9.943189368770788
2.7608890660819294,8.056810631229212
2.7618857769361105,19.05681063122921
2.762882487790292,32.05681063122921
2.763879198644473,-0.9431893687707884
2.764875909498654,-36.94318936877079
2.765872620352835,-24.94318936877079
2.7668693312070167,-10.943189368770788
2.767866042061198,111.05681063122921
2.768862752915379,171.0568106312292
2.7698594637695604,115.05681063122921
2.7708561746237415,35.05681063122921
2.7718528854779225,-73.94318936877079
2.7728495963321036,-179.9431893687708
2.773846307186285,-166.9431893687708
2.774843018040466,-87.94318936877079
2.7758397288946473,-4.943189368770788
2.7768364397488288,51.05681063122921
2.77783315060301,44.05681063122921
2.778829861457191,-3.9431893687707884
2.7798265723113724,-37.94318936877079
2.7808232831655535,-32.94318936877079
2.7818199940197346,-17.94318936877079
2.7828167048739156,20.05681063122921
2.783813415728097,108.05681063122921
2.7848101265822782,65.05681063122921
2.7858068374364593,33.05681063122921
2.786803548290641,24.05681063122921
2.787800259144822,32.05681063122921
2.788796969999003,81.05681063122921
2.789793680853184,15.056810631229212
2.7907903917073655,-66.94318936877079
2.7917871025615466,-86.94318936877079
2.7927838134157277,-48.94318936877079
2.793780524269909,-8.943189368770788
2.7947772351240903,-8.943189368770788
2.7957739459782713,-39.94318936877079
2.796770656832453,-57.94318936877079
2.797767367686634,-74.94318936877079
2.798764078540815,7.056810631229212
2.799760789394996,135.0568106312292
2.8007575002491776,192.0568106312292
2.8017542111033586,134.0568106312292
2.8027509219575397,35.05681063122921
2.8037476328117212,-74.94318936877079
2.8047443436659023,-122.94318936877079
2.8057410545200834,-80.94318936877079
2.8067377653742644,-49.94318936877079
2.807734476228446,-37.94318936877079
2.808731187082627,-31.94318936877079
2.809727897936808,-34.94318936877079
2.8107246087909896,-55.94318936877079
2.8117213196451707,-26.94318936877079
2.8127180304993518,69.05681063122921
2.8137147413535333,124.05681063122921
2.8147114522077143,25.05681063122921
2.8157081630618954,-39.94318936877079
2.8167048739160765,-36.94318936877079
2.817701584770258,23.05681063122921
2.818698295624439,48.05681063122921
2.81969500647862,18.05681063122921
2.8206917173328017,10.056810631229212
2.8216884281869827,-7.943189368770788
2.822685139041164,3.0568106312292116
2.8236818498953453,-46.94318936877079
2.8246785607495264,-15.943189368770788
2.8256752716037075,101.05681063122921
2.8266719824578885,124.05681063122921
2.82766869331207,12.056810631229212
2.828665404166251,-65.94318936877079
2.829662115020432,-108.94318936877079
2.8306588258746137,-77.94318936877079
2.8316555367287948,-17.94318936877079
2.832652247582976,44.05681063122921
2.833648958437157,58.05681063122921
2.8346456692913384,55.05681063122921
2.8356423801455195,30.05681063122921
2.8366390909997006,-47.94318936877079
2.837635801853882,-91.94318936877079
2.838632512708063,-94.94318936877079
2.8396292235622442,-59.94318936877079
2.8406259344164257,-32.94318936877079
2.841622645270607,-5.943189368770788
2.842619356124788,21.05681063122921
2.843616066978969,39.05681063122921
2.8446127778331505,31.05681063122921
2.8456094886873315,46.05681063122921
2.8466061995415126,30.05681063122921
2.847602910395694,20.05681063122921
2.848599621249875,9.056810631229212
2.8495963321040563,-15.943189368770788
2.8505930429582373,23.05681063122921
2.851589753812419,120.05681063122921
2.8525864646666,81.05681063122921
2.853583175520781,1.0568106312292116
2.8545798863749625,-3.9431893687707884
2.8555765972291436,-9.943189368770788
2.8565733080833247,24.05681063122921
2.857570018937506,-9.943189368770788
2.8585667297916872,-83.94318936877079
2.8595634406458683,-107.94318936877079
2.8605601515000494,-58.94318936877079
2.861556862354231,7.056810631229212
2.862553573208412,28.05681063122921
2.863550284062593,40.05681063122921
2.8645469949167746,17.05681063122921
2.8655437057709556,-47.94318936877079
2.8665404166251367,-85.94318936877079
2.8675371274793178,-82.94318936877079
2.8685338383334993,-60.94318936877079
2.8695305491876804,-54.94318936877079
2.8705272600418614,-0.9431893687707884
2.871523970896043,63.05681063122921
2.872520681750224,95.05681063122921
2.873517392604405,100.05681063122921
2.8745141034585866,73.05681063122921
2.8755108143127677,62.05681063122921
2.8765075251669487,47.05681063122921
2.87750423602113,50.05681063122921
2.8785009468753113,36.05681063122921
2.8794976577294924,-45.94318936877079
2.8804943685836735,-53.94318936877079
2.881491079437855,-38.94318936877079
2.882487790292036,-29.94318936877079
2.883484501146217,-42.94318936877079
2.8844812120003986,-10.943189368770788
2.8854779228545797,-48.94318936877079
2.886474633708761,-32.94318936877079
2.887471344562942,-19.94318936877079
2.8884680554171234,-10.943189368770788
2.8894647662713044,-36.94318936877079
2.8904614771254855,-16.94318936877079
2.891458187979667,19.05681063122921
2.892454898833848,39.05681063122921
2.893451609688029,11.056810631229212
2.8944483205422102,6.056810631229212
2.8954450313963918,9.056810631229212
2.896441742250573,-15.943189368770788
2.897438453104754,-45.94318936877079
2.8984351639589354,-23.94318936877079
2.8994318748131165,52.05681063122921
2.9004285856672976,119.05681063122921
2.901425296521479,64.05681063122921
2.90242200737566,-7.943189368770788
2.903418718229841,-26.94318936877079
2.9044154290840223,-5.943189368770788
2.905412139938204,-9.943189368770788
2.906408850792385,-39.94318936877079
2.907405561646566,-36.94318936877079
2.9084022725007475,-11.943189368770788
2.9093989833549285,51.05681063122921
2.9103956942091096,85.05681063122921
2.9113924050632907,26.05681063122921
2.912389115917472,-10.943189368770788
2.9133858267716533,-62.94318936877079
2.9143825376258343,-105.94318936877079
2.915379248480016,-86.94318936877079
2.916375959334197,-28.94318936877079
2.917372670188378,56.05681063122921
2.9183693810425595,97.05681063122921
2.9193660918967406,39.05681063122921
2.9203628027509216,-41.94318936877079
2.9213595136051027,19.05681063122921
2.9223562244592842,123.05681063122921
2.9233529353134653,147.0568106312292
2.9243496461676464,83.05681063122921
2.925346357021828,-79.94318936877079
2.926343067876009,-151.9431893687708
2.92733977873019,-137.9431893687708
2.928336489584371,-107.94318936877079
2.9293332004385526,-50.94318936877079
2.9303299112927337,17.05681063122921
2.9313266221469148,29.05681063122921
2.9323233330010963,25.05681063122921
2.9333200438552773,32.05681063122921
2.9343167547094584,13.056810631229212
2.93531346556364,14.056810631229212
2.936310176417821,25.05681063122921
2.937306887272002,38.05681063122921
2.938303598126183,38.05681063122921
2.9393003089803647,-17.94318936877079
2.9402970198345457,-19.94318936877079
2.941293730688727,21.05681063122921
2.9422904415429083,50.05681063122921
2.9432871523970894,12.056810631229212
2.9442838632512704,-58.94318936877079
2.9452805741054515,-71.94318936877079
2.946277284959633,-31.94318936877079
2.947273995813814,8.056810631229212
2.948270706667995,62.05681063122921
2.9492674175221767,59.05681063122921
2.9502641283763578,24.05681063122921
2.951260839230539,-45.94318936877079
2.9522575500847204,9.056810631229212
2.9532542609389014,67.05681063122921
2.9542509717930825,-41.94318936877079
2.9552476826472636,-114.94318936877079
2.956244393501445,-126.94318936877079
2.957241104355626,-81.94318936877079
2.958237815209807,70.05681063122921
2.9592345260639887,104.05681063122921
2.96023123691817,36.05681063122921
2.961227947772351,-34.94318936877079
2.9622246586265324,-29.94318936877079
2.9632213694807135,-7.943189368770788
2.9642180803348945,11.056810631229212
2.9652147911890756,46.05681063122921
2.966211502043257,117.05681063122921
2.967208212897438,90.05681063122921
2.9682049237516193,-14.943189368770788
2.9692016346058008,-98.94318936877079
2.970198345459982,-80.94318936877079
2.971195056314163,-46.94318936877079
2.972191767168344,8.056810631229212
2.9731884780225255,52.05681063122921
2.9741851888767066,56.05681063122921
2.9751818997308876,19.05681063122921
2.976178610585069,1.0568106312292116
2.9771753214392502,5.056810631229212
2.9781720322934313,-10.943189368770788
2.979168743147613,-44.94318936877079
2.980165454001794,-48.94318936877079
2.981162164855975,-26.94318936877079
2.982158875710156,1.0568106312292116
2.9831555865643375,59.05681063122921
2.9841522974185186,74.05681063122921
2.9851490082726997,41.05681063122921
2.986145719126881,-14.943189368770788
2.9871424299810623,17.05681063122921
2.9881391408352433,-29.94318936877079
2.9891358516894244,-87.94318936877079
2.990132562543606,-21.94318936877079
2.991129273397787,49.05681063122921
2.992125984251968,64.05681063122921
2.9931226951061496,54.05681063122921
2.9941194059603307,-7.943189368770788
2.9951161168145117,-111.94318936877079
2.9961128276686932,-123.94318936877079
2.9971095385228743,-72.94318936877079
2.9981062493770554,12.056810631229212
2.9991029602312365,65.05681063122921
3.000099671085418,40.05681063122921
3.001096381939599,45.05681063122921
3.00209309279378,86.05681063122921
3.0030898036479616,46.05681063122921
3.0040865145021427,-45.94318936877079
3.0050832253563238,-108.94318936877079
3.006079936210505,-58.94318936877079
3.0070766470646864,-29.94318936877079
3.0080733579188674,-8.943189368770788
3.0090700687730485,9.056810631229212
3.01006677962723,-26.94318936877079
3.011063490481411,-5.943189368770788
3.012060201335592,69.05681063122921
3.0130569121897737,132.0568106312292
3.0140536230439547,102.05681063122921
3.015050333898136,23.05681063122921
3.016047044752317,-91.94318936877079
3.0170437556064984,-110.94318936877079
3.0180404664606795,-94.94318936877079
3.0190371773148605,-24.94318936877079
3.020033888169042,26.05681063122921
3.021030599023223,30.05681063122921
3.022027309877404,76.05681063122921
3.0230240207315853,76.05681063122921
3.024020731585767,14.056810631229212
3.025017442439948,-35.94318936877079
3.026014153294129,-35.94318936877079
3.0270108641483104,17.05681063122921
3.0280075750024915,60.05681063122921
3.0290042858566726,83.05681063122921
3.030000996710854,115.05681063122921
3.030997707565035,-1.9431893687707884
3.0319944184192162,-109.94318936877079
3.0329911292733973,-84.94318936877079
3.033987840127579,-2.9431893687707884
3.03498455098176,-6.943189368770788
3.035981261835941,-64.94318936877079
3.0369779726901225,-73.94318936877079
3.0379746835443036,-11.943189368770788
3.0389713943984846,-3.9431893687707884
3.039968105252666,-31.94318936877079
3.040964816106847,-23.94318936877079
3.0419615269610283,-4.943189368770788
3.0429582378152094,24.05681063122921
3.043954948669391,96.05681063122921
3.044951659523572,98.05681063122921
3.045948370377753,40.05681063122921
3.0469450812319345,-6.943189368770788
3.0479417920861156,-47.94318936877079
3.0489385029402967,-59.94318936877079
3.0499352137944777,-39.94318936877079
3.0509319246486593,9.056810631229212
3.0519286355028403,-3.9431893687707884
3.0529253463570214,-16.94318936877079
3.053922057211203,-14.943189368770788
3.054918768065384,11.056810631229212
3.055915478919565,69.05681063122921
3.0569121897737466,54.05681063122921
3.0579089006279276,1.0568106312292116
3.0589056114821087,-34.94318936877079
3.05990232233629,-32.94318936877079
3.0608990331904713,3.0568106312292116
3.0618957440446524,33.05681063122921
3.0628924548988334,-19.94318936877079
3.063889165753015,-59.94318936877079
3.064885876607196,-72.94318936877079
3.065882587461377,-74.94318936877079
3.066879298315558,-60.94318936877079
3.0678760091697397,9.056810631229212
3.0688727200239208,55.05681063122921
3.069869430878102,94.05681063122921
3.0708661417322833,141.0568106312292
3.0718628525864644,136.0568106312292
3.0728595634406455,152.0568106312292
3.073856274294827,75.05681063122921
3.074852985149008,-71.94318936877079
3.075849696003189,-198.9431893687708
3.07684640685737,-221.9431893687708
3.0778431177115517,-110.94318936877079
3.078839828565733,-14.943189368770788
3.079836539419914,24.05681063122921
3.0808332502740954,75.05681063122921
3.0818299611282765,39.05681063122921
3.0828266719824575,79.05681063122921
3.0838233828366386,75.05681063122921
3.08482009369082,6.056810631229212
3.085816804545001,-55.94318936877079
3.0868135153991823,-83.94318936877079
3.0878102262533638,-19.94318936877079
3.088806937107545,53.05681063122921
3.089803647961726,75.05681063122921
3.0908003588159074,1.0568106312292116
3.0917970696700885,-63.94318936877079
3.0927937805242696,-67.94318936877079
3.0937904913784506,-64.94318936877079
3.094787202232632,-36.94318936877079
3.095783913086813,-22.94318936877079
3.0967806239409943,26.05681063122921
3.097777334795176,91.05681063122921
3.098774045649357,131.0568106312292
3.099770756503538,105.05681063122921
3.1007674673577195,-51.94318936877079
3.1017641782119005,-136.9431893687708
3.1027608890660816,-116.94318936877079
3.1037575999202627,-6.943189368770788
3.104754310774444,105.05681063122921
3.1057510216286253,107.05681063122921
3.1067477324828063,21.05681063122921
3.107744443336988,-51.94318936877079
3.108741154191169,-47.94318936877079
3.10973786504535,-31.94318936877079
3.110734575899531,-24.94318936877079
3.1117312867537126,45.05681063122921
3.1127279976078936,60.05681063122921
3.1137247084620747,66.05681063122921
3.1147214193162562,36.05681063122921
3.1157181301704373,20.05681063122921
3.1167148410246184,13.056810631229212
3.1177115518788,-70.94318936877079
3.118708262732981,-118.94318936877079
3.119704973587162,-108.94318936877079
3.120701684441343,-44.94318936877079
3.1216983952955246,70.05681063122921
3.1226951061497057,94.05681063122921
3.1236918170038868,81.05681063122921
3.1246885278580683,48.05681063122921
3.1256852387122493,-28.94318936877079
3.1266819495664304,-120.94318936877079
3.1276786604206115,-135.9431893687708
3.128675371274793,-74.94318936877079
3.129672082128974,-10.943189368770788
3.130668792983155,2.0568106312292116
3.1316655038373367,26.05681063122921
3.1326622146915177,127.05681063122921
3.133658925545699,130.0568106312292
3.1346556363998803,76.05681063122921
3.1356523472540614,53.05681063122921
3.1366490581082425,65.05681063122921
3.1376457689624235,38.05681063122921
3.138642479816605,-27.94318936877079
3.139639190670786,-43.94318936877079
3.140635901524967,-67.94318936877079
3.1416326123791487,-67.94318936877079
3.1426293232333298,-68.94318936877079
3.143626034087511,-11.943189368770788
3.144622744941692,8.056810631229212
3.1456194557958734,-25.94318936877079
3.1466161666500545,-71.94318936877079
3.1476128775042356,-71.94318936877079
3.148609588358417,-14.943189368770788
3.149606299212598,76.05681063122921
3.1506030100667792,70.05681063122921
3.1515997209209607,41.05681063122921
3.152596431775142,45.05681063122921
3.153593142629323,21.05681063122921
3.154589853483504,-41.94318936877079
3.1555865643376855,-78.94318936877079
3.1565832751918665,-108.94318936877079
3.1575799860460476,-22.94318936877079
3.158576696900229,108.05681063122921
3.15957340775441,175.0568106312292
3.1605701186085913,98.05681063122921
3.1615668294627723,-23.94318936877079
3.162563540316954,-68.94318936877079
3.163560251171135,-11.943189368770788
3.164556962025316,11.056810631229212
3.1655536728794975,48.05681063122921
3.1665503837336786,-3.9431893687707884
3.1675470945878597,-72.94318936877079
3.168543805442041,-168.9431893687708
3.1695405162962222,-173.9431893687708
3.1705372271504033,-37.94318936877079
3.1715339380045844,93.05681063122921
3.172530648858766,130.0568106312292
3.173527359712947,142.0568106312292
3.174524070567128,96.05681063122921
3.1755207814213096,76.05681063122921
3.1765174922754906,36.05681063122921
3.1775142031296717,8.056810631229212
3.178510913983853,-58.94318936877079
3.1795076248380343,-112.94318936877079
3.1805043356922154,-142.9431893687708
3.1815010465463964,-117.94318936877079
3.182497757400578,-73.94318936877079
