Time,EMG
0.0,29.117342192691012
0.000996710854181202,50.11734219269101
0.001993421708362404,62.11734219269101
0.002990132562543606,64.11734219269101
0.003986843416724808,54.11734219269101
0.00498355427090601,45.11734219269101
0.005980265125087212,45.11734219269101
0.006976975979268414,27.117342192691012
0.007973686833449616,-1.8826578073089877
0.008970397687630818,-19.882657807308988
0.00996710854181202,-25.882657807308988
0.01096381939599322,-50.88265780730899
0.011960530250174423,-58.88265780730899
0.012957241104355626,-50.88265780730899
0.013953951958536827,-41.88265780730899
0.014950662812718028,-34.88265780730899
0.01594737366689923,-41.88265780730899
0.016944084521080434,-43.88265780730899
0.017940795375261637,-19.882657807308988
0.018937506229442836,6.117342192691012
0.01993421708362404,36.11734219269101
0.02093092793780524,49.11734219269101
0.02192763879198644,51.11734219269101
0.022924349646167644,61.11734219269101
0.023921060500348847,52.11734219269101
0.02491777135453005,41.11734219269101
0.025914482208711252,43.11734219269101
0.02691119306289245,34.11734219269101
0.027907903917073654,17.117342192691012
0.028904614771254857,-2.8826578073089877
0.029901325625436057,-19.882657807308988
0.03089803647961726,-43.88265780730899
0.03189474733379846,-63.88265780730899
0.032891458187979665,-63.88265780730899
0.03388816904216087,-62.88265780730899
0.03488487989634207,-58.88265780730899
0.03588159075052327,-46.88265780730899
0.03687830160470447,-31.882657807308988
0.03787501245888567,-4.882657807308988
0.038871723313066875,16.117342192691012
0.03986843416724808,39.11734219269101
0.04086514502142928,59.11734219269101
0.04186185587561048,70.11734219269101
0.042858566729791686,73.11734219269101
0.04385527758397288,54.11734219269101
0.044851988438154085,49.11734219269101
0.04584869929233529,43.11734219269101
0.04684541014651649,29.117342192691012
0.04784212100069769,4.117342192691012
0.048838831854878896,-19.882657807308988
0.0498355427090601,-39.88265780730899
0.0508322535632413,-61.88265780730899
0.051828964417422504,-65.88265780730899
0.0528256752716037,-77.88265780730899
0.0538223861257849,-57.88265780730899
0.054819096979966106,-27.882657807308988
0.05581580783414731,-25.882657807308988
0.05681251868832851,-20.882657807308988
0.057809229542509714,-4.882657807308988
0.05880594039669092,11.117342192691012
0.05980265125087211,20.117342192691012
0.060799362105053316,36.11734219269101
0.06179607295923452,52.11734219269101
0.06279278381341573,60.11734219269101
0.06378949466759692,59.11734219269101
0.06478620552177812,61.11734219269101
0.06578291637595933,46.11734219269101
0.06677962723014053,26.117342192691012
0.06777633808432174,15.117342192691012
0.06877304893850293,-1.8826578073089877
0.06976975979268414,-26.882657807308988
0.07076647064686534,-46.88265780730899
0.07176318150104655,-57.88265780730899
0.07275989235522774,-74.88265780730899
0.07375660320940894,-59.88265780730899
0.07475331406359015,-54.88265780730899
0.07575002491777134,-55.88265780730899
0.07674673577195255,-38.88265780730899
0.07774344662613375,1.1173421926910123
0.07874015748031496,29.117342192691012
0.07973686833449616,43.11734219269101
0.08073357918867735,54.11734219269101
0.08173029004285856,53.11734219269101
0.08272700089703976,57.11734219269101
0.08372371175122097,54.11734219269101
0.08472042260540216,47.11734219269101
0.08571713345958337,34.11734219269101
0.08671384431376457,21.117342192691012
0.08771055516794576,5.117342192691012
0.08870726602212697,-15.882657807308988
0.08970397687630817,-25.882657807308988
0.09070068773048938,-42.88265780730899
0.09169739858467058,-52.88265780730899
0.09269410943885178,-55.88265780730899
0.09369082029303298,-63.88265780730899
0.09468753114721419,-53.88265780730899
0.09568424200139539,-44.88265780730899
0.09668095285557658,-23.882657807308988
0.09767766370975779,0.11734219269101231
0.09867437456393899,19.117342192691012
0.0996710854181202,23.117342192691012
0.1006677962723014,39.11734219269101
0.1016645071264826,51.11734219269101
0.1026612179806638,67.11734219269101
0.10365792883484501,65.11734219269101
0.1046546396890262,60.11734219269101
0.1056513505432074,53.11734219269101
0.10664806139738861,32.11734219269101
0.1076447722515698,12.117342192691012
0.10864148310575102,-17.882657807308988
0.10963819395993221,-37.88265780730899
0.11063490481411342,-60.88265780730899
0.11163161566829462,-60.88265780730899
0.11262832652247581,-53.88265780730899
0.11362503737665702,-47.88265780730899
0.11462174823083822,-46.88265780730899
0.11561845908501943,-47.88265780730899
0.11661516993920062,-34.88265780730899
0.11761188079338183,-6.882657807308988
0.11860859164756303,12.117342192691012
0.11960530250174423,33.11734219269101
0.12060201335592544,56.11734219269101
0.12159872421010663,67.11734219269101
0.12259543506428784,54.11734219269101
0.12359214591846904,35.11734219269101
0.12458885677265025,36.11734219269101
0.12558556762683146,37.11734219269101
0.12658227848101264,35.11734219269101
0.12757898933519385,16.117342192691012
0.12857570018937506,-1.8826578073089877
0.12957241104355624,-23.882657807308988
0.13056912189773745,-44.88265780730899
0.13156583275191866,-56.88265780730899
0.13256254360609987,-60.88265780730899
0.13355925446028105,-57.88265780730899
0.13455596531446226,-49.88265780730899
0.13555267616864347,-46.88265780730899
0.13654938702282465,-33.88265780730899
0.13754609787700586,-14.882657807308988
0.13854280873118707,1.1173421926910123
0.13953951958536828,35.11734219269101
0.14053623043954946,49.11734219269101
0.14153294129373067,49.11734219269101
0.14252965214791188,69.11734219269101
0.1435263630020931,62.11734219269101
0.14452307385627428,52.11734219269101
0.14551978471045549,52.11734219269101
0.1465164955646367,43.11734219269101
0.14751320641881788,4.117342192691012
0.1485099172729991,-27.882657807308988
0.1495066281271803,-43.88265780730899
0.1505033389813615,-49.88265780730899
0.1515000498355427,-53.88265780730899
0.1524967606897239,-52.88265780730899
0.1534934715439051,-57.88265780730899
0.1544901823980863,-61.88265780730899
0.1554868932522675,-38.88265780730899
0.1564836041064487,-20.882657807308988
0.15748031496062992,3.1173421926910123
0.1584770258148111,12.117342192691012
0.1594737366689923,19.117342192691012
0.16047044752317352,41.11734219269101
0.1614671583773547,58.11734219269101
0.1624638692315359,69.11734219269101
0.16346058008571712,68.11734219269101
0.16445729093989833,56.11734219269101
0.1654540017940795,40.11734219269101
0.16645071264826072,20.117342192691012
0.16744742350244193,6.117342192691012
0.16844413435662312,-15.882657807308988
0.16944084521080433,-28.882657807308988
0.17043755606498553,-47.88265780730899
0.17143426691916674,-57.88265780730899
0.17243097777334793,-62.88265780730899
0.17342768862752914,-66.88265780730899
0.17442439948171035,-56.88265780730899
0.17542111033589153,-46.88265780730899
0.17641782119007274,-34.88265780730899
0.17741453204425395,-2.8826578073089877
0.17841124289843516,16.117342192691012
0.17940795375261634,28.117342192691012
0.18040466460679755,49.11734219269101
0.18140137546097876,56.11734219269101
0.18239808631515997,61.11734219269101
0.18339479716934115,61.11734219269101
0.18439150802352236,52.11734219269101
0.18538821887770357,41.11734219269101
0.18638492973188475,21.117342192691012
0.18738164058606596,5.117342192691012
0.18837835144024717,-9.882657807308988
0.18937506229442838,-19.882657807308988
0.19037177314860956,-44.88265780730899
0.19136848400279077,-60.88265780730899
0.19236519485697198,-65.88265780730899
0.19336190571115316,-51.88265780730899
0.19435861656533437,-31.882657807308988
0.19535532741951558,-35.88265780730899
0.1963520382736968,-35.88265780730899
0.19734874912787798,-21.882657807308988
0.19834545998205919,-3.8826578073089877
0.1993421708362404,14.117342192691012
0.20033888169042158,48.11734219269101
0.2013355925446028,77.11734219269101
0.202332303398784,79.11734219269101
0.2033290142529652,69.11734219269101
0.2043257251071464,56.11734219269101
0.2053224359613276,40.11734219269101
0.2063191468155088,20.117342192691012
0.20731585766969002,-1.8826578073089877
0.2083125685238712,-18.882657807308988
0.2093092793780524,-25.882657807308988
0.21030599023223362,-42.88265780730899
0.2113027010864148,-55.88265780730899
0.212299411940596,-63.88265780730899
0.21329612279477722,-70.88265780730899
0.21429283364895843,-58.88265780730899
0.2152895445031396,-42.88265780730899
0.21628625535732082,-19.882657807308988
0.21728296621150203,-2.8826578073089877
0.21827967706568321,15.117342192691012
0.21927638791986442,28.117342192691012
0.22027309877404563,44.11734219269101
0.22126980962822684,54.11734219269101
0.22226652048240803,60.11734219269101
0.22326323133658924,49.11734219269101
0.22425994219077044,47.11734219269101
0.22525665304495163,52.11734219269101
0.22625336389913284,35.11734219269101
0.22725007475331405,9.117342192691012
0.22824678560749526,-10.882657807308988
0.22924349646167644,-27.882657807308988
0.23024020731585765,-45.88265780730899
0.23123691817003886,-55.88265780730899
0.23223362902422004,-59.88265780730899
0.23323033987840125,-61.88265780730899
0.23422705073258246,-55.88265780730899
0.23522376158676367,-47.88265780730899
0.23622047244094485,-33.88265780730899
0.23721718329512606,-2.8826578073089877
0.23821389414930727,20.117342192691012
0.23921060500348845,43.11734219269101
0.24020731585766966,49.11734219269101
0.24120402671185087,54.11734219269101
0.24220073756603208,55.11734219269101
0.24319744842021326,50.11734219269101
0.24419415927439447,50.11734219269101
0.24519087012857568,49.11734219269101
0.2461875809827569,37.11734219269101
0.24718429183693807,8.117342192691012
0.24818100269111928,-14.882657807308988
0.2491777135453005,-28.882657807308988
0.2501744243994817,-47.88265780730899
0.2511711352536629,-74.88265780730899
0.2521678461078441,-79.88265780730899
0.2531645569620253,-65.88265780730899
0.2541612678162065,-47.88265780730899
0.2551579786703877,-35.88265780730899
0.2561546895245689,-34.88265780730899
0.2571514003787501,-4.882657807308988
0.2581481112329313,34.11734219269101
0.2591448220871125,27.117342192691012
0.2601415329412937,32.11734219269101
0.2611382437954749,49.11734219269101
0.26213495464965614,68.11734219269101
0.2631316655038373,75.11734219269101
0.2641283763580185,64.11734219269101
0.26512508721219974,43.11734219269101
0.2661217980663809,29.117342192691012
0.2671185089205621,6.117342192691012
0.26811521977474334,-19.882657807308988
0.2691119306289245,-29.882657807308988
0.2701086414831057,-48.88265780730899
0.27110535233728694,-62.88265780730899
0.2721020631914681,-58.88265780730899
0.2730987740456493,-54.88265780730899
0.27409548489983054,-52.88265780730899
0.2750921957540117,-40.88265780730899
0.27608890660819296,-26.882657807308988
0.27708561746237415,-14.882657807308988
0.2780823283165553,9.117342192691012
0.27907903917073656,25.117342192691012
0.28007575002491775,43.11734219269101
0.28107246087909893,55.11734219269101
0.28206917173328017,62.11734219269101
0.28306588258746135,51.11734219269101
0.28406259344164253,47.11734219269101
0.28505930429582377,51.11734219269101
0.28605601515000495,43.11734219269101
0.2870527260041862,17.117342192691012
0.28804943685836737,-16.882657807308988
0.28904614771254855,-35.88265780730899
0.2900428585667298,-47.88265780730899
0.29103956942091097,-45.88265780730899
0.29203628027509215,-51.88265780730899
0.2930329911292734,-53.88265780730899
0.29402970198345457,-56.88265780730899
0.29502641283763575,-47.88265780730899
0.296023123691817,-24.882657807308988
0.2970198345459982,-7.882657807308988
0.29801654540017936,10.117342192691012
0.2990132562543606,28.117342192691012
0.3000099671085418,42.11734219269101
0.301006677962723,45.11734219269101
0.3020033888169042,51.11734219269101
0.3030000996710854,53.11734219269101
0.3039968105252666,49.11734219269101
0.3049935213794478,50.11734219269101
0.305990232233629,39.11734219269101
0.3069869430878102,18.117342192691012
0.3079836539419914,-6.882657807308988
0.3089803647961726,-20.882657807308988
0.3099770756503538,-42.88265780730899
0.310973786504535,-54.88265780730899
0.3119704973587162,-54.88265780730899
0.3129672082128974,-57.88265780730899
0.3139639190670786,-54.88265780730899
0.31496062992125984,-54.88265780730899
0.315957340775441,-43.88265780730899
0.3169540516296222,-14.882657807308988
0.31795076248380344,15.117342192691012
0.3189474733379846,33.11734219269101
0.3199441841921658,50.11734219269101
0.32094089504634704,60.11734219269101
0.3219376059005282,66.11734219269101
0.3229343167547094,62.11734219269101
0.32393102760889064,54.11734219269101
0.3249277384630718,44.11734219269101
0.32592444931725306,35.11734219269101
0.32692116017143424,11.117342192691012
0.3279178710256154,-20.882657807308988
0.32891458187979666,-21.882657807308988
0.32991129273397785,-41.88265780730899
0.330908003588159,-53.88265780730899
0.33190471444234027,-62.88265780730899
0.33290142529652145,-61.88265780730899
0.33389813615070263,-57.88265780730899
0.33489484700488387,-46.88265780730899
0.33589155785906505,-33.88265780730899
0.33688826871324623,-11.882657807308988
0.33788497956742747,13.117342192691012
0.33888169042160865,26.117342192691012
0.3398784012757899,39.11734219269101
0.34087511212997107,52.11734219269101
0.34187182298415225,67.11734219269101
0.3428685338383335,65.11734219269101
0.34386524469251467,70.11734219269101
0.34486195554669585,60.11734219269101
0.3458586664008771,38.11734219269101
0.3468553772550583,8.117342192691012
0.34785208810923945,-12.882657807308988
0.3488487989634207,-30.882657807308988
0.3498455098176019,-55.88265780730899
0.35084222067178306,-57.88265780730899
0.3518389315259643,-58.88265780730899
0.3528356423801455,-66.88265780730899
0.3538323532343267,-61.88265780730899
0.3548290640885079,-36.88265780730899
0.3558257749426891,-32.88265780730899
0.3568224857968703,-17.882657807308988
0.3578191966510515,18.117342192691012
0.3588159075052327,29.117342192691012
0.3598126183594139,44.11734219269101
0.3608093292135951,62.11734219269101
0.3618060400677763,65.11734219269101
0.3628027509219575,60.11734219269101
0.3637994617761387,61.11734219269101
0.36479617263031994,52.11734219269101
0.3657928834845011,37.11734219269101
0.3667895943386823,1.1173421926910123
0.36778630519286354,-21.882657807308988
0.3687830160470447,-20.882657807308988
0.3697797269012259,-46.88265780730899
0.37077643775540714,-59.88265780730899
0.3717731486095883,-58.88265780730899
0.3727698594637695,-50.88265780730899
0.37376657031795074,-42.88265780730899
0.3747632811721319,-41.88265780730899
0.3757599920263131,-34.88265780730899
0.37675670288049434,-9.882657807308988
0.3777534137346755,8.117342192691012
0.37875012458885676,17.117342192691012
0.37974683544303794,25.117342192691012
0.3807435462972191,44.11734219269101
0.38174025715140036,61.11734219269101
0.38273696800558155,66.11734219269101
0.38373367885976273,58.11734219269101
0.38473038971394397,46.11734219269101
0.38572710056812515,30.117342192691012
0.38672381142230633,10.117342192691012
0.38772052227648757,-2.8826578073089877
0.38871723313066875,-13.882657807308988
0.38971394398485,-44.88265780730899
0.39071065483903117,-48.88265780730899
0.39170736569321235,-46.88265780730899
0.3927040765473936,-55.88265780730899
0.39370078740157477,-58.88265780730899
0.39469749825575595,-51.88265780730899
0.3956942091099372,-34.88265780730899
0.39669091996411837,-19.882657807308988
0.39768763081829955,6.117342192691012
0.3986843416724808,24.117342192691012
0.399681052526662,47.11734219269101
0.40067776338084315,65.11734219269101
0.4016744742350244,65.11734219269101
0.4026711850892056,61.11734219269101
0.4036678959433868,62.11734219269101
0.404664606797568,47.11734219269101
0.4056613176517492,34.11734219269101
0.4066580285059304,9.117342192691012
0.4076547393601116,-23.882657807308988
0.4086514502142928,-38.88265780730899
0.409648161068474,-35.88265780730899
0.4106448719226552,-44.88265780730899
0.4116415827768364,-56.88265780730899
0.4126382936310176,-61.88265780730899
0.4136350044851988,-59.88265780730899
0.41463171533938004,-40.88265780730899
0.4156284261935612,-25.882657807308988
0.4166251370477424,-11.882657807308988
0.41762184790192364,5.117342192691012
0.4186185587561048,19.117342192691012
0.419615269610286,49.11734219269101
0.42061198046446724,64.11734219269101
0.4216086913186484,54.11734219269101
0.4226054021728296,61.11734219269101
0.42360211302701084,57.11734219269101
0.424598823881192,44.11734219269101
0.4255955347353732,24.117342192691012
0.42659224558955444,2.1173421926910123
0.4275889564437356,-23.882657807308988
0.42858566729791686,-33.88265780730899
0.42958237815209804,-41.88265780730899
0.4305790890062792,-53.88265780730899
0.43157579986046046,-57.88265780730899
0.43257251071464164,-55.88265780730899
0.4335692215688228,-34.88265780730899
0.43456593242300406,-32.88265780730899
0.43556264327718525,-27.882657807308988
0.43655935413136643,-8.882657807308988
0.43755606498554767,12.117342192691012
0.43855277583972885,26.117342192691012
0.43954948669391003,40.11734219269101
0.44054619754809127,48.11734219269101
0.44154290840227245,65.11734219269101
0.4425396192564537,61.11734219269101
0.44353633011063487,51.11734219269101
0.44453304096481605,40.11734219269101
0.4455297518189973,26.117342192691012
0.44652646267317847,-0.8826578073089877
0.44752317352735965,-24.882657807308988
0.4485198843815409,-30.882657807308988
0.44951659523572207,-49.88265780730899
0.45051330608990325,-47.88265780730899
0.4515100169440845,-48.88265780730899
0.4525067277982657,-50.88265780730899
0.4535034386524469,-40.88265780730899
0.4545001495066281,-34.88265780730899
0.4554968603608093,-29.882657807308988
0.4564935712149905,-2.8826578073089877
0.4574902820691717,15.117342192691012
0.4584869929233529,5.117342192691012
0.4594837037775341,20.117342192691012
0.4604804146317153,34.11734219269101
0.4614771254858965,58.11734219269101
0.4624738363400777,81.11734219269101
0.4634705471942589,80.11734219269101
0.4644672580484401,56.11734219269101
0.4654639689026213,33.11734219269101
0.4664606797568025,10.117342192691012
0.46745739061098374,-21.882657807308988
0.4684541014651649,-19.882657807308988
0.4694508123193461,-50.88265780730899
0.47044752317352734,-65.88265780730899
0.4714442340277085,-60.88265780730899
0.4724409448818897,-58.88265780730899
0.47343765573607094,-51.88265780730899
0.4744343665902521,-43.88265780730899
0.4754310774444333,-25.882657807308988
0.47642778829861454,-12.882657807308988
0.4774244991527957,5.117342192691012
0.4784212100069769,27.117342192691012
0.47941792086115814,54.11734219269101
0.4804146317153393,60.11734219269101
0.48141134256952056,56.11734219269101
0.48240805342370174,52.11734219269101
0.4834047642778829,44.11734219269101
0.48440147513206416,47.11734219269101
0.48539818598624535,38.11734219269101
0.4863948968404265,10.117342192691012
0.48739160769460776,-15.882657807308988
0.48838831854878895,-26.882657807308988
0.48938502940297013,-39.88265780730899
0.49038174025715137,-44.88265780730899
0.49137845111133255,-59.88265780730899
0.4923751619655138,-65.88265780730899
0.49337187281969497,-62.88265780730899
0.49436858367387615,-60.88265780730899
0.4953652945280574,-39.88265780730899
0.49636200538223857,-12.882657807308988
0.49735871623641975,6.117342192691012
0.498355427090601,21.117342192691012
0.49935213794478217,41.11734219269101
0.5003488487989634,56.11734219269101
0.5013455596531445,64.11734219269101
0.5023422705073258,66.11734219269101
0.503338981361507,67.11734219269101
0.5043356922156882,64.11734219269101
0.5053324030698694,58.11734219269101
0.5063291139240506,25.117342192691012
0.5073258247782317,-14.882657807308988
0.508322535632413,-36.88265780730899
0.5093192464865942,-57.88265780730899
0.5103159573407754,-74.88265780730899
0.5113126681949566,-66.88265780730899
0.5123093790491378,-54.88265780730899
0.513306089903319,-48.88265780730899
0.5143028007575002,-39.88265780730899
0.5152995116116814,-22.882657807308988
0.5162962224658626,-17.882657807308988
0.5172929333200438,-6.882657807308988
0.518289644174225,20.117342192691012
0.5192863550284063,43.11734219269101
0.5202830658825874,63.11734219269101
0.5212797767367686,76.11734219269101
0.5222764875909498,66.11734219269101
0.523273198445131,49.11734219269101
0.5242699092993123,40.11734219269101
0.5252666201534935,31.117342192691012
0.5262633310076746,7.117342192691012
0.5272600418618558,-18.882657807308988
0.528256752716037,-29.882657807308988
0.5292534635702182,-51.88265780730899
0.5302501744243995,-61.88265780730899
0.5312468852785807,-62.88265780730899
0.5322435961327618,-61.88265780730899
0.533240306986943,-37.88265780730899
0.5342370178411242,-16.882657807308988
0.5352337286953054,-25.882657807308988
0.5362304395494867,-16.882657807308988
0.5372271504036679,3.1173421926910123
0.538223861257849,23.117342192691012
0.5392205721120302,37.11734219269101
0.5402172829662114,58.11734219269101
0.5412139938203927,65.11734219269101
0.5422107046745739,57.11734219269101
0.5432074155287551,54.11734219269101
0.5442041263829362,41.11734219269101
0.5452008372371174,27.117342192691012
0.5461975480912986,3.1173421926910123
0.5471942589454799,-16.882657807308988
0.5481909697996611,-25.882657807308988
0.5491876806538423,-33.88265780730899
0.5501843915080235,-51.88265780730899
0.5511811023622046,-57.88265780730899
0.5521778132163859,-59.88265780730899
0.5531745240705671,-51.88265780730899
0.5541712349247483,-54.88265780730899
0.5551679457789295,-36.88265780730899
0.5561646566331107,-4.882657807308988
0.5571613674872918,14.117342192691012
0.5581580783414731,21.117342192691012
0.5591547891956543,45.11734219269101
0.5601515000498355,56.11734219269101
0.5611482109040167,78.11734219269101
0.5621449217581979,78.11734219269101
0.5631416326123792,59.11734219269101
0.5641383434665603,39.11734219269101
0.5651350543207415,24.117342192691012
0.5661317651749227,2.1173421926910123
0.5671284760291039,-25.882657807308988
0.5681251868832851,-28.882657807308988
0.5691218977374664,-50.88265780730899
0.5701186085916475,-69.88265780730899
0.5711153194458287,-70.88265780730899
0.5721120303000099,-63.88265780730899
0.5731087411541911,-49.88265780730899
0.5741054520083724,-32.88265780730899
0.5751021628625536,-26.882657807308988
0.5760988737167347,-7.882657807308988
0.5770955845709159,14.117342192691012
0.5780922954250971,31.117342192691012
0.5790890062792783,49.11734219269101
0.5800857171334596,58.11734219269101
0.5810824279876408,65.11734219269101
0.5820791388418219,61.11734219269101
0.5830758496960031,45.11734219269101
0.5840725605501843,42.11734219269101
0.5850692714043655,28.117342192691012
0.5860659822585468,9.117342192691012
0.587062693112728,-15.882657807308988
0.5880594039669091,-26.882657807308988
0.5890561148210903,-42.88265780730899
0.5900528256752715,-53.88265780730899
0.5910495365294528,-62.88265780730899
0.592046247383634,-63.88265780730899
0.5930429582378152,-56.88265780730899
0.5940396690919963,-54.88265780730899
0.5950363799461775,-36.88265780730899
0.5960330908003587,-9.882657807308988
0.59702980165454,16.117342192691012
0.5980265125087212,29.117342192691012
0.5990232233629024,51.11734219269101
0.6000199342170836,70.11734219269101
0.6010166450712647,61.11734219269101
0.602013355925446,61.11734219269101
0.6030100667796272,52.11734219269101
0.6040067776338084,41.11734219269101
0.6050034884879896,39.11734219269101
0.6060001993421708,19.117342192691012
0.6069969101963519,-9.882657807308988
0.6079936210505332,-22.882657807308988
0.6089903319047144,-51.88265780730899
0.6099870427588956,-72.88265780730899
0.6109837536130768,-64.88265780730899
0.611980464467258,-52.88265780730899
0.6129771753214392,-35.88265780730899
0.6139738861756204,-42.88265780730899
0.6149705970298016,-41.88265780730899
0.6159673078839828,-14.882657807308988
0.616964018738164,12.117342192691012
0.6179607295923452,25.117342192691012
0.6189574404465265,47.11734219269101
0.6199541513007076,60.11734219269101
0.6209508621548888,62.11734219269101
0.62194757300907,64.11734219269101
0.6229442838632512,63.11734219269101
0.6239409947174324,54.11734219269101
0.6249377055716137,33.11734219269101
0.6259344164257948,9.117342192691012
0.626931127279976,-12.882657807308988
0.6279278381341572,-25.882657807308988
0.6289245489883384,-40.88265780730899
0.6299212598425197,-57.88265780730899
0.6309179706967009,-61.88265780730899
0.631914681550882,-62.88265780730899
0.6329113924050632,-51.88265780730899
0.6339081032592444,-46.88265780730899
0.6349048141134256,-35.88265780730899
0.6359015249676069,-15.882657807308988
0.6368982358217881,9.117342192691012
0.6378949466759692,29.117342192691012
0.6388916575301504,44.11734219269101
0.6398883683843316,53.11734219269101
0.6408850792385129,64.11734219269101
0.6418817900926941,61.11734219269101
0.6428785009468753,52.11734219269101
0.6438752118010564,42.11734219269101
0.6448719226552376,31.117342192691012
0.6458686335094188,11.117342192691012
0.6468653443636001,-16.882657807308988
0.6478620552177813,-25.882657807308988
0.6488587660719625,-38.88265780730899
0.6498554769261436,-47.88265780730899
0.6508521877803248,-64.88265780730899
0.6518488986345061,-61.88265780730899
0.6528456094886873,-49.88265780730899
0.6538423203428685,-48.88265780730899
0.6548390311970497,-38.88265780730899
0.6558357420512309,-9.882657807308988
0.656832452905412,7.117342192691012
0.6578291637595933,32.11734219269101
0.6588258746137745,51.11734219269101
0.6598225854679557,57.11734219269101
0.6608192963221369,60.11734219269101
0.661816007176318,54.11734219269101
0.6628127180304992,53.11734219269101
0.6638094288846805,45.11734219269101
0.6648061397388617,33.11734219269101
0.6658028505930429,14.117342192691012
0.6667995614472241,-15.882657807308988
0.6677962723014053,-28.882657807308988
0.6687929831555866,-45.88265780730899
0.6697896940097677,-57.88265780730899
0.6707864048639489,-60.88265780730899
0.6717831157181301,-63.88265780730899
0.6727798265723113,-58.88265780730899
0.6737765374264925,-57.88265780730899
0.6747732482806738,-32.88265780730899
0.6757699591348549,-6.882657807308988
0.6767666699890361,13.117342192691012
0.6777633808432173,25.117342192691012
0.6787600916973985,44.11734219269101
0.6797568025515798,61.11734219269101
0.680753513405761,71.11734219269101
0.6817502242599421,77.11734219269101
0.6827469351141233,68.11734219269101
0.6837436459683045,43.11734219269101
0.6847403568224857,18.117342192691012
0.685737067676667,-7.882657807308988
0.6867337785308482,-20.882657807308988
0.6877304893850293,-17.882657807308988
0.6887272002392105,-29.882657807308988
0.6897239110933917,-49.88265780730899
0.690720621947573,-57.88265780730899
0.6917173328017542,-64.88265780730899
0.6927140436559354,-59.88265780730899
0.6937107545101165,-55.88265780730899
0.6947074653642977,-44.88265780730899
0.6957041762184789,-23.882657807308988
0.6967008870726602,-1.8826578073089877
0.6976975979268414,28.117342192691012
0.6986943087810226,56.11734219269101
0.6996910196352037,62.11734219269101
0.7006877304893849,66.11734219269101
0.7016844413435661,67.11734219269101
0.7026811521977474,60.11734219269101
0.7036778630519286,38.11734219269101
0.7046745739061098,24.117342192691012
0.705671284760291,18.117342192691012
0.7066679956144721,-6.882657807308988
0.7076647064686534,-28.882657807308988
0.7086614173228346,-60.88265780730899
0.7096581281770158,-72.88265780730899
0.710654839031197,-54.88265780730899
0.7116515498853782,-43.88265780730899
0.7126482607395593,-41.88265780730899
0.7136449715937406,-48.88265780730899
0.7146416824479218,-41.88265780730899
0.715638393302103,-19.882657807308988
0.7166351041562842,-4.882657807308988
0.7176318150104654,27.117342192691012
0.7186285258646467,53.11734219269101
0.7196252367188278,67.11734219269101
0.720621947573009,61.11734219269101
0.7216186584271902,56.11734219269101
0.7226153692813714,49.11734219269101
0.7236120801355526,41.11734219269101
0.7246087909897339,26.117342192691012
0.725605501843915,5.117342192691012
0.7266022126980962,-16.882657807308988
0.7275989235522774,-17.882657807308988
0.7285956344064586,-35.88265780730899
0.7295923452606399,-36.88265780730899
0.7305890561148211,-44.88265780730899
0.7315857669690022,-66.88265780730899
0.7325824778231834,-63.88265780730899
0.7335791886773646,-42.88265780730899
0.7345758995315458,-17.882657807308988
0.7355726103857271,-1.8826578073089877
0.7365693212399083,9.117342192691012
0.7375660320940894,17.117342192691012
0.7385627429482706,28.117342192691012
0.7395594538024518,44.11734219269101
0.7405561646566331,54.11734219269101
0.7415528755108143,56.11734219269101
0.7425495863649955,49.11734219269101
0.7435462972191766,49.11734219269101
0.7445430080733578,39.11734219269101
0.745539718927539,16.117342192691012
0.7465364297817203,-13.882657807308988
0.7475331406359015,-31.882657807308988
0.7485298514900827,-42.88265780730899
0.7495265623442638,-33.88265780730899
0.750523273198445,-39.88265780730899
0.7515199840526262,-49.88265780730899
0.7525166949068075,-55.88265780730899
0.7535134057609887,-57.88265780730899
0.7545101166151699,-41.88265780730899
0.755506827469351,-12.882657807308988
0.7565035383235322,13.117342192691012
0.7575002491777135,21.117342192691012
0.7584969600318947,42.11734219269101
0.7594936708860759,54.11734219269101
0.7604903817402571,56.11734219269101
0.7614870925944383,51.11734219269101
0.7624838034486194,41.11734219269101
0.7634805143028007,33.11734219269101
0.7644772251569819,21.117342192691012
0.7654739360111631,11.117342192691012
0.7664706468653443,-3.8826578073089877
0.7674673577195255,-14.882657807308988
0.7684640685737067,-22.882657807308988
0.7694607794278879,-31.882657807308988
0.7704574902820691,-44.88265780730899
0.7714542011362503,-54.88265780730899
0.7724509119904315,-52.88265780730899
0.7734476228446127,-48.88265780730899
0.774444333698794,-36.88265780730899
0.7754410445529751,-16.882657807308988
0.7764377554071563,-0.8826578073089877
0.7774344662613375,6.117342192691012
0.7784311771155187,21.117342192691012
0.7794278879697,38.11734219269101
0.7804245988238812,55.11734219269101
0.7814213096780623,64.11734219269101
0.7824180205322435,77.11734219269101
0.7834147313864247,63.11734219269101
0.7844114422406059,36.11734219269101
0.7854081530947872,13.117342192691012
0.7864048639489684,-4.882657807308988
0.7874015748031495,-20.882657807308988
0.7883982856573307,-41.88265780730899
0.7893949965115119,-56.88265780730899
0.7903917073656931,-50.88265780730899
0.7913884182198744,-59.88265780730899
0.7923851290740556,-56.88265780730899
0.7933818399282367,-51.88265780730899
0.7943785507824179,-33.88265780730899
0.7953752616365991,-19.882657807308988
0.7963719724907804,1.1173421926910123
0.7973686833449616,24.117342192691012
0.7983653941991428,43.11734219269101
0.799362105053324,56.11734219269101
0.8003588159075051,65.11734219269101
0.8013555267616863,57.11734219269101
0.8023522376158676,48.11734219269101
0.8033489484700488,51.11734219269101
0.80434565932423,42.11734219269101
0.8053423701784111,11.117342192691012
0.8063390810325923,-13.882657807308988
0.8073357918867736,-23.882657807308988
0.8083325027409548,-43.88265780730899
0.809329213595136,-54.88265780730899
0.8103259244493172,-48.88265780730899
0.8113226353034984,-54.88265780730899
0.8123193461576795,-49.88265780730899
0.8133160570118608,-53.88265780730899
0.814312767866042,-49.88265780730899
0.8153094787202232,-24.882657807308988
0.8163061895744044,7.117342192691012
0.8173029004285856,26.117342192691012
0.8182996112827668,39.11734219269101
0.819296322136948,58.11734219269101
0.8202930329911292,65.11734219269101
0.8212897438453104,61.11734219269101
0.8222864546994916,39.11734219269101
0.8232831655536728,28.117342192691012
0.824279876407854,23.117342192691012
0.8252765872620352,28.117342192691012
0.8262732981162164,13.117342192691012
0.8272700089703976,8.117342192691012
0.8282667198245788,-18.882657807308988
0.8292634306787601,-32.88265780730899
0.8302601415329413,-57.88265780730899
0.8312568523871224,-75.88265780730899
0.8322535632413036,-59.88265780730899
0.8332502740954848,-51.88265780730899
0.834246984949666,-28.882657807308988
0.8352436958038473,-3.8826578073089877
0.8362404066580285,0.11734219269101231
0.8372371175122096,12.117342192691012
0.8382338283663908,28.117342192691012
0.839230539220572,44.11734219269101
0.8402272500747532,56.11734219269101
0.8412239609289345,59.11734219269101
0.8422206717831157,49.11734219269101
0.8432173826372968,41.11734219269101
0.844214093491478,25.117342192691012
0.8452108043456592,5.117342192691012
0.8462075151998405,-15.882657807308988
0.8472042260540217,-31.882657807308988
0.8482009369082029,-47.88265780730899
0.849197647762384,-49.88265780730899
0.8501943586165652,-50.88265780730899
0.8511910694707464,-43.88265780730899
0.8521877803249277,-25.882657807308988
0.8531844911791089,-35.88265780730899
0.8541812020332901,-33.88265780730899
0.8551779128874712,-19.882657807308988
0.8561746237416524,7.117342192691012
0.8571713345958337,21.117342192691012
0.8581680454500149,39.11734219269101
0.8591647563041961,55.11734219269101
0.8601614671583773,57.11734219269101
0.8611581780125585,55.11734219269101
0.8621548888667396,42.11734219269101
0.8631515997209209,30.117342192691012
0.8641483105751021,26.117342192691012
0.8651450214292833,18.117342192691012
0.8661417322834645,-7.882657807308988
0.8671384431376457,-21.882657807308988
0.868135153991827,-39.88265780730899
0.8691318648460081,-42.88265780730899
0.8701285757001893,-38.88265780730899
0.8711252865543705,-39.88265780730899
0.8721219974085517,-52.88265780730899
0.8731187082627329,-53.88265780730899
0.8741154191169141,-43.88265780730899
0.8751121299710953,-19.882657807308988
0.8761088408252765,5.117342192691012
0.8771055516794577,16.117342192691012
0.8781022625336389,36.11734219269101
0.8790989733878201,54.11734219269101
0.8800956842420014,60.11734219269101
0.8810923950961825,57.11734219269101
0.8820891059503637,53.11734219269101
0.8830858168045449,46.11734219269101
0.8840825276587261,40.11734219269101
0.8850792385129074,16.117342192691012
0.8860759493670886,-15.882657807308988
0.8870726602212697,-32.88265780730899
0.8880693710754509,-42.88265780730899
0.8890660819296321,-44.88265780730899
0.8900627927838133,-47.88265780730899
0.8910595036379946,-54.88265780730899
0.8920562144921758,-55.88265780730899
0.8930529253463569,-34.88265780730899
0.8940496362005381,-41.88265780730899
0.8950463470547193,-29.882657807308988
0.8960430579089006,6.117342192691012
0.8970397687630818,29.117342192691012
0.898036479617263,54.11734219269101
0.8990331904714441,55.11734219269101
0.9000299013256253,40.11734219269101
0.9010266121798065,66.11734219269101
0.9020233230339878,83.11734219269101
0.903020033888169,67.11734219269101
0.9040167447423502,54.11734219269101
0.9050134555965313,29.117342192691012
0.9060101664507125,-2.8826578073089877
0.9070068773048938,-27.882657807308988
0.908003588159075,-52.88265780730899
0.9090002990132562,-66.88265780730899
0.9099970098674374,-63.88265780730899
0.9109937207216185,-57.88265780730899
0.9119904315757997,-37.88265780730899
0.912987142429981,-30.882657807308988
0.9139838532841622,-41.88265780730899
0.9149805641383434,-36.88265780730899
0.9159772749925246,-8.882657807308988
0.9169739858467058,24.117342192691012
0.9179706967008869,48.11734219269101
0.9189674075550682,62.11734219269101
0.9199641184092494,79.11734219269101
0.9209608292634306,90.11734219269101
0.9219575401176118,87.11734219269101
0.922954250971793,57.11734219269101
0.9239509618259742,22.117342192691012
0.9249476726801554,-0.8826578073089877
0.9259443835343366,-25.882657807308988
0.9269410943885178,-31.882657807308988
0.927937805242699,-57.88265780730899
0.9289345160968802,-73.88265780730899
0.9299312269510615,-78.88265780730899
0.9309279378052426,-78.88265780730899
0.9319246486594238,-50.88265780730899
0.932921359513605,-42.88265780730899
0.9339180703677862,-16.882657807308988
0.9349147812219675,8.117342192691012
0.9359114920761487,20.117342192691012
0.9369082029303298,13.117342192691012
0.937904913784511,34.11734219269101
0.9389016246386922,53.11734219269101
0.9398983354928734,61.11734219269101
0.9408950463470547,74.11734219269101
0.9418917572012359,56.11734219269101
0.942888468055417,49.11734219269101
0.9438851789095982,30.117342192691012
0.9448818897637794,20.117342192691012
0.9458786006179607,-5.882657807308988
0.9468753114721419,-24.882657807308988
0.9478720223263231,-49.88265780730899
0.9488687331805042,-65.88265780730899
0.9498654440346854,-63.88265780730899
0.9508621548888666,-58.88265780730899
0.9518588657430479,-52.88265780730899
0.9528555765972291,-41.88265780730899
0.9538522874514103,-34.88265780730899
0.9548489983055914,-23.882657807308988
0.9558457091597726,5.117342192691012
0.9568424200139538,19.117342192691012
0.9578391308681351,37.11734219269101
0.9588358417223163,53.11734219269101
0.9598325525764975,65.11734219269101
0.9608292634306786,67.11734219269101
0.9618259742848598,62.11734219269101
0.9628226851390411,45.11734219269101
0.9638193959932223,36.11734219269101
0.9648161068474035,20.117342192691012
0.9658128177015847,-7.882657807308988
0.9668095285557659,-13.882657807308988
0.967806239409947,-40.88265780730899
0.9688029502641283,-59.88265780730899
0.9697996611183095,-59.88265780730899
0.9707963719724907,-62.88265780730899
0.9717930828266719,-57.88265780730899
0.972789793680853,-58.88265780730899
0.9737865045350343,-35.88265780730899
0.9747832153892155,-16.882657807308988
0.9757799262433967,4.117342192691012
0.9767766370975779,25.117342192691012
0.9777733479517591,56.11734219269101
0.9787700588059403,82.11734219269101
0.9797667696601216,79.11734219269101
0.9807634805143027,55.11734219269101
0.9817601913684839,46.11734219269101
0.9827569022226651,40.11734219269101
0.9837536130768463,21.117342192691012
0.9847503239310276,13.117342192691012
0.9857470347852088,7.117342192691012
0.9867437456393899,-9.882657807308988
0.9877404564935711,-32.88265780730899
0.9887371673477523,-49.88265780730899
0.9897338782019335,-57.88265780730899
0.9907305890561148,-60.88265780730899
0.991727299910296,-54.88265780730899
0.9927240107644771,-45.88265780730899
0.9937207216186583,-40.88265780730899
0.9947174324728395,-23.882657807308988
0.9957141433270208,-1.8826578073089877
0.996710854181202,5.117342192691012
0.9977075650353832,28.117342192691012
0.9987042758895643,49.11734219269101
0.9997009867437455,54.11734219269101
1.0006976975979267,53.11734219269101
1.001694408452108,73.11734219269101
1.002691119306289,68.11734219269101
1.0036878301604704,44.11734219269101
1.0046845410146517,29.117342192691012
1.0056812518688327,6.117342192691012
1.006677962723014,-24.882657807308988
1.007674673577195,-47.88265780730899
1.0086713844313764,-62.88265780730899
1.0096680952855577,-62.88265780730899
1.0106648061397387,-61.88265780730899
1.01166151699392,-49.88265780730899
1.0126582278481011,-33.88265780730899
1.0136549387022824,-22.882657807308988
1.0146516495564635,-19.882657807308988
1.0156483604106448,-5.882657807308988
1.016645071264826,7.117342192691012
1.0176417821190071,29.117342192691012
1.0186384929731884,58.11734219269101
1.0196352038273695,66.11734219269101
1.0206319146815508,62.11734219269101
1.021628625535732,54.11734219269101
1.0226253363899132,41.11734219269101
1.0236220472440944,26.117342192691012
1.0246187580982755,11.117342192691012
1.0256154689524568,-7.882657807308988
1.026612179806638,-19.882657807308988
1.0276088906608192,-42.88265780730899
1.0286056015150005,-55.88265780730899
1.0296023123691815,-63.88265780730899
1.0305990232233628,-65.88265780730899
1.031595734077544,-56.88265780730899
1.0325924449317252,-52.88265780730899
1.0335891557859065,-36.88265780730899
1.0345858666400876,-17.882657807308988
1.0355825774942689,7.117342192691012
1.03657928834845,19.117342192691012
1.0375759992026312,49.11734219269101
1.0385727100568125,64.11734219269101
1.0395694209109936,68.11734219269101
1.0405661317651749,64.11734219269101
1.041562842619356,52.11734219269101
1.0425595534735372,41.11734219269101
1.0435562643277185,30.117342192691012
1.0445529751818996,12.117342192691012
1.045549686036081,-5.882657807308988
1.046546396890262,-20.882657807308988
1.0475431077444433,-40.88265780730899
1.0485398185986246,-49.88265780730899
1.0495365294528056,-53.88265780730899
1.050533240306987,-56.88265780730899
1.051529951161168,-54.88265780730899
1.0525266620153493,-54.88265780730899
1.0535233728695304,-34.88265780730899
1.0545200837237116,-13.882657807308988
1.055516794577893,12.117342192691012
1.056513505432074,24.117342192691012
1.0575102162862553,37.11734219269101
1.0585069271404364,48.11734219269101
1.0595036379946177,56.11734219269101
1.060500348848799,62.11734219269101
1.06149705970298,58.11734219269101
1.0624937705571613,46.11734219269101
1.0634904814113424,27.117342192691012
1.0644871922655237,3.1173421926910123
1.065483903119705,-17.882657807308988
1.066480613973886,-27.882657807308988
1.0674773248280673,-36.88265780730899
1.0684740356822484,-60.88265780730899
1.0694707465364297,-60.88265780730899
1.0704674573906108,-51.88265780730899
1.071464168244792,-44.88265780730899
1.0724608790989734,-46.88265780730899
1.0734575899531544,-41.88265780730899
1.0744543008073357,-17.882657807308988
1.0754510116615168,14.117342192691012
1.076447722515698,42.11734219269101
1.0774444333698794,40.11734219269101
1.0784411442240605,51.11734219269101
1.0794378550782417,52.11734219269101
1.0804345659324228,51.11734219269101
1.0814312767866041,49.11734219269101
1.0824279876407854,44.11734219269101
1.0834246984949665,46.11734219269101
1.0844214093491478,28.117342192691012
1.0854181202033288,6.117342192691012
1.0864148310575101,-23.882657807308988
1.0874115419116914,-42.88265780730899
1.0884082527658725,-58.88265780730899
1.0894049636200538,-70.88265780730899
1.0904016744742349,-70.88265780730899
1.0913983853284162,-62.88265780730899
1.0923950961825972,-59.88265780730899
1.0933918070367785,-46.88265780730899
1.0943885178909598,-12.882657807308988
1.0953852287451409,9.117342192691012
1.0963819395993222,24.117342192691012
1.0973786504535032,43.11734219269101
1.0983753613076845,64.11734219269101
1.0993720721618658,65.11734219269101
1.100368783016047,64.11734219269101
1.1013654938702282,64.11734219269101
1.1023622047244093,48.11734219269101
1.1033589155785906,31.117342192691012
1.1043556264327719,13.117342192691012
1.105352337286953,2.1173421926910123
1.1063490481411342,-14.882657807308988
1.1073457589953153,-39.88265780730899
1.1083424698494966,-55.88265780730899
1.1093391807036777,-58.88265780730899
1.110335891557859,-60.88265780730899
1.1113326024120402,-60.88265780730899
1.1123293132662213,-59.88265780730899
1.1133260241204026,-43.88265780730899
1.1143227349745837,-14.882657807308988
1.115319445828765,5.117342192691012
1.1163161566829463,19.117342192691012
1.1173128675371273,29.117342192691012
1.1183095783913086,47.11734219269101
1.1193062892454897,57.11734219269101
1.120303000099671,61.11734219269101
1.1212997109538523,65.11734219269101
1.1222964218080334,56.11734219269101
1.1232931326622146,43.11734219269101
1.1242898435163957,23.117342192691012
1.125286554370577,-5.882657807308988
1.1262832652247583,-19.882657807308988
1.1272799760789394,-44.88265780730899
1.1282766869331207,-58.88265780730899
1.1292733977873017,-66.88265780730899
1.130270108641483,-59.88265780730899
1.131266819495664,-59.88265780730899
1.1322635303498454,-47.88265780730899
1.1332602412040267,-35.88265780730899
1.1342569520582078,-13.882657807308988
1.135253662912389,6.117342192691012
1.1362503737665701,14.117342192691012
1.1372470846207514,27.117342192691012
1.1382437954749327,44.11734219269101
1.1392405063291138,73.11734219269101
1.140237217183295,85.11734219269101
1.1412339280374761,69.11734219269101
1.1422306388916574,44.11734219269101
1.1432273497458387,34.11734219269101
1.1442240606000198,20.117342192691012
1.145220771454201,-2.8826578073089877
1.1462174823083822,-25.882657807308988
1.1472141931625635,-50.88265780730899
1.1482109040167447,-59.88265780730899
1.1492076148709258,-65.88265780730899
1.1502043257251071,-71.88265780730899
1.1512010365792882,-59.88265780730899
1.1521977474334695,-47.88265780730899
1.1531944582876505,-49.88265780730899
1.1541911691418318,-30.882657807308988
1.1551878799960131,-2.8826578073089877
1.1561845908501942,29.117342192691012
1.1571813017043755,45.11734219269101
1.1581780125585566,67.11734219269101
1.1591747234127379,82.11734219269101
1.1601714342669192,75.11734219269101
1.1611681451211002,83.11734219269101
1.1621648559752815,60.11734219269101
1.1631615668294626,36.11734219269101
1.1641582776836439,16.117342192691012
1.1651549885378252,-9.882657807308988
1.1661516993920062,-28.882657807308988
1.1671484102461875,-46.88265780730899
1.1681451211003686,-59.88265780730899
1.16914183195455,-68.88265780730899
1.170138542808731,-62.88265780730899
1.1711352536629123,-47.88265780730899
1.1721319645170936,-58.88265780730899
1.1731286753712746,-47.88265780730899
1.174125386225456,-21.882657807308988
1.175122097079637,4.117342192691012
1.1761188079338183,22.117342192691012
1.1771155187879996,45.11734219269101
1.1781122296421807,60.11734219269101
1.179108940496362,75.11734219269101
1.180105651350543,72.11734219269101
1.1811023622047243,59.11734219269101
1.1820990730589056,39.11734219269101
1.1830957839130867,32.11734219269101
1.184092494767268,24.117342192691012
1.185089205621449,-6.882657807308988
1.1860859164756303,-25.882657807308988
1.1870826273298116,-45.88265780730899
1.1880793381839927,-58.88265780730899
1.189076049038174,-61.88265780730899
1.190072759892355,-52.88265780730899
1.1910694707465364,-56.88265780730899
1.1920661816007174,-58.88265780730899
1.1930628924548987,-52.88265780730899
1.19405960330908,-17.882657807308988
1.195056314163261,20.117342192691012
1.1960530250174424,36.11734219269101
1.1970497358716234,48.11734219269101
1.1980464467258047,46.11734219269101
1.199043157579986,55.11734219269101
1.200039868434167,58.11734219269101
1.2010365792883484,51.11734219269101
1.2020332901425295,41.11734219269101
1.2030300009967108,46.11734219269101
1.204026711850892,36.11734219269101
1.2050234227050731,-0.8826578073089877
1.2060201335592544,-27.882657807308988
1.2070168444134355,-39.88265780730899
1.2080135552676168,-51.88265780730899
1.2090102661217978,-70.88265780730899
1.2100069769759791,-76.88265780730899
1.2110036878301604,-66.88265780730899
1.2120003986843415,-59.88265780730899
1.2129971095385228,-39.88265780730899
1.2139938203927039,-2.8826578073089877
1.2149905312468852,20.117342192691012
1.2159872421010665,28.117342192691012
1.2169839529552475,27.117342192691012
1.2179806638094288,48.11734219269101
1.21897737466361,71.11734219269101
1.2199740855177912,78.11734219269101
1.2209707963719725,69.11734219269101
1.2219675072261535,54.11734219269101
1.2229642180803348,27.117342192691012
1.223960928934516,9.117342192691012
1.2249576397886972,-12.882657807308988
1.2259543506428785,-31.882657807308988
1.2269510614970596,-52.88265780730899
1.2279477723512409,-52.88265780730899
1.228944483205422,-52.88265780730899
1.2299411940596032,-61.88265780730899
1.2309379049137843,-51.88265780730899
1.2319346157679656,-45.88265780730899
1.2329313266221469,-39.88265780730899
1.233928037476328,-20.882657807308988
1.2349247483305092,12.117342192691012
1.2359214591846903,20.117342192691012
1.2369181700388716,38.11734219269101
1.237914880893053,59.11734219269101
1.238911591747234,60.11734219269101
1.2399083026014153,62.11734219269101
1.2409050134555963,54.11734219269101
1.2419017243097776,40.11734219269101
1.242898435163959,27.117342192691012
1.24389514601814,10.117342192691012
1.2448918568723213,-3.8826578073089877
1.2458885677265024,-10.882657807308988
1.2468852785806837,-24.882657807308988
1.2478819894348647,-46.88265780730899
1.248878700289046,-61.88265780730899
1.2498754111432273,-65.88265780730899
1.2508721219974084,-53.88265780730899
1.2518688328515897,-48.88265780730899
1.2528655437057707,-31.882657807308988
1.253862254559952,-14.882657807308988
1.2548589654141333,9.117342192691012
1.2558556762683144,32.11734219269101
1.2568523871224957,32.11734219269101
1.2578490979766768,44.11734219269101
1.258845808830858,44.11734219269101
1.2598425196850394,56.11734219269101
1.2608392305392204,59.11734219269101
1.2618359413934017,53.11734219269101
1.2628326522475828,43.11734219269101
1.263829363101764,18.117342192691012
1.2648260739559454,-12.882657807308988
1.2658227848101264,-31.882657807308988
1.2668194956643077,-45.88265780730899
1.2678162065184888,-51.88265780730899
1.26881291737267,-46.88265780730899
1.2698096282268512,-49.88265780730899
1.2708063390810325,-51.88265780730899
1.2718030499352138,-56.88265780730899
1.2727997607893948,-34.88265780730899
1.2737964716435761,-11.882657807308988
1.2747931824977572,9.117342192691012
1.2757898933519385,17.117342192691012
1.2767866042061198,25.117342192691012
1.2777833150603009,43.11734219269101
1.2787800259144821,56.11734219269101
1.2797767367686632,58.11734219269101
1.2807734476228445,76.11734219269101
1.2817701584770258,61.11734219269101
1.2827668693312069,44.11734219269101
1.2837635801853882,22.117342192691012
1.2847602910395692,-4.882657807308988
1.2857570018937505,-29.882657807308988
1.2867537127479316,-44.88265780730899
1.287750423602113,-52.88265780730899
1.2887471344562942,-58.88265780730899
1.2897438453104753,-62.88265780730899
1.2907405561646565,-53.88265780730899
1.2917372670188376,-47.88265780730899
1.292733977873019,-44.88265780730899
1.2937306887272002,-28.882657807308988
1.2947273995813813,-2.8826578073089877
1.2957241104355626,28.117342192691012
1.2967208212897436,49.11734219269101
1.297717532143925,59.11734219269101
1.2987142429981062,64.11734219269101
1.2997109538522873,64.11734219269101
1.3007076647064686,57.11734219269101
1.3017043755606497,46.11734219269101
1.302701086414831,33.11734219269101
1.3036977972690122,10.117342192691012
1.3046945081231933,-8.882657807308988
1.3056912189773746,-21.882657807308988
1.3066879298315557,-39.88265780730899
1.307684640685737,-49.88265780730899
1.308681351539918,-55.88265780730899
1.3096780623940993,-65.88265780730899
1.3106747732482806,-58.88265780730899
1.3116714841024617,-48.88265780730899
1.312668194956643,-14.882657807308988
1.313664905810824,8.117342192691012
1.3146616166650054,13.117342192691012
1.3156583275191867,24.117342192691012
1.3166550383733677,49.11734219269101
1.317651749227549,46.11734219269101
1.31864846008173,39.11734219269101
1.3196451709359114,44.11734219269101
1.3206418817900927,43.11734219269101
1.3216385926442737,29.117342192691012
1.322635303498455,22.117342192691012
1.323632014352636,11.117342192691012
1.3246287252068174,-3.8826578073089877
1.3256254360609985,-27.882657807308988
1.3266221469151798,-35.88265780730899
1.327618857769361,-49.88265780730899
1.3286155686235421,-49.88265780730899
1.3296122794777234,-51.88265780730899
1.3306089903319045,-37.88265780730899
1.3316057011860858,-11.882657807308988
1.332602412040267,-8.882657807308988
1.3335991228944482,-14.882657807308988
1.3345958337486294,2.1173421926910123
1.3355925446028105,10.117342192691012
1.3365892554569918,30.117342192691012
1.337585966311173,42.11734219269101
1.3385826771653542,50.11734219269101
1.3395793880195355,46.11734219269101
1.3405760988737165,38.11734219269101
1.3415728097278978,24.117342192691012
1.3425695205820791,14.117342192691012
1.3435662314362602,-6.882657807308988
1.3445629422904415,-22.882657807308988
1.3455596531446226,-23.882657807308988
1.3465563639988039,-33.88265780730899
1.347553074852985,-26.882657807308988
1.3485497857071662,-25.882657807308988
1.3495464965613475,-30.882657807308988
1.3505432074155286,-27.882657807308988
1.3515399182697099,-21.882657807308988
1.352536629123891,-15.882657807308988
1.3535333399780722,2.1173421926910123
1.3545300508322535,16.117342192691012
1.3555267616864346,14.117342192691012
1.356523472540616,14.117342192691012
1.357520183394797,23.117342192691012
1.3585168942489783,40.11734219269101
1.3595136051031596,44.11734219269101
1.3605103159573406,22.117342192691012
1.361507026811522,15.117342192691012
1.362503737665703,10.117342192691012
1.3635004485198843,8.117342192691012
1.3644971593740653,-0.8826578073089877
1.3654938702282466,-24.882657807308988
1.366490581082428,-25.882657807308988
1.367487291936609,-22.882657807308988
1.3684840027907903,-37.88265780730899
1.3694807136449714,-27.882657807308988
1.3704774244991527,-12.882657807308988
1.371474135353334,-17.882657807308988
1.372470846207515,-12.882657807308988
1.3734675570616963,-7.882657807308988
1.3744642679158774,8.117342192691012
1.3754609787700587,10.117342192691012
1.37645768962424,21.117342192691012
1.377454400478421,33.11734219269101
1.3784511113326023,38.11734219269101
1.3794478221867834,24.117342192691012
1.3804445330409647,16.117342192691012
1.381441243895146,12.117342192691012
1.382437954749327,11.117342192691012
1.3834346656035084,-0.8826578073089877
1.3844313764576894,-23.882657807308988
1.3854280873118707,-20.882657807308988
1.3864247981660518,-16.882657807308988
1.387421509020233,-17.882657807308988
1.3884182198744144,-14.882657807308988
1.3894149307285955,-19.882657807308988
1.3904116415827767,-23.882657807308988
1.3914083524369578,-19.882657807308988
1.3924050632911391,-9.882657807308988
1.3934017741453204,-2.8826578073089877
1.3943984849995015,8.117342192691012
1.3953951958536828,28.117342192691012
1.3963919067078638,28.117342192691012
1.3973886175620451,29.117342192691012
1.3983853284162264,25.117342192691012
1.3993820392704075,15.117342192691012
1.4003787501245888,9.117342192691012
1.4013754609787699,6.117342192691012
1.4023721718329512,-0.8826578073089877
1.4033688826871322,-6.882657807308988
1.4043655935413135,-17.882657807308988
1.4053623043954948,-17.882657807308988
1.4063590152496759,-9.882657807308988
1.4073557261038572,-22.882657807308988
1.4083524369580382,-35.88265780730899
1.4093491478122195,-28.882657807308988
1.4103458586664008,-9.882657807308988
1.411342569520582,4.117342192691012
1.4123392803747632,19.117342192691012
1.4133359912289443,23.117342192691012
1.4143327020831256,8.117342192691012
1.4153294129373069,8.117342192691012
1.416326123791488,11.117342192691012
1.4173228346456692,20.117342192691012
1.4183195454998503,22.117342192691012
1.4193162563540316,13.117342192691012
1.4203129672082129,1.1173421926910123
1.421309678062394,-1.8826578073089877
1.4223063889165752,1.1173421926910123
1.4233030997707563,8.117342192691012
1.4242998106249376,-6.882657807308988
1.4252965214791187,-10.882657807308988
1.4262932323333,-8.882657807308988
1.4272899431874813,-13.882657807308988
1.4282866540416623,-11.882657807308988
1.4292833648958436,-8.882657807308988
1.4302800757500247,-8.882657807308988
1.431276786604206,-10.882657807308988
1.4322734974583873,-12.882657807308988
1.4332702083125684,-9.882657807308988
1.4342669191667496,8.117342192691012
1.4352636300209307,24.117342192691012
1.436260340875112,19.117342192691012
1.4372570517292933,20.117342192691012
1.4382537625834744,12.117342192691012
1.4392504734376557,10.117342192691012
1.4402471842918367,13.117342192691012
1.441243895146018,6.117342192691012
1.4422406060001993,-3.8826578073089877
1.4432373168543804,-11.882657807308988
1.4442340277085617,-24.882657807308988
1.4452307385627428,-25.882657807308988
1.446227449416924,-12.882657807308988
1.4472241602711051,-20.882657807308988
1.4482208711252864,-11.882657807308988
1.4492175819794677,-8.882657807308988
1.4502142928336488,-5.882657807308988
1.45121100368783,6.117342192691012
1.4522077145420111,17.117342192691012
1.4532044253961924,8.117342192691012
1.4542011362503737,7.117342192691012
1.4551978471045548,14.117342192691012
1.456194557958736,23.117342192691012
1.4571912688129172,25.117342192691012
1.4581879796670985,20.117342192691012
1.4591846905212797,12.117342192691012
1.4601814013754608,-1.8826578073089877
1.4611781122296421,-7.882657807308988
1.4621748230838232,-5.882657807308988
1.4631715339380045,-6.882657807308988
1.4641682447921855,-15.882657807308988
1.4651649556463668,-15.882657807308988
1.4661616665005481,-11.882657807308988
1.4671583773547292,-19.882657807308988
1.4681550882089105,-26.882657807308988
1.4691517990630916,-24.882657807308988
1.4701485099172729,2.1173421926910123
1.4711452207714542,-4.882657807308988
1.4721419316256352,-5.882657807308988
1.4731386424798165,11.117342192691012
1.4741353533339976,22.117342192691012
1.4751320641881789,14.117342192691012
1.4761287750423602,14.117342192691012
1.4771254858965412,30.117342192691012
1.4781221967507225,26.117342192691012
1.4791189076049036,32.11734219269101
1.480115618459085,36.11734219269101
1.4811123293132662,30.117342192691012
1.4821090401674473,-3.8826578073089877
1.4831057510216286,-26.882657807308988
1.4841024618758096,-17.882657807308988
1.485099172729991,-7.882657807308988
1.486095883584172,-20.882657807308988
1.4870925944383533,-39.88265780730899
1.4880893052925346,-39.88265780730899
1.4890860161467157,-38.88265780730899
1.490082727000897,-37.88265780730899
1.491079437855078,-27.882657807308988
1.4920761487092593,-16.882657807308988
1.4930728595634406,-15.882657807308988
1.4940695704176217,4.117342192691012
1.495066281271803,6.117342192691012
1.496062992125984,29.117342192691012
1.4970597029801653,66.11734219269101
1.4980564138343466,75.11734219269101
1.4990531246885277,57.11734219269101
1.500049835542709,48.11734219269101
1.50104654639689,38.11734219269101
1.5020432572510714,34.11734219269101
1.5030399681052524,15.117342192691012
1.5040366789594337,-18.882657807308988
1.505033389813615,-30.882657807308988
1.506030100667796,-40.88265780730899
1.5070268115219774,-54.88265780730899
1.5080235223761584,-71.88265780730899
1.5090202332303397,-62.88265780730899
1.510016944084521,-45.88265780730899
1.511013654938702,-18.882657807308988
1.5120103657928834,-20.882657807308988
1.5130070766470645,-8.882657807308988
1.5140037875012458,3.1173421926910123
1.515000498355427,16.117342192691012
1.5159972092096081,32.11734219269101
1.5169939200637894,49.11734219269101
1.5179906309179705,60.11734219269101
1.5189873417721518,56.11734219269101
1.519984052626333,55.11734219269101
1.5209807634805141,39.11734219269101
1.5219774743346954,25.117342192691012
1.5229741851888765,25.117342192691012
1.5239708960430578,10.117342192691012
1.5249676068972389,-13.882657807308988
1.5259643177514202,-27.882657807308988
1.5269610286056015,-48.88265780730899
1.5279577394597825,-56.88265780730899
1.5289544503139638,-65.88265780730899
1.529951161168145,-60.88265780730899
1.5309478720223262,-44.88265780730899
1.5319445828765075,-33.88265780730899
1.5329412937306885,-17.882657807308988
1.5339380045848698,5.117342192691012
1.534934715439051,23.117342192691012
1.5359314262932322,36.11734219269101
1.5369281371474135,36.11734219269101
1.5379248480015946,54.11734219269101
1.5389215588557759,62.11734219269101
1.539918269709957,59.11734219269101
1.5409149805641382,53.11734219269101
1.5419116914183193,40.11734219269101
1.5429084022725006,17.117342192691012
1.5439051131266819,-8.882657807308988
1.544901823980863,-24.882657807308988
1.5458985348350442,-41.88265780730899
1.5468952456892253,-54.88265780730899
1.5478919565434066,-62.88265780730899
1.548888667397588,-66.88265780730899
1.549885378251769,-55.88265780730899
1.5508820891059503,-43.88265780730899
1.5518787999601313,-20.882657807308988
1.5528755108143126,-14.882657807308988
1.553872221668494,5.117342192691012
1.554868932522675,27.117342192691012
1.5558656433768563,32.11734219269101
1.5568623542310374,40.11734219269101
1.5578590650852187,44.11734219269101
1.5588557759394,51.11734219269101
1.559852486793581,53.11734219269101
1.5608491976477623,63.11734219269101
1.5618459085019434,52.11734219269101
1.5628426193561247,36.11734219269101
1.5638393302103057,5.117342192691012
1.564836041064487,-33.88265780730899
1.5658327519186683,-48.88265780730899
1.5668294627728494,-45.88265780730899
1.5678261736270307,-45.88265780730899
1.5688228844812118,-62.88265780730899
1.569819595335393,-64.88265780730899
1.5708163061895744,-54.88265780730899
1.5718130170437554,-51.88265780730899
1.5728097278979367,-21.882657807308988
1.5738064387521178,14.117342192691012
1.574803149606299,33.11734219269101
1.5757998604604804,34.11734219269101
1.5767965713146614,51.11734219269101
1.5777932821688427,64.11734219269101
1.5787899930230238,63.11734219269101
1.579786703877205,62.11734219269101
1.5807834147313862,50.11734219269101
1.5817801255855675,35.11734219269101
1.5827768364397488,17.117342192691012
1.5837735472939298,-10.882657807308988
1.5847702581481111,-23.882657807308988
1.5857669690022922,-41.88265780730899
1.5867636798564735,-60.88265780730899
1.5877603907106548,-63.88265780730899
1.5887571015648358,-61.88265780730899
1.5897538124190171,-47.88265780730899
1.5907505232731982,-38.88265780730899
1.5917472341273795,-33.88265780730899
1.5927439449815608,-15.882657807308988
1.5937406558357419,3.1173421926910123
1.5947373666899232,15.117342192691012
1.5957340775441042,28.117342192691012
1.5967307883982855,54.11734219269101
1.5977274992524668,70.11734219269101
1.598724210106648,65.11734219269101
1.5997209209608292,53.11734219269101
1.6007176318150103,47.11734219269101
1.6017143426691915,42.11734219269101
1.6027110535233726,28.117342192691012
1.603707764377554,-12.882657807308988
1.6047044752317352,-20.882657807308988
1.6057011860859163,-27.882657807308988
1.6066978969400976,-55.88265780730899
1.6076946077942786,-67.88265780730899
1.60869131864846,-62.88265780730899
1.6096880295026412,-48.88265780730899
1.6106847403568223,-43.88265780730899
1.6116814512110036,-38.88265780730899
1.6126781620651847,-25.882657807308988
1.613674872919366,-14.882657807308988
1.6146715837735472,4.117342192691012
1.6156682946277283,9.117342192691012
1.6166650054819096,55.11734219269101
1.6176617163360907,91.11734219269101
1.618658427190272,103.11734219269101
1.619655138044453,84.11734219269101
1.6206518488986343,58.11734219269101
1.6216485597528156,37.11734219269101
1.6226452706069967,15.117342192691012
1.623641981461178,-15.882657807308988
1.624638692315359,-33.88265780730899
1.6256354031695404,-54.88265780730899
1.6266321140237217,-75.88265780730899
1.6276288248779027,-78.88265780730899
1.628625535732084,-75.88265780730899
1.629622246586265,-57.88265780730899
1.6306189574404464,-31.882657807308988
1.6316156682946277,-7.882657807308988
1.6326123791488087,-7.882657807308988
1.63360909000299,0.11734219269101231
1.634605800857171,20.117342192691012
1.6356025117113524,42.11734219269101
1.6365992225655337,59.11734219269101
1.6375959334197148,66.11734219269101
1.638592644273896,55.11734219269101
1.6395893551280771,52.11734219269101
1.6405860659822584,47.11734219269101
1.6415827768364395,36.11734219269101
1.6425794876906208,19.117342192691012
1.643576198544802,4.117342192691012
1.6445729093989832,-21.882657807308988
1.6455696202531644,-48.88265780730899
1.6465663311073455,-60.88265780730899
1.6475630419615268,-59.88265780730899
1.648559752815708,-53.88265780730899
1.6495564636698892,-49.88265780730899
1.6505531745240705,-55.88265780730899
1.6515498853782515,-43.88265780730899
1.6525465962324328,-20.882657807308988
1.6535433070866141,13.117342192691012
1.6545400179407952,18.117342192691012
1.6555367287949765,21.117342192691012
1.6565334396491576,49.11734219269101
1.6575301505033389,62.11734219269101
1.6585268613575201,63.11734219269101
1.6595235722117012,66.11734219269101
1.6605202830658825,70.11734219269101
1.6615169939200636,49.11734219269101
1.6625137047742449,16.117342192691012
1.663510415628426,-3.8826578073089877
1.6645071264826072,-22.882657807308988
1.6655038373367885,-22.882657807308988
1.6665005481909696,-51.88265780730899
1.667497259045151,-68.88265780730899
1.668493969899332,-72.88265780730899
1.6694906807535133,-62.88265780730899
1.6704873916076945,-55.88265780730899
1.6714841024618756,-43.88265780730899
1.672480813316057,-11.882657807308988
1.673477524170238,8.117342192691012
1.6744742350244193,19.117342192691012
1.6754709458786006,30.117342192691012
1.6764676567327816,40.11734219269101
1.677464367586963,54.11734219269101
1.678461078441144,69.11734219269101
1.6794577892953253,71.11734219269101
1.6804545001495064,49.11734219269101
1.6814512110036877,29.117342192691012
1.682447921857869,10.117342192691012
1.68344463271205,-14.882657807308988
1.6844413435662313,-21.882657807308988
1.6854380544204124,-24.882657807308988
1.6864347652745937,-44.88265780730899
1.687431476128775,-58.88265780730899
1.688428186982956,-55.88265780730899
1.6894248978371373,-40.88265780730899
1.6904216086913184,-43.88265780730899
1.6914183195454997,-41.88265780730899
1.692415030399681,-31.882657807308988
1.693411741253862,-3.8826578073089877
1.6944084521080434,22.117342192691012
1.6954051629622244,38.11734219269101
1.6964018738164057,50.11734219269101
1.697398584670587,57.11734219269101
1.698395295524768,65.11734219269101
1.6993920063789494,59.11734219269101
1.7003887172331305,53.11734219269101
1.7013854280873117,49.11734219269101
1.7023821389414928,25.117342192691012
1.703378849795674,-14.882657807308988
1.7043755606498554,-30.882657807308988
1.7053722715040365,-45.88265780730899
1.7063689823582178,-55.88265780730899
1.7073656932123988,-65.88265780730899
1.7083624040665801,-61.88265780730899
1.7093591149207614,-49.88265780730899
1.7103558257749425,-41.88265780730899
1.7113525366291238,-28.882657807308988
1.7123492474833049,-4.882657807308988
1.7133459583374862,1.1173421926910123
1.7143426691916674,9.117342192691012
1.7153393800458485,20.117342192691012
1.7163360909000298,45.11734219269101
1.7173328017542109,65.11734219269101
1.7183295126083922,57.11734219269101
1.7193262234625732,56.11734219269101
1.7203229343167545,45.11734219269101
1.7213196451709358,42.11734219269101
1.722316356025117,22.117342192691012
1.7233130668792982,-11.882657807308988
1.7243097777334793,-12.882657807308988
1.7253064885876606,-20.882657807308988
1.7263031994418419,-44.88265780730899
1.727299910296023,-64.88265780730899
1.7282966211502042,-61.88265780730899
1.7292933320043853,-57.88265780730899
1.7302900428585666,-48.88265780730899
1.7312867537127479,-34.88265780730899
1.732283464566929,-20.882657807308988
1.7332801754211102,3.1173421926910123
1.7342768862752913,18.117342192691012
1.7352735971294726,32.11734219269101
1.736270307983654,46.11734219269101
1.737267018837835,59.11734219269101
1.7382637296920163,55.11734219269101
1.7392604405461973,48.11734219269101
1.7402571514003786,50.11734219269101
1.7412538622545597,51.11734219269101
1.742250573108741,38.11734219269101
1.7432472839629223,5.117342192691012
1.7442439948171033,-19.882657807308988
1.7452407056712846,-27.882657807308988
1.7462374165254657,-51.88265780730899
1.747234127379647,-60.88265780730899
1.7482308382338283,-66.88265780730899
1.7492275490880094,-63.88265780730899
1.7502242599421907,-58.88265780730899
1.7512209707963717,-45.88265780730899
1.752217681650553,-21.882657807308988
1.7532143925047343,-4.882657807308988
1.7542111033589154,18.117342192691012
1.7552078142130967,31.117342192691012
1.7562045250672778,52.11734219269101
1.757201235921459,55.11734219269101
1.7581979467756401,55.11734219269101
1.7591946576298214,50.11734219269101
1.7601913684840027,46.11734219269101
1.7611880793381838,36.11734219269101
1.762184790192365,18.117342192691012
1.7631815010465461,5.117342192691012
1.7641782119007274,-7.882657807308988
1.7651749227549087,-15.882657807308988
1.7661716336090898,-46.88265780730899
1.767168344463271,-73.88265780730899
1.7681650553174522,-71.88265780730899
1.7691617661716335,-44.88265780730899
1.7701584770258147,-30.882657807308988
1.7711551878799958,-28.882657807308988
1.7721518987341771,-22.882657807308988
1.7731486095883582,-19.882657807308988
1.7741453204425395,17.117342192691012
1.7751420312967208,40.11734219269101
1.7761387421509018,46.11734219269101
1.7771354530050831,56.11734219269101
1.7781321638592642,61.11734219269101
1.7791288747134455,59.11734219269101
1.7801255855676266,48.11734219269101
1.7811222964218079,29.117342192691012
1.7821190072759892,7.117342192691012
1.7831157181301702,-7.882657807308988
1.7841124289843515,-26.882657807308988
1.7851091398385326,-33.88265780730899
1.7861058506927139,-33.88265780730899
1.7871025615468952,-40.88265780730899
1.7880992724010762,-42.88265780730899
1.7890959832552575,-43.88265780730899
1.7900926941094386,-52.88265780730899
1.79108940496362,-53.88265780730899
1.7920861158178012,-22.882657807308988
1.7930828266719823,8.117342192691012
1.7940795375261636,18.117342192691012
1.7950762483803446,29.117342192691012
1.796072959234526,42.11734219269101
1.797069670088707,51.11734219269101
1.7980663809428883,57.11734219269101
1.7990630917970696,59.11734219269101
1.8000598026512507,57.11734219269101
1.801056513505432,38.11734219269101
1.802053224359613,28.117342192691012
1.8030499352137943,5.117342192691012
1.8040466460679756,-16.882657807308988
1.8050433569221567,-36.88265780730899
1.806040067776338,-55.88265780730899
1.807036778630519,-65.88265780730899
1.8080334894847003,-66.88265780730899
1.8090302003388816,-56.88265780730899
1.8100269111930627,-44.88265780730899
1.811023622047244,-45.88265780730899
1.812020332901425,-23.882657807308988
1.8130170437556064,8.117342192691012
1.8140137546097876,22.117342192691012
1.8150104654639687,33.11734219269101
1.81600717631815,48.11734219269101
1.817003887172331,61.11734219269101
1.8180005980265124,65.11734219269101
1.8189973088806934,67.11734219269101
1.8199940197348747,56.11734219269101
1.820990730589056,33.11734219269101
1.821987441443237,11.117342192691012
1.8229841522974184,-14.882657807308988
1.8239808631515995,-24.882657807308988
1.8249775740057808,-34.88265780730899
1.825974284859962,-45.88265780730899
1.8269709957141431,-58.88265780730899
1.8279677065683244,-57.88265780730899
1.8289644174225055,-53.88265780730899
1.8299611282766868,-43.88265780730899
1.830957839130868,-40.88265780730899
1.8319545499850491,-22.882657807308988
1.8329512608392304,7.117342192691012
1.8339479716934115,21.117342192691012
1.8349446825475928,29.117342192691012
1.8359413934017739,49.11734219269101
1.8369381042559552,65.11734219269101
1.8379348151101365,69.11734219269101
1.8389315259643175,58.11734219269101
1.8399282368184988,47.11734219269101
1.84092494767268,34.11734219269101
1.8419216585268612,17.117342192691012
1.8429183693810425,-13.882657807308988
1.8439150802352235,-34.88265780730899
1.8449117910894048,-41.88265780730899
1.845908501943586,-42.88265780730899
1.8469052127977672,-43.88265780730899
1.8479019236519485,-59.88265780730899
1.8488986345061296,-54.88265780730899
1.8498953453603109,-37.88265780730899
1.850892056214492,-32.88265780730899
1.8518887670686732,-17.882657807308988
1.8528854779228545,13.117342192691012
1.8538821887770356,20.117342192691012
1.8548788996312169,29.117342192691012
1.855875610485398,48.11734219269101
1.8568723213395792,58.11734219269101
1.8578690321937603,54.11734219269101
1.8588657430479416,46.11734219269101
1.859862453902123,35.11734219269101
1.860859164756304,24.117342192691012
1.8618558756104853,21.117342192691012
1.8628525864646663,7.117342192691012
1.8638492973188476,-0.8826578073089877
1.864846008173029,-23.882657807308988
1.86584271902721,-45.88265780730899
1.8668394298813913,-61.88265780730899
1.8678361407355724,-60.88265780730899
1.8688328515897537,-65.88265780730899
1.869829562443935,-51.88265780730899
1.870826273298116,-40.88265780730899
1.8718229841522973,-28.882657807308988
1.8728196950064784,-3.8826578073089877
1.8738164058606597,19.117342192691012
1.8748131167148407,30.117342192691012
1.875809827569022,43.11734219269101
1.8768065384232033,51.11734219269101
1.8778032492773844,61.11734219269101
1.8787999601315657,60.11734219269101
1.8797966709857468,59.11734219269101
1.880793381839928,51.11734219269101
1.8817900926941094,31.117342192691012
1.8827868035482904,-13.882657807308988
1.8837835144024717,-27.882657807308988
1.8847802252566528,-30.882657807308988
1.885776936110834,-39.88265780730899
1.8867736469650154,-47.88265780730899
1.8877703578191964,-52.88265780730899
1.8887670686733777,-52.88265780730899
1.8897637795275588,-50.88265780730899
1.89076049038174,-40.88265780730899
1.8917572012359214,-22.882657807308988
1.8927539120901025,-1.8826578073089877
1.8937506229442838,7.117342192691012
1.8947473337984648,20.117342192691012
1.8957440446526461,36.11734219269101
1.8967407555068272,50.11734219269101
1.8977374663610085,53.11734219269101
1.8987341772151898,54.11734219269101
1.8997308880693708,59.11734219269101
1.9007275989235521,46.11734219269101
1.9017243097777332,25.117342192691012
1.9027210206319145,15.117342192691012
1.9037177314860958,1.1173421926910123
1.9047144423402769,-24.882657807308988
1.9057111531944582,-39.88265780730899
1.9067078640486392,-61.88265780730899
1.9077045749028205,-64.88265780730899
1.9087012857570018,-50.88265780730899
1.909697996611183,-47.88265780730899
1.9106947074653642,-50.88265780730899
1.9116914183195453,-35.88265780730899
1.9126881291737265,-10.882657807308988
1.9136848400279076,14.117342192691012
1.914681550882089,28.117342192691012
1.9156782617362702,53.11734219269101
1.9166749725904513,66.11734219269101
1.9176716834446326,57.11734219269101
1.9186683942988136,61.11734219269101
1.919665105152995,56.11734219269101
1.9206618160071762,20.117342192691012
1.9216585268613573,10.117342192691012
1.9226552377155386,-8.882657807308988
1.9236519485697197,-18.882657807308988
1.924648659423901,-23.882657807308988
1.9256453702780822,-32.88265780730899
1.9266420811322633,-40.88265780730899
1.9276387919864446,-62.88265780730899
1.9286355028406257,-68.88265780730899
1.929632213694807,-49.88265780730899
1.9306289245489883,-38.88265780730899
1.9316256354031693,-22.882657807308988
1.9326223462573506,-4.882657807308988
1.9336190571115317,9.117342192691012
1.934615767965713,25.117342192691012
1.935612478819894,51.11734219269101
1.9366091896740754,64.11734219269101
1.9376059005282567,71.11734219269101
1.9386026113824377,65.11734219269101
1.939599322236619,54.11734219269101
1.9405960330908,46.11734219269101
1.9415927439449814,25.117342192691012
1.9425894547991627,-7.882657807308988
1.9435861656533437,-19.882657807308988
1.944582876507525,-29.882657807308988
1.945579587361706,-49.88265780730899
1.9465762982158874,-67.88265780730899
1.9475730090700687,-62.88265780730899
1.9485697199242498,-51.88265780730899
1.949566430778431,-42.88265780730899
1.9505631416326121,-47.88265780730899
1.9515598524867934,-26.882657807308988
1.9525565633409747,-4.882657807308988
1.9535532741951558,9.117342192691012
1.954549985049337,29.117342192691012
1.9555466959035182,54.11734219269101
1.9565434067576994,63.11734219269101
1.9575401176118805,56.11734219269101
1.9585368284660618,46.11734219269101
1.959533539320243,44.11734219269101
1.9605302501744242,49.11734219269101
1.9615269610286055,36.11734219269101
1.9625236718827865,-2.8826578073089877
1.9635203827369678,-26.882657807308988
1.9645170935911491,-35.88265780730899
1.9655138044453302,-51.88265780730899
1.9665105152995115,-56.88265780730899
1.9675072261536926,-54.88265780730899
1.9685039370078738,-43.88265780730899
1.9695006478620551,-38.88265780730899
1.9704973587162362,-36.88265780730899
1.9714940695704175,-27.882657807308988
1.9724907804245986,2.1173421926910123
1.9734874912787799,22.117342192691012
1.974484202132961,35.11734219269101
1.9754809129871422,53.11734219269101
1.9764776238413235,64.11734219269101
1.9774743346955046,56.11734219269101
1.978471045549686,51.11734219269101
1.979467756403867,44.11734219269101
1.9804644672580483,37.11734219269101
1.9814611781122295,25.117342192691012
1.9824578889664106,-7.882657807308988
1.983454599820592,-36.88265780730899
1.984451310674773,-49.88265780730899
1.9854480215289543,-49.88265780730899
1.9864447323831356,-58.88265780730899
1.9874414432373166,-65.88265780730899
1.988438154091498,-63.88265780730899
1.989434864945679,-57.88265780730899
1.9904315757998603,-31.882657807308988
1.9914282866540416,7.117342192691012
1.9924249975082227,14.117342192691012
1.993421708362404,22.117342192691012
1.994418419216585,33.11734219269101
1.9954151300707663,53.11734219269101
1.9964118409249474,60.11734219269101
1.9974085517791287,61.11734219269101
1.99840526263331,63.11734219269101
1.999401973487491,59.11734219269101
2.0003986843416723,46.11734219269101
2.0013953951958534,20.117342192691012
2.0023921060500345,-10.882657807308988
2.003388816904216,-31.882657807308988
2.004385527758397,-38.88265780730899
2.005382238612578,-54.88265780730899
2.0063789494667597,-74.88265780730899
2.0073756603209407,-65.88265780730899
2.008372371175122,-51.88265780730899
2.0093690820293033,-41.88265780730899
2.0103657928834844,-36.88265780730899
2.0113625037376655,-25.882657807308988
2.0123592145918465,6.117342192691012
2.013355925446028,24.117342192691012
2.014352636300209,21.117342192691012
2.01534934715439,43.11734219269101
2.0163460580085717,58.11734219269101
2.0173427688627528,61.11734219269101
2.018339479716934,58.11734219269101
2.0193361905711154,50.11734219269101
2.0203329014252964,38.11734219269101
2.0213296122794775,24.117342192691012
2.0223263231336586,1.1173421926910123
2.02332303398784,-6.882657807308988
2.024319744842021,-26.882657807308988
2.0253164556962022,-49.88265780730899
2.0263131665503837,-63.88265780730899
2.027309877404565,-65.88265780730899
2.028306588258746,-54.88265780730899
2.029303299112927,-53.88265780730899
2.0303000099671085,-38.88265780730899
2.0312967208212895,-19.882657807308988
2.0322934316754706,-3.8826578073089877
2.033290142529652,11.117342192691012
2.034286853383833,33.11734219269101
2.0352835642380143,49.11734219269101
2.036280275092196,56.11734219269101
2.037276985946377,61.11734219269101
2.038273696800558,63.11734219269101
2.039270407654739,59.11734219269101
2.0402671185089205,63.11734219269101
2.0412638293631016,45.11734219269101
2.0422605402172826,-3.8826578073089877
2.043257251071464,-32.88265780730899
2.0442539619256452,-46.88265780730899
2.0452506727798263,-55.88265780730899
2.0462473836340074,-50.88265780730899
2.047244094488189,-56.88265780730899
2.04824080534237,-54.88265780730899
2.049237516196551,-34.88265780730899
2.0502342270507325,-26.882657807308988
2.0512309379049136,-5.882657807308988
2.0522276487590947,12.117342192691012
2.053224359613276,24.117342192691012
2.0542210704674573,24.117342192691012
2.0552177813216383,48.11734219269101
2.0562144921758194,68.11734219269101
2.057211203030001,73.11734219269101
2.058207913884182,66.11734219269101
2.059204624738363,54.11734219269101
2.0602013355925446,40.11734219269101
2.0611980464467257,17.117342192691012
2.0621947573009067,-7.882657807308988
2.063191468155088,-16.882657807308988
2.0641881790092693,-27.882657807308988
2.0651848898634504,-35.88265780730899
2.0661816007176315,-46.88265780730899
2.067178311571813,-58.88265780730899
2.068175022425994,-63.88265780730899
2.069171733280175,-57.88265780730899
2.0701684441343566,-41.88265780730899
2.0711651549885377,-25.882657807308988
2.0721618658427188,-9.882657807308988
2.0731585766969,5.117342192691012
2.0741552875510814,28.117342192691012
2.0751519984052624,48.11734219269101
2.0761487092594435,53.11734219269101
2.077145420113625,54.11734219269101
2.078142130967806,56.11734219269101
2.079138841821987,61.11734219269101
2.0801355526761687,47.11734219269101
2.0811322635303497,26.117342192691012
2.082128974384531,-8.882657807308988
2.083125685238712,-33.88265780730899
2.0841223960928934,-46.88265780730899
2.0851191069470745,-55.88265780730899
2.0861158178012555,-51.88265780730899
2.087112528655437,-55.88265780730899
2.088109239509618,-41.88265780730899
2.089105950363799,-37.88265780730899
2.0901026612179803,-37.88265780730899
2.091099372072162,-26.882657807308988
2.092096082926343,-2.8826578073089877
2.093092793780524,17.117342192691012
2.0940895046347054,25.117342192691012
2.0950862154888865,43.11734219269101
2.0960829263430676,49.11734219269101
2.097079637197249,64.11734219269101
2.09807634805143,64.11734219269101
2.0990730589056112,53.11734219269101
2.1000697697597923,38.11734219269101
2.101066480613974,24.117342192691012
2.102063191468155,-4.882657807308988
2.103059902322336,-21.882657807308988
2.1040566131765175,-30.882657807308988
2.1050533240306986,-53.88265780730899
2.1060500348848796,-68.88265780730899
2.1070467457390607,-55.88265780730899
2.108043456593242,-47.88265780730899
2.1090401674474233,-44.88265780730899
2.1100368783016044,-43.88265780730899
2.111033589155786,-28.882657807308988
2.112030300009967,-10.882657807308988
2.113027010864148,11.117342192691012
2.1140237217183295,42.11734219269101
2.1150204325725106,59.11734219269101
2.1160171434266917,77.11734219269101
2.1170138542808727,72.11734219269101
2.1180105651350543,56.11734219269101
2.1190072759892353,31.117342192691012
2.1200039868434164,36.11734219269101
2.121000697697598,23.117342192691012
2.121997408551779,-2.8826578073089877
2.12299411940596,-19.882657807308988
2.123990830260141,-35.88265780730899
2.1249875411143226,-51.88265780730899
2.1259842519685037,-65.88265780730899
2.126980962822685,-66.88265780730899
2.1279776736768663,-61.88265780730899
2.1289743845310474,-53.88265780730899
2.1299710953852284,-29.882657807308988
2.13096780623941,-1.8826578073089877
2.131964517093591,11.117342192691012
2.132961227947772,12.117342192691012
2.133957938801953,21.117342192691012
2.1349546496561347,47.11734219269101
2.1359513605103158,69.11734219269101
2.136948071364497,71.11734219269101
2.1379447822186783,64.11734219269101
2.1389414930728594,48.11734219269101
2.1399382039270405,38.11734219269101
2.1409349147812216,17.117342192691012
2.141931625635403,-10.882657807308988
2.142928336489584,-20.882657807308988
2.143925047343765,-39.88265780730899
2.1449217581979467,-60.88265780730899
2.145918469052128,-68.88265780730899
2.146915179906309,-65.88265780730899
2.1479118907604904,-47.88265780730899
2.1489086016146715,-36.88265780730899
2.1499053124688525,-20.882657807308988
2.1509020233230336,-18.882657807308988
2.151898734177215,2.1173421926910123
2.152895445031396,20.117342192691012
2.1538921558855773,21.117342192691012
2.1548888667397588,36.11734219269101
2.15588557759394,58.11734219269101
2.156882288448121,56.11734219269101
2.1578789993023024,52.11734219269101
2.1588757101564835,51.11734219269101
2.1598724210106646,29.117342192691012
2.1608691318648456,17.117342192691012
2.161865842719027,-5.882657807308988
2.1628625535732082,-18.882657807308988
2.1638592644273893,-27.882657807308988
2.164855975281571,-41.88265780730899
2.165852686135752,-52.88265780730899
2.166849396989933,-55.88265780730899
2.167846107844114,-52.88265780730899
2.1688428186982955,-52.88265780730899
2.1698395295524766,-42.88265780730899
2.1708362404066577,-30.882657807308988
2.171832951260839,-7.882657807308988
2.1728296621150203,21.117342192691012
2.1738263729692013,35.11734219269101
2.174823083823383,44.11734219269101
2.175819794677564,49.11734219269101
2.176816505531745,54.11734219269101
2.177813216385926,54.11734219269101
2.1788099272401076,44.11734219269101
2.1798066380942887,53.11734219269101
2.1808033489484697,43.11734219269101
2.1818000598026512,10.117342192691012
2.1827967706568323,-18.882657807308988
2.1837934815110134,-33.88265780730899
2.1847901923651945,-45.88265780730899
2.185786903219376,-59.88265780730899
2.186783614073557,-75.88265780730899
2.187780324927738,-70.88265780730899
2.1887770357819196,-59.88265780730899
2.1897737466361007,-54.88265780730899
2.1907704574902818,-15.882657807308988
2.1917671683444633,9.117342192691012
2.1927638791986444,21.117342192691012
2.1937605900528254,35.11734219269101
2.1947573009070065,42.11734219269101
2.195754011761188,50.11734219269101
2.196750722615369,46.11734219269101
2.19774743346955,57.11734219269101
2.1987441443237317,76.11734219269101
2.1997408551779127,63.11734219269101
2.200737566032094,43.11734219269101
2.201734276886275,9.117342192691012
2.2027309877404564,-18.882657807308988
2.2037276985946375,-43.88265780730899
2.2047244094488185,-61.88265780730899
2.205721120303,-63.88265780730899
2.206717831157181,-64.88265780730899
2.207714542011362,-56.88265780730899
2.2087112528655437,-49.88265780730899
2.2097079637197248,-46.88265780730899
2.210704674573906,-31.882657807308988
2.211701385428087,-9.882657807308988
2.2126980962822684,15.117342192691012
2.2136948071364495,36.11734219269101
2.2146915179906306,56.11734219269101
2.215688228844812,61.11734219269101
2.216684939698993,62.11734219269101
2.2176816505531742,60.11734219269101
2.2186783614073553,49.11734219269101
2.219675072261537,42.11734219269101
2.220671783115718,32.11734219269101
2.221668493969899,1.1173421926910123
2.2226652048240805,-18.882657807308988
2.2236619156782615,-26.882657807308988
2.2246586265324426,-46.88265780730899
2.225655337386624,-61.88265780730899
2.226652048240805,-60.88265780730899
2.2276487590949863,-59.88265780730899
2.2286454699491673,-59.88265780730899
2.229642180803349,-49.88265780730899
2.23063889165753,-33.88265780730899
2.231635602511711,-2.8826578073089877
2.2326323133658925,21.117342192691012
2.2336290242200736,32.11734219269101
2.2346257350742547,48.11734219269101
2.235622445928436,52.11734219269101
2.2366191567826172,56.11734219269101
2.2376158676367983,55.11734219269101
2.2386125784909794,52.11734219269101
2.239609289345161,51.11734219269101
2.240606000199342,37.11734219269101
2.241602711053523,6.117342192691012
2.2425994219077046,-15.882657807308988
2.2435961327618856,-45.88265780730899
2.2445928436160667,-71.88265780730899
2.2455895544702478,-67.88265780730899
2.2465862653244293,-63.88265780730899
2.2475829761786104,-46.88265780730899
2.2485796870327914,-36.88265780730899
2.249576397886973,-32.88265780730899
2.250573108741154,-18.882657807308988
2.251569819595335,25.117342192691012
2.2525665304495166,38.11734219269101
2.2535632413036977,29.117342192691012
2.2545599521578787,43.11734219269101
2.25555666301206,59.11734219269101
2.2565533738662413,58.11734219269101
2.2575500847204224,53.11734219269101
2.2585467955746035,40.11734219269101
2.259543506428785,29.117342192691012
2.260540217282966,16.117342192691012
2.261536928137147,-14.882657807308988
2.262533638991328,-26.882657807308988
2.2635303498455097,-20.882657807308988
2.264527060699691,-41.88265780730899
2.265523771553872,-46.88265780730899
2.2665204824080534,-51.88265780730899
2.2675171932622344,-53.88265780730899
2.2685139041164155,-57.88265780730899
2.269510614970597,-42.88265780730899
2.270507325824778,-27.882657807308988
2.271504036678959,-10.882657807308988
2.2725007475331402,16.117342192691012
2.2734974583873218,37.11734219269101
2.274494169241503,50.11734219269101
2.275490880095684,64.11734219269101
2.2764875909498654,62.11734219269101
2.2774843018040465,59.11734219269101
2.2784810126582276,52.11734219269101
2.2794777235124086,39.11734219269101
2.28047443436659,22.117342192691012
2.281471145220771,-5.882657807308988
2.2824678560749523,-22.882657807308988
2.283464566929134,-37.88265780730899
2.284461277783315,-54.88265780730899
2.285457988637496,-57.88265780730899
2.2864546994916775,-56.88265780730899
2.2874514103458585,-55.88265780730899
2.2884481212000396,-34.88265780730899
2.2894448320542207,-19.882657807308988
2.290441542908402,-10.882657807308988
2.2914382537625833,0.11734219269101231
2.2924349646167643,18.117342192691012
2.293431675470946,18.117342192691012
2.294428386325127,35.11734219269101
2.295425097179308,54.11734219269101
2.2964218080334895,48.11734219269101
2.2974185188876706,53.11734219269101
2.2984152297418516,59.11734219269101
2.2994119405960327,32.11734219269101
2.3004086514502142,9.117342192691012
2.3014053623043953,-2.8826578073089877
2.3024020731585764,-6.882657807308988
2.303398784012758,-24.882657807308988
2.304395494866939,-51.88265780730899
2.30539220572112,-36.88265780730899
2.306388916575301,-39.88265780730899
2.3073856274294826,-46.88265780730899
2.3083823382836637,-57.88265780730899
2.3093790491378448,-47.88265780730899
2.3103757599920263,-36.88265780730899
2.3113724708462073,-11.882657807308988
2.3123691817003884,11.117342192691012
2.31336589255457,32.11734219269101
2.314362603408751,56.11734219269101
2.315359314262932,68.11734219269101
2.316356025117113,68.11734219269101
2.3173527359712947,54.11734219269101
2.3183494468254757,39.11734219269101
2.319346157679657,22.117342192691012
2.3203428685338383,9.117342192691012
2.3213395793880194,6.117342192691012
2.3223362902422005,0.11734219269101231
2.3233330010963815,-29.882657807308988
2.324329711950563,-61.88265780730899
2.325326422804744,-65.88265780730899
2.326323133658925,-64.88265780730899
2.3273198445131067,-49.88265780730899
2.3283165553672878,-38.88265780730899
2.329313266221469,-34.88265780730899
2.3303099770756504,-26.882657807308988
2.3313066879298314,-10.882657807308988
2.3323033987840125,9.117342192691012
2.3333001096381936,32.11734219269101
2.334296820492375,62.11734219269101
2.335293531346556,69.11734219269101
2.336290242200737,71.11734219269101
2.3372869530549187,69.11734219269101
2.3382836639091,48.11734219269101
2.339280374763281,39.11734219269101
2.340277085617462,28.117342192691012
2.3412737964716435,-10.882657807308988
2.3422705073258245,-22.882657807308988
2.3432672181800056,-28.882657807308988
2.344263929034187,-52.88265780730899
2.345260639888368,-68.88265780730899
2.3462573507425493,-70.88265780730899
2.347254061596731,-60.88265780730899
2.348250772450912,-43.88265780730899
2.349247483305093,-33.88265780730899
2.350244194159274,-11.882657807308988
2.3512409050134555,6.117342192691012
2.3522376158676366,22.117342192691012
2.3532343267218176,23.117342192691012
2.354231037575999,45.11734219269101
2.3552277484301802,64.11734219269101
2.3562244592843613,69.11734219269101
2.3572211701385424,54.11734219269101
2.358217880992724,33.11734219269101
2.359214591846905,28.117342192691012
2.360211302701086,35.11734219269101
2.3612080135552675,9.117342192691012
2.3622047244094486,-10.882657807308988
2.3632014352636297,-24.882657807308988
2.364198146117811,-44.88265780730899
2.3651948569719923,-57.88265780730899
2.3661915678261733,-71.88265780730899
2.3671882786803544,-57.88265780730899
2.368184989534536,-52.88265780730899
2.369181700388717,-42.88265780730899
2.370178411242898,-20.882657807308988
2.3711751220970796,-1.8826578073089877
2.3721718329512607,5.117342192691012
2.3731685438054417,17.117342192691012
2.3741652546596232,43.11734219269101
2.3751619655138043,58.11734219269101
2.3761586763679854,62.11734219269101
2.3771553872221665,54.11734219269101
2.378152098076348,53.11734219269101
2.379148808930529,46.11734219269101
2.38014551978471,25.117342192691012
2.3811422306388916,1.1173421926910123
2.3821389414930727,-14.882657807308988
2.3831356523472538,-29.882657807308988
2.384132363201435,-50.88265780730899
2.3851290740556164,-49.88265780730899
2.3861257849097974,-47.88265780730899
2.3871224957639785,-48.88265780730899
2.38811920661816,-39.88265780730899
2.389115917472341,-38.88265780730899
2.390112628326522,-24.882657807308988
2.3911093391807037,-4.882657807308988
2.3921060500348847,9.117342192691012
2.393102760889066,18.117342192691012
2.394099471743247,42.11734219269101
2.3950961825974284,65.11734219269101
2.3960928934516095,69.11734219269101
2.3970896043057905,70.11734219269101
2.398086315159972,51.11734219269101
2.399083026014153,27.117342192691012
2.400079736868334,17.117342192691012
2.4010764477225153,-2.8826578073089877
2.402073158576697,-19.882657807308988
2.403069869430878,-35.88265780730899
2.404066580285059,-53.88265780730899
2.4050632911392404,-54.88265780730899
2.4060600019934215,-51.88265780730899
2.4070567128476026,-52.88265780730899
2.408053423701784,-44.88265780730899
2.409050134555965,-40.88265780730899
2.4100468454101462,-31.882657807308988
2.4110435562643273,-6.882657807308988
2.412040267118509,12.117342192691012
2.41303697797269,27.117342192691012
2.414033688826871,46.11734219269101
2.4150303996810525,61.11734219269101
2.4160271105352336,55.11734219269101
2.4170238213894146,51.11734219269101
2.4180205322435957,44.11734219269101
2.419017243097777,44.11734219269101
2.4200139539519583,33.11734219269101
2.4210106648061394,12.117342192691012
2.422007375660321,-10.882657807308988
2.423004086514502,-30.882657807308988
2.424000797368683,-45.88265780730899
2.4249975082228645,-44.88265780730899
2.4259942190770456,-56.88265780730899
2.4269909299312267,-56.88265780730899
2.4279876407854077,-56.88265780730899
2.4289843516395893,-43.88265780730899
2.4299810624937703,-24.882657807308988
2.4309777733479514,1.1173421926910123
2.431974484202133,27.117342192691012
2.432971195056314,31.117342192691012
2.433967905910495,49.11734219269101
2.434964616764676,72.11734219269101
2.4359613276188576,70.11734219269101
2.4369580384730387,57.11734219269101
2.43795474932722,44.11734219269101
2.4389514601814013,26.117342192691012
2.4399481710355824,12.117342192691012
2.4409448818897634,4.117342192691012
2.441941592743945,-8.882657807308988
2.442938303598126,-27.882657807308988
2.443935014452307,-47.88265780730899
2.444931725306488,-64.88265780730899
2.4459284361606697,-68.88265780730899
2.4469251470148508,-67.88265780730899
2.447921857869032,-53.88265780730899
2.4489185687232133,-32.88265780730899
2.4499152795773944,-22.882657807308988
2.4509119904315755,-12.882657807308988
2.451908701285757,12.117342192691012
2.452905412139938,35.11734219269101
2.453902122994119,53.11734219269101
2.4548988338483,69.11734219269101
2.4558955447024817,61.11734219269101
2.456892255556663,52.11734219269101
2.457888966410844,54.11734219269101
2.4588856772650254,39.11734219269101
2.4598823881192065,31.117342192691012
2.4608790989733875,2.1173421926910123
2.4618758098275686,-4.882657807308988
2.46287252068175,-22.882657807308988
2.463869231535931,-51.88265780730899
2.4648659423901123,-74.88265780730899
2.4658626532442938,-72.88265780730899
2.466859364098475,-68.88265780730899
2.467856074952656,-49.88265780730899
2.4688527858068374,-20.882657807308988
2.4698494966610185,-19.882657807308988
2.4708462075151996,-8.882657807308988
2.4718429183693806,20.117342192691012
2.472839629223562,36.11734219269101
2.4738363400777432,44.11734219269101
2.4748330509319243,51.11734219269101
2.475829761786106,50.11734219269101
2.476826472640287,42.11734219269101
2.477823183494468,35.11734219269101
2.478819894348649,49.11734219269101
2.4798166052028305,41.11734219269101
2.4808133160570116,16.117342192691012
2.4818100269111927,-4.882657807308988
2.482806737765374,-31.882657807308988
2.4838034486195553,-55.88265780730899
2.4848001594737363,-69.88265780730899
2.485796870327918,-69.88265780730899
2.486793581182099,-56.88265780730899
2.48779029203628,-43.88265780730899
2.488787002890461,-20.882657807308988
2.4897837137446426,-6.882657807308988
2.4907804245988237,9.117342192691012
2.4917771354530047,14.117342192691012
2.4927738463071862,17.117342192691012
2.4937705571613673,37.11734219269101
2.4947672680155484,55.11734219269101
2.4957639788697294,49.11734219269101
2.496760689723911,45.11734219269101
2.497757400578092,46.11734219269101
2.498754111432273,46.11734219269101
2.4997508222864546,32.11734219269101
2.5007475331406357,14.117342192691012
2.5017442439948168,-6.882657807308988
2.5027409548489983,-33.88265780730899
2.5037376657031793,-56.88265780730899
2.5047343765573604,-60.88265780730899
2.5057310874115415,-67.88265780730899
2.506727798265723,-66.88265780730899
2.507724509119904,-54.88265780730899
2.508721219974085,-44.88265780730899
2.5097179308282667,-34.88265780730899
2.5107146416824477,-0.8826578073089877
2.511711352536629,39.11734219269101
2.51270806339081,53.11734219269101
2.5137047742449914,60.11734219269101
2.5147014850991725,71.11734219269101
2.5156981959533535,57.11734219269101
2.516694906807535,48.11734219269101
2.517691617661716,50.11734219269101
2.518688328515897,40.11734219269101
2.5196850393700787,22.117342192691012
2.5206817502242598,-10.882657807308988
2.521678461078441,-29.882657807308988
2.522675171932622,-32.88265780730899
2.5236718827868034,-47.88265780730899
2.5246685936409845,-54.88265780730899
2.5256653044951656,-52.88265780730899
2.526662015349347,-47.88265780730899
2.527658726203528,-44.88265780730899
2.5286554370577092,-42.88265780730899
2.5296521479118907,-33.88265780730899
2.530648858766072,-8.882657807308988
2.531645569620253,10.117342192691012
2.532642280474434,21.117342192691012
2.5336389913286155,42.11734219269101
2.5346357021827965,61.11734219269101
2.5356324130369776,63.11734219269101
2.536629123891159,54.11734219269101
2.53762583474534,45.11734219269101
2.5386225455995213,29.117342192691012
2.5396192564537023,30.117342192691012
2.540615967307884,1.1173421926910123
2.541612678162065,-7.882657807308988
2.542609389016246,-9.882657807308988
2.5436060998704275,-31.882657807308988
2.5446028107246086,-53.88265780730899
2.5455995215787897,-59.88265780730899
2.546596232432971,-62.88265780730899
2.5475929432871522,-62.88265780730899
2.5485896541413333,-47.88265780730899
2.5495863649955144,-30.882657807308988
2.550583075849696,1.1173421926910123
2.551579786703877,24.117342192691012
2.552576497558058,33.11734219269101
2.5535732084122396,45.11734219269101
2.5545699192664206,56.11734219269101
2.5555666301206017,61.11734219269101
2.5565633409747828,56.11734219269101
2.5575600518289643,46.11734219269101
2.5585567626831454,49.11734219269101
2.5595534735373264,40.11734219269101
2.560550184391508,11.117342192691012
2.561546895245689,0.11734219269101231
2.56254360609987,-23.882657807308988
2.5635403169540516,-61.88265780730899
2.5645370278082327,-71.88265780730899
2.5655337386624137,-63.88265780730899
2.566530449516595,-47.88265780730899
2.5675271603707763,-47.88265780730899
2.5685238712249574,-47.88265780730899
2.5695205820791385,-29.882657807308988
2.57051729293332,-2.8826578073089877
2.571514003787501,14.117342192691012
2.572510714641682,29.117342192691012
2.573507425495863,48.11734219269101
2.5745041363500447,48.11734219269101
2.575500847204226,54.11734219269101
2.576497558058407,50.11734219269101
2.5774942689125884,52.11734219269101
2.5784909797667694,33.11734219269101
2.5794876906209505,32.11734219269101
2.580484401475132,18.117342192691012
2.581481112329313,-8.882657807308988
2.582477823183494,-25.882657807308988
2.5834745340376752,-53.88265780730899
2.5844712448918568,-52.88265780730899
2.585467955746038,-55.88265780730899
2.586464666600219,-61.88265780730899
2.5874613774544004,-54.88265780730899
2.5884580883085815,-26.882657807308988
2.5894547991627626,-25.882657807308988
2.590451510016944,-14.882657807308988
2.591448220871125,17.117342192691012
2.592444931725306,34.11734219269101
2.5934416425794873,43.11734219269101
2.594438353433669,50.11734219269101
2.59543506428785,52.11734219269101
2.596431775142031,68.11734219269101
2.5974284859962125,68.11734219269101
2.5984251968503935,49.11734219269101
2.5994219077045746,28.117342192691012
2.6004186185587557,-4.882657807308988
2.601415329412937,-14.882657807308988
2.6024120402671183,-14.882657807308988
2.6034087511212993,-42.88265780730899
2.604405461975481,-56.88265780730899
2.605402172829662,-63.88265780730899
2.606398883683843,-66.88265780730899
2.6073955945380245,-58.88265780730899
2.6083923053922056,-40.88265780730899
2.6093890162463866,-31.882657807308988
2.6103857271005677,-7.882657807308988
2.6113824379547492,10.117342192691012
2.6123791488089303,23.117342192691012
2.6133758596631114,49.11734219269101
2.614372570517293,58.11734219269101
2.615369281371474,56.11734219269101
2.616365992225655,41.11734219269101
2.617362703079836,33.11734219269101
2.6183594139340176,43.11734219269101
2.6193561247881987,50.11734219269101
2.6203528356423798,38.11734219269101
2.6213495464965613,-1.8826578073089877
2.6223462573507423,-34.88265780730899
2.6233429682049234,-54.88265780730899
2.624339679059105,-68.88265780730899
2.625336389913286,-62.88265780730899
2.626333100767467,-50.88265780730899
2.627329811621648,-51.88265780730899
2.6283265224758297,-57.88265780730899
2.6293232333300107,-38.88265780730899
2.630319944184192,-7.882657807308988
2.6313166550383733,17.117342192691012
2.6323133658925544,33.11734219269101
2.6333100767467355,52.11734219269101
2.6343067876009165,59.11734219269101
2.635303498455098,57.11734219269101
2.636300209309279,64.11734219269101
2.63729692016346,51.11734219269101
2.6382936310176417,41.11734219269101
2.6392903418718228,30.117342192691012
2.640287052726004,12.117342192691012
2.6412837635801854,-11.882657807308988
2.6422804744343664,-19.882657807308988
2.6432771852885475,-34.88265780730899
2.6442738961427286,-48.88265780730899
2.64527060699691,-62.88265780730899
2.646267317851091,-64.88265780730899
2.647264028705272,-59.88265780730899
2.6482607395594537,-45.88265780730899
2.649257450413635,-38.88265780730899
2.650254161267816,-20.882657807308988
2.651250872121997,5.117342192691012
2.6522475829761785,26.117342192691012
2.6532442938303595,49.11734219269101
2.6542410046845406,55.11734219269101
2.655237715538722,58.11734219269101
2.656234426392903,61.11734219269101
2.6572311372470843,65.11734219269101
2.6582278481012658,52.11734219269101
2.659224558955447,38.11734219269101
2.660221269809628,12.117342192691012
2.661217980663809,-5.882657807308988
2.6622146915179905,-26.882657807308988
2.6632114023721716,-49.88265780730899
2.6642081132263526,-50.88265780730899
2.665204824080534,-63.88265780730899
2.6662015349347152,-65.88265780730899
2.6671982457888963,-57.88265780730899
2.668194956643078,-52.88265780730899
2.669191667497259,-34.88265780730899
2.67018837835144,0.11734219269101231
2.671185089205621,18.117342192691012
2.6721818000598025,34.11734219269101
2.6731785109139836,46.11734219269101
2.6741752217681647,56.11734219269101
2.675171932622346,57.11734219269101
2.6761686434765273,46.11734219269101
2.6771653543307083,45.11734219269101
2.6781620651848894,46.11734219269101
2.679158776039071,33.11734219269101
2.680155486893252,12.117342192691012
2.681152197747433,-7.882657807308988
2.6821489086016146,-32.88265780730899
2.6831456194557957,-57.88265780730899
2.6841423303099767,-77.88265780730899
2.6851390411641582,-73.88265780730899
2.6861357520183393,-60.88265780730899
2.6871324628725204,-32.88265780730899
2.6881291737267015,-28.882657807308988
2.689125884580883,-19.882657807308988
2.690122595435064,-2.8826578073089877
2.691119306289245,12.117342192691012
2.6921160171434266,23.117342192691012
2.6931127279976077,55.11734219269101
2.6941094388517888,77.11734219269101
2.69510614970597,71.11734219269101
2.6961028605601514,44.11734219269101
2.6970995714143324,28.117342192691012
2.6980962822685135,28.117342192691012
2.699092993122695,32.11734219269101
2.700089703976876,6.117342192691012
2.701086414831057,-8.882657807308988
2.7020831256852387,-30.882657807308988
2.7030798365394197,-43.88265780730899
2.704076547393601,-38.88265780730899
2.705073258247782,-43.88265780730899
2.7060699691019634,-59.88265780730899
2.7070666799561445,-55.88265780730899
2.7080633908103255,-44.88265780730899
2.709060101664507,-33.88265780730899
2.710056812518688,-10.882657807308988
2.711053523372869,15.117342192691012
2.7120502342270503,23.117342192691012
2.713046945081232,42.11734219269101
2.714043655935413,50.11734219269101
2.715040366789594,57.11734219269101
2.7160370776437754,59.11734219269101
2.7170337884979565,57.11734219269101
2.7180304993521376,42.11734219269101
2.719027210206319,21.117342192691012
2.7200239210605,-3.8826578073089877
2.7210206319146812,-24.882657807308988
2.7220173427688623,-31.882657807308988
2.723014053623044,-26.882657807308988
2.724010764477225,-49.88265780730899
2.725007475331406,-59.88265780730899
2.7260041861855875,-66.88265780730899
2.7270008970397686,-49.88265780730899
2.7279976078939496,-41.88265780730899
2.7289943187481307,-26.882657807308988
2.729991029602312,-1.8826578073089877
2.7309877404564933,21.117342192691012
2.7319844513106744,31.117342192691012
2.732981162164856,44.11734219269101
2.733977873019037,53.11734219269101
2.734974583873218,76.11734219269101
2.7359712947273995,62.11734219269101
2.7369680055815806,38.11734219269101
2.7379647164357617,44.11734219269101
2.7389614272899427,39.11734219269101
2.7399581381441243,12.117342192691012
2.7409548489983053,-4.882657807308988
2.7419515598524864,-29.882657807308988
2.742948270706668,-53.88265780730899
2.743944981560849,-67.88265780730899
2.74494169241503,-78.88265780730899
2.7459384032692116,-67.88265780730899
2.7469351141233926,-49.88265780730899
2.7479318249775737,-47.88265780730899
2.748928535831755,-41.88265780730899
2.7499252466859363,-8.882657807308988
2.7509219575401174,19.117342192691012
2.7519186683942984,35.11734219269101
2.75291537924848,63.11734219269101
2.753912090102661,66.11734219269101
2.754908800956842,75.11734219269101
2.755905511811023,81.11734219269101
2.7569022226652047,53.11734219269101
2.7578989335193858,42.11734219269101
2.758895644373567,29.117342192691012
2.7598923552277483,5.117342192691012
2.7608890660819294,-12.882657807308988
2.7618857769361105,-36.88265780730899
2.762882487790292,-59.88265780730899
2.763879198644473,-55.88265780730899
2.764875909498654,-59.88265780730899
2.765872620352835,-61.88265780730899
2.7668693312070167,-60.88265780730899
2.767866042061198,-56.88265780730899
2.768862752915379,-39.88265780730899
2.7698594637695604,-12.882657807308988
2.7708561746237415,9.117342192691012
2.7718528854779225,28.117342192691012
2.7728495963321036,58.11734219269101
2.773846307186285,78.11734219269101
2.774843018040466,61.11734219269101
2.7758397288946473,50.11734219269101
2.7768364397488288,51.11734219269101
2.77783315060301,41.11734219269101
2.778829861457191,24.117342192691012
2.7798265723113724,11.117342192691012
2.7808232831655535,2.1173421926910123
2.7818199940197346,-17.882657807308988
2.7828167048739156,-51.88265780730899
2.783813415728097,-65.88265780730899
2.7848101265822782,-64.88265780730899
2.7858068374364593,-55.88265780730899
2.786803548290641,-52.88265780730899
2.787800259144822,-39.88265780730899
2.788796969999003,-19.882657807308988
2.789793680853184,5.117342192691012
2.7907903917073655,21.117342192691012
2.7917871025615466,28.117342192691012
2.7927838134157277,41.11734219269101
2.793780524269909,44.11734219269101
2.7947772351240903,54.11734219269101
2.7957739459782713,61.11734219269101
2.796770656832453,61.11734219269101
2.797767367686634,40.11734219269101
2.798764078540815,21.117342192691012
2.799760789394996,-0.8826578073089877
2.8007575002491776,-18.882657807308988
2.8017542111033586,-33.88265780730899
2.8027509219575397,-47.88265780730899
2.8037476328117212,-53.88265780730899
2.8047443436659023,-64.88265780730899
2.8057410545200834,-60.88265780730899
2.8067377653742644,-55.88265780730899
2.807734476228446,-46.88265780730899
2.808731187082627,-34.88265780730899
2.809727897936808,-8.882657807308988
2.8107246087909896,22.117342192691012
2.8117213196451707,33.11734219269101
2.8127180304993518,36.11734219269101
2.8137147413535333,52.11734219269101
2.8147114522077143,75.11734219269101
2.8157081630618954,85.11734219269101
2.8167048739160765,70.11734219269101
2.817701584770258,49.11734219269101
2.818698295624439,23.117342192691012
2.81969500647862,-4.882657807308988
2.8206917173328017,-24.882657807308988
2.8216884281869827,-41.88265780730899
2.822685139041164,-60.88265780730899
2.8236818498953453,-55.88265780730899
2.8246785607495264,-61.88265780730899
2.8256752716037075,-54.88265780730899
2.8266719824578885,-28.882657807308988
2.82766869331207,-17.882657807308988
2.828665404166251,-23.882657807308988
2.829662115020432,-16.882657807308988
2.8306588258746137,11.117342192691012
2.8316555367287948,40.11734219269101
2.832652247582976,40.11734219269101
2.833648958437157,46.11734219269101
2.8346456692913384,49.11734219269101
2.8356423801455195,59.11734219269101
2.8366390909997006,68.11734219269101
2.837635801853882,60.11734219269101
2.838632512708063,35.11734219269101
2.8396292235622442,10.117342192691012
2.8406259344164257,-19.882657807308988
2.841622645270607,-36.88265780730899
2.842619356124788,-51.88265780730899
2.843616066978969,-59.88265780730899
2.8446127778331505,-61.88265780730899
2.8456094886873315,-61.88265780730899
2.8466061995415126,-53.88265780730899
2.847602910395694,-43.88265780730899
2.848599621249875,-28.882657807308988
2.8495963321040563,-14.882657807308988
2.8505930429582373,11.117342192691012
2.851589753812419,33.11734219269101
2.8525864646666,62.11734219269101
2.853583175520781,70.11734219269101
2.8545798863749625,61.11734219269101
2.8555765972291436,49.11734219269101
2.8565733080833247,47.11734219269101
2.857570018937506,37.11734219269101
2.8585667297916872,27.117342192691012
2.8595634406458683,3.1173421926910123
2.8605601515000494,-11.882657807308988
2.861556862354231,-24.882657807308988
2.862553573208412,-51.88265780730899
2.863550284062593,-58.88265780730899
2.8645469949167746,-63.88265780730899
2.8655437057709556,-59.88265780730899
2.8665404166251367,-57.88265780730899
2.8675371274793178,-47.88265780730899
2.8685338383334993,-28.882657807308988
2.8695305491876804,-10.882657807308988
2.8705272600418614,16.117342192691012
2.871523970896043,29.117342192691012
2.872520681750224,50.11734219269101
2.873517392604405,58.11734219269101
2.8745141034585866,51.11734219269101
2.8755108143127677,49.11734219269101
2.8765075251669487,37.11734219269101
2.87750423602113,37.11734219269101
2.8785009468753113,38.11734219269101
2.8794976577294924,32.11734219269101
2.8804943685836735,9.117342192691012
2.881491079437855,-19.882657807308988
2.882487790292036,-44.88265780730899
2.883484501146217,-58.88265780730899
2.8844812120003986,-61.88265780730899
2.8854779228545797,-55.88265780730899
2.886474633708761,-64.88265780730899
2.887471344562942,-47.88265780730899
2.8884680554171234,-10.882657807308988
2.8894647662713044,-8.882657807308988
2.8904614771254855,2.1173421926910123
2.891458187979667,20.117342192691012
2.892454898833848,49.11734219269101
2.893451609688029,68.11734219269101
2.8944483205422102,69.11734219269101
2.8954450313963918,58.11734219269101
2.896441742250573,43.11734219269101
2.897438453104754,39.11734219269101
2.8984351639589354,24.117342192691012
2.8994318748131165,-5.882657807308988
2.9004285856672976,-26.882657807308988
2.901425296521479,-29.882657807308988
2.90242200737566,-35.88265780730899
2.903418718229841,-39.88265780730899
2.9044154290840223,-58.88265780730899
2.905412139938204,-59.88265780730899
2.906408850792385,-47.88265780730899
2.907405561646566,-36.88265780730899
2.9084022725007475,-33.88265780730899
2.9093989833549285,-15.882657807308988
2.9103956942091096,7.117342192691012
2.9113924050632907,17.117342192691012
2.912389115917472,45.11734219269101
2.9133858267716533,74.11734219269101
2.9143825376258343,75.11734219269101
2.915379248480016,63.11734219269101
2.916375959334197,45.11734219269101
2.917372670188378,45.11734219269101
2.9183693810425595,34.11734219269101
2.9193660918967406,5.117342192691012
2.9203628027509216,-19.882657807308988
2.9213595136051027,-29.882657807308988
2.9223562244592842,-47.88265780730899
2.9233529353134653,-63.88265780730899
2.9243496461676464,-63.88265780730899
2.925346357021828,-55.88265780730899
2.926343067876009,-47.88265780730899
2.92733977873019,-42.88265780730899
2.928336489584371,-18.882657807308988
2.9293332004385526,4.117342192691012
2.9303299112927337,9.117342192691012
2.9313266221469148,16.117342192691012
2.9323233330010963,44.11734219269101
2.9333200438552773,57.11734219269101
2.9343167547094584,66.11734219269101
2.93531346556364,57.11734219269101
2.936310176417821,34.11734219269101
2.937306887272002,30.117342192691012
2.938303598126183,26.117342192691012
2.9393003089803647,20.117342192691012
2.9402970198345457,1.1173421926910123
2.941293730688727,-19.882657807308988
2.9422904415429083,-39.88265780730899
2.9432871523970894,-59.88265780730899
2.9442838632512704,-70.88265780730899
2.9452805741054515,-68.88265780730899
2.946277284959633,-69.88265780730899
2.947273995813814,-46.88265780730899
2.948270706667995,-1.8826578073089877
2.9492674175221767,11.117342192691012
2.9502641283763578,19.117342192691012
2.951260839230539,30.117342192691012
2.9522575500847204,37.11734219269101
2.9532542609389014,51.11734219269101
2.9542509717930825,63.11734219269101
2.9552476826472636,59.11734219269101
2.956244393501445,51.11734219269101
2.957241104355626,36.11734219269101
2.958237815209807,26.117342192691012
2.9592345260639887,0.11734219269101231
2.96023123691817,-19.882657807308988
2.961227947772351,-33.88265780730899
2.9622246586265324,-51.88265780730899
2.9632213694807135,-48.88265780730899
2.9642180803348945,-52.88265780730899
2.9652147911890756,-48.88265780730899
2.966211502043257,-33.88265780730899
2.967208212897438,-33.88265780730899
2.9682049237516193,-30.882657807308988
2.9692016346058008,-15.882657807308988
2.970198345459982,11.117342192691012
2.971195056314163,24.117342192691012
2.972191767168344,36.11734219269101
2.9731884780225255,57.11734219269101
2.9741851888767066,63.11734219269101
2.9751818997308876,62.11734219269101
2.976178610585069,53.11734219269101
2.9771753214392502,43.11734219269101
2.9781720322934313,34.11734219269101
2.979168743147613,8.117342192691012
2.980165454001794,-23.882657807308988
2.981162164855975,-38.88265780730899
2.982158875710156,-37.88265780730899
2.9831555865643375,-41.88265780730899
2.9841522974185186,-55.88265780730899
2.9851490082726997,-61.88265780730899
2.986145719126881,-56.88265780730899
2.9871424299810623,-52.88265780730899
2.9881391408352433,-27.882657807308988
2.9891358516894244,1.1173421926910123
2.990132562543606,13.117342192691012
2.991129273397787,26.117342192691012
2.992125984251968,41.11734219269101
2.9931226951061496,57.11734219269101
2.9941194059603307,57.11734219269101
2.9951161168145117,50.11734219269101
2.9961128276686932,45.11734219269101
2.9971095385228743,38.11734219269101
2.9981062493770554,27.117342192691012
2.9991029602312365,9.117342192691012
3.000099671085418,-7.882657807308988
3.001096381939599,-19.882657807308988
3.00209309279378,-34.88265780730899
3.0030898036479616,-57.88265780730899
3.0040865145021427,-51.88265780730899
3.0050832253563238,-43.88265780730899
3.006079936210505,-40.88265780730899
3.0070766470646864,-49.88265780730899
3.0080733579188674,-28.882657807308988
3.0090700687730485,-2.8826578073089877
3.01006677962723,10.117342192691012
3.011063490481411,24.117342192691012
3.012060201335592,40.11734219269101
3.0130569121897737,58.11734219269101
3.0140536230439547,66.11734219269101
3.015050333898136,54.11734219269101
3.016047044752317,39.11734219269101
3.0170437556064984,33.11734219269101
3.0180404664606795,21.117342192691012
3.0190371773148605,-2.8826578073089877
3.020033888169042,-16.882657807308988
3.021030599023223,-26.882657807308988
3.022027309877404,-43.88265780730899
3.0230240207315853,-62.88265780730899
3.024020731585767,-40.88265780730899
3.025017442439948,-46.88265780730899
3.026014153294129,-55.88265780730899
3.0270108641483104,-42.88265780730899
3.0280075750024915,-18.882657807308988
3.0290042858566726,0.11734219269101231
3.030000996710854,21.117342192691012
3.030997707565035,25.117342192691012
3.0319944184192162,48.11734219269101
3.0329911292733973,51.11734219269101
3.033987840127579,47.11734219269101
3.03498455098176,52.11734219269101
3.035981261835941,53.11734219269101
3.0369779726901225,34.11734219269101
3.0379746835443036,12.117342192691012
3.0389713943984846,-1.8826578073089877
3.039968105252666,-8.882657807308988
3.040964816106847,-14.882657807308988
3.0419615269610283,-39.88265780730899
3.0429582378152094,-47.88265780730899
3.043954948669391,-60.88265780730899
3.044951659523572,-50.88265780730899
3.045948370377753,-56.88265780730899
3.0469450812319345,-44.88265780730899
3.0479417920861156,-12.882657807308988
3.0489385029402967,5.117342192691012
3.0499352137944777,17.117342192691012
3.0509319246486593,24.117342192691012
3.0519286355028403,45.11734219269101
3.0529253463570214,59.11734219269101
3.053922057211203,50.11734219269101
3.054918768065384,43.11734219269101
3.055915478919565,34.11734219269101
3.0569121897737466,19.117342192691012
3.0579089006279276,10.117342192691012
3.0589056114821087,-6.882657807308988
3.05990232233629,-23.882657807308988
3.0608990331904713,-15.882657807308988
3.0618957440446524,-18.882657807308988
3.0628924548988334,-33.88265780730899
3.063889165753015,-41.88265780730899
3.064885876607196,-34.88265780730899
3.065882587461377,-27.882657807308988
3.066879298315558,-6.882657807308988
3.0678760091697397,17.117342192691012
3.0688727200239208,12.117342192691012
3.069869430878102,9.117342192691012
3.0708661417322833,11.117342192691012
3.0718628525864644,19.117342192691012
3.0728595634406455,27.117342192691012
3.073856274294827,11.117342192691012
3.074852985149008,6.117342192691012
3.075849696003189,11.117342192691012
3.07684640685737,11.117342192691012
3.0778431177115517,-5.882657807308988
3.078839828565733,-11.882657807308988
3.079836539419914,-13.882657807308988
3.0808332502740954,-16.882657807308988
3.0818299611282765,-25.882657807308988
3.0828266719824575,-24.882657807308988
3.0838233828366386,-19.882657807308988
3.08482009369082,-6.882657807308988
3.085816804545001,0.11734219269101231
3.0868135153991823,11.117342192691012
3.0878102262533638,16.117342192691012
3.088806937107545,17.117342192691012
3.089803647961726,16.117342192691012
3.0908003588159074,15.117342192691012
3.0917970696700885,8.117342192691012
3.0927937805242696,2.1173421926910123
3.0937904913784506,-1.8826578073089877
3.094787202232632,-4.882657807308988
3.095783913086813,-10.882657807308988
3.0967806239409943,-17.882657807308988
3.097777334795176,-3.8826578073089877
3.098774045649357,3.1173421926910123
3.099770756503538,-6.882657807308988
3.1007674673577195,-7.882657807308988
3.1017641782119005,6.117342192691012
3.1027608890660816,-3.8826578073089877
3.1037575999202627,-4.882657807308988
3.104754310774444,2.1173421926910123
3.1057510216286253,1.1173421926910123
3.1067477324828063,-1.8826578073089877
3.107744443336988,8.117342192691012
3.108741154191169,7.117342192691012
3.10973786504535,12.117342192691012
3.110734575899531,12.117342192691012
3.1117312867537126,-0.8826578073089877
3.1127279976078936,2.1173421926910123
3.1137247084620747,-2.8826578073089877
3.1147214193162562,-4.882657807308988
3.1157181301704373,-12.882657807308988
3.1167148410246184,-11.882657807308988
3.1177115518788,-5.882657807308988
3.118708262732981,-3.8826578073089877
3.119704973587162,-5.882657807308988
3.120701684441343,-19.882657807308988
3.1216983952955246,-7.882657807308988
3.1226951061497057,1.1173421926910123
3.1236918170038868,2.1173421926910123
3.1246885278580683,2.1173421926910123
3.1256852387122493,0.11734219269101231
3.1266819495664304,7.117342192691012
3.1276786604206115,33.11734219269101
3.128675371274793,22.117342192691012
3.129672082128974,14.117342192691012
3.130668792983155,13.117342192691012
3.1316655038373367,10.117342192691012
3.1326622146915177,5.117342192691012
3.133658925545699,-13.882657807308988
3.1346556363998803,-11.882657807308988
3.1356523472540614,-12.882657807308988
3.1366490581082425,-7.882657807308988
3.1376457689624235,-4.882657807308988
3.138642479816605,-11.882657807308988
3.139639190670786,-4.882657807308988
3.140635901524967,-16.882657807308988
3.1416326123791487,-28.882657807308988
3.1426293232333298,-8.882657807308988
3.143626034087511,-1.8826578073089877
3.144622744941692,4.117342192691012
3.1456194557958734,5.117342192691012
3.1466161666500545,8.117342192691012
3.1476128775042356,8.117342192691012
3.148609588358417,14.117342192691012
3.149606299212598,12.117342192691012
3.1506030100667792,14.117342192691012
3.1515997209209607,20.117342192691012
3.152596431775142,17.117342192691012
3.153593142629323,6.117342192691012
3.154589853483504,-4.882657807308988
3.1555865643376855,-18.882657807308988
3.1565832751918665,-9.882657807308988
3.1575799860460476,-10.882657807308988
3.158576696900229,-18.882657807308988
3.15957340775441,-7.882657807308988
3.1605701186085913,-13.882657807308988
3.1615668294627723,-11.882657807308988
3.162563540316954,3.1173421926910123
3.163560251171135,3.1173421926910123
3.164556962025316,-18.882657807308988
3.1655536728794975,1.1173421926910123
3.1665503837336786,29.117342192691012
3.1675470945878597,23.117342192691012
3.168543805442041,14.117342192691012
3.1695405162962222,24.117342192691012
3.1705372271504033,17.117342192691012
3.1715339380045844,9.117342192691012
3.172530648858766,-6.882657807308988
3.173527359712947,-12.882657807308988
3.174524070567128,-8.882657807308988
3.1755207814213096,-7.882657807308988
