Time,EMG
0.0,7.184285714285693
0.000996710854181202,3.184285714285693
0.001993421708362404,29.184285714285693
0.002990132562543606,37.18428571428569
0.003986843416724808,20.184285714285693
0.00498355427090601,8.184285714285693
0.005980265125087212,-7.815714285714307
0.006976975979268414,-19.815714285714307
0.007973686833449616,-22.815714285714307
0.008970397687630818,-22.815714285714307
0.00996710854181202,-23.815714285714307
0.01096381939599322,-21.815714285714307
0.011960530250174423,-10.815714285714307
0.012957241104355626,-12.815714285714307
0.013953951958536827,-13.815714285714307
0.014950662812718028,-12.815714285714307
0.01594737366689923,-7.815714285714307
0.016944084521080434,3.184285714285693
0.017940795375261637,26.184285714285693
0.018937506229442836,50.18428571428569
0.01993421708362404,44.18428571428569
0.02093092793780524,30.184285714285693
0.02192763879198644,19.184285714285693
0.022924349646167644,8.184285714285693
0.023921060500348847,-10.815714285714307
0.02491777135453005,-12.815714285714307
0.025914482208711252,-15.815714285714307
0.02691119306289245,-10.815714285714307
0.027907903917073654,-9.815714285714307
0.028904614771254857,-23.815714285714307
0.029901325625436057,-26.815714285714307
0.03089803647961726,-23.815714285714307
0.03189474733379846,-11.815714285714307
0.032891458187979665,-2.815714285714307
0.03388816904216087,3.184285714285693
0.03488487989634207,6.184285714285693
0.03588159075052327,3.184285714285693
0.03687830160470447,10.184285714285693
0.03787501245888567,14.184285714285693
0.038871723313066875,11.184285714285693
0.03986843416724808,4.184285714285693
0.04086514502142928,5.184285714285693
0.04186185587561048,17.184285714285693
0.042858566729791686,21.184285714285693
0.04385527758397288,12.184285714285693
0.044851988438154085,8.184285714285693
0.04584869929233529,-14.815714285714307
0.04684541014651649,-8.815714285714307
0.04784212100069769,-6.815714285714307
0.048838831854878896,-17.815714285714307
0.0498355427090601,-27.815714285714307
0.0508322535632413,-26.815714285714307
0.051828964417422504,-2.815714285714307
0.0528256752716037,5.184285714285693
0.0538223861257849,-1.8157142857143072
0.054819096979966106,-7.815714285714307
0.05581580783414731,2.184285714285693
0.05681251868832851,11.184285714285693
0.057809229542509714,8.184285714285693
0.05880594039669092,19.184285714285693
0.05980265125087211,13.184285714285693
0.060799362105053316,20.184285714285693
0.06179607295923452,24.184285714285693
0.06279278381341573,20.184285714285693
0.06378949466759692,1.1842857142856928
0.06478620552177812,-6.815714285714307
0.06578291637595933,-17.815714285714307
0.06677962723014053,-18.815714285714307
0.06777633808432174,-11.815714285714307
0.06877304893850293,-15.815714285714307
0.06976975979268414,-7.815714285714307
0.07076647064686534,-16.815714285714307
0.07176318150104655,-20.815714285714307
0.07275989235522774,-3.815714285714307
0.07375660320940894,7.184285714285693
0.07475331406359015,-1.8157142857143072
0.07575002491777134,7.184285714285693
0.07674673577195255,16.184285714285693
0.07774344662613375,13.184285714285693
0.07874015748031496,8.184285714285693
0.07973686833449616,13.184285714285693
0.08073357918867735,12.184285714285693
0.08173029004285856,5.184285714285693
0.08272700089703976,14.184285714285693
0.08372371175122097,2.184285714285693
0.08472042260540216,9.184285714285693
0.08571713345958337,0.18428571428569285
0.08671384431376457,-14.815714285714307
0.08771055516794576,-29.815714285714307
0.08870726602212697,-26.815714285714307
0.08970397687630817,-15.815714285714307
0.09070068773048938,-8.815714285714307
0.09169739858467058,1.1842857142856928
0.09269410943885178,-1.8157142857143072
0.09369082029303298,4.184285714285693
0.09468753114721419,-1.8157142857143072
0.09568424200139539,-1.8157142857143072
0.09668095285557658,9.184285714285693
0.09767766370975779,11.184285714285693
0.09867437456393899,12.184285714285693
0.0996710854181202,11.184285714285693
0.1006677962723014,7.184285714285693
0.1016645071264826,8.184285714285693
0.1026612179806638,5.184285714285693
0.10365792883484501,-3.815714285714307
0.1046546396890262,13.184285714285693
0.1056513505432074,-5.815714285714307
0.10664806139738861,-18.815714285714307
0.1076447722515698,0.18428571428569285
0.10864148310575102,0.18428571428569285
0.10963819395993221,-13.815714285714307
0.11063490481411342,-18.815714285714307
0.11163161566829462,-11.815714285714307
0.11262832652247581,-6.815714285714307
0.11362503737665702,4.184285714285693
0.11462174823083822,-5.815714285714307
0.11561845908501943,-16.815714285714307
0.11661516993920062,2.184285714285693
0.11761188079338183,16.184285714285693
0.11860859164756303,21.184285714285693
0.11960530250174423,40.18428571428569
0.12060201335592544,17.184285714285693
0.12159872421010663,6.184285714285693
0.12259543506428784,0.18428571428569285
0.12359214591846904,3.184285714285693
0.12458885677265025,-4.815714285714307
0.12558556762683146,-8.815714285714307
0.12658227848101264,-0.8157142857143072
0.12757898933519385,-7.815714285714307
0.12857570018937506,-23.815714285714307
0.12957241104355624,-13.815714285714307
0.13056912189773745,-10.815714285714307
0.13156583275191866,-5.815714285714307
0.13256254360609987,-10.815714285714307
0.13355925446028105,-0.8157142857143072
0.13455596531446226,-3.815714285714307
0.13555267616864347,-1.8157142857143072
0.13654938702282465,8.184285714285693
0.13754609787700586,13.184285714285693
0.13854280873118707,7.184285714285693
0.13953951958536828,-3.815714285714307
0.14053623043954946,9.184285714285693
0.14153294129373067,18.184285714285693
0.14252965214791188,17.184285714285693
0.1435263630020931,9.184285714285693
0.14452307385627428,5.184285714285693
0.14551978471045549,12.184285714285693
0.1465164955646367,-3.815714285714307
0.14751320641881788,-20.815714285714307
0.1485099172729991,-25.815714285714307
0.1495066281271803,-25.815714285714307
0.1505033389813615,-19.815714285714307
0.1515000498355427,-11.815714285714307
0.1524967606897239,-2.815714285714307
0.1534934715439051,-2.815714285714307
0.1544901823980863,1.1842857142856928
0.1554868932522675,14.184285714285693
0.1564836041064487,20.184285714285693
0.15748031496062992,16.184285714285693
0.1584770258148111,8.184285714285693
0.1594737366689923,23.184285714285693
0.16047044752317352,10.184285714285693
0.1614671583773547,4.184285714285693
0.1624638692315359,29.184285714285693
0.16346058008571712,20.184285714285693
0.16445729093989833,-4.815714285714307
0.1654540017940795,-29.815714285714307
0.16645071264826072,-18.815714285714307
0.16744742350244193,-6.815714285714307
0.16844413435662312,-10.815714285714307
0.16944084521080433,-19.815714285714307
0.17043755606498553,-18.815714285714307
0.17143426691916674,-12.815714285714307
0.17243097777334793,-10.815714285714307
0.17342768862752914,-14.815714285714307
0.17442439948171035,-4.815714285714307
0.17542111033589153,6.184285714285693
0.17641782119007274,12.184285714285693
0.17741453204425395,31.184285714285693
0.17841124289843516,21.184285714285693
0.17940795375261634,16.184285714285693
0.18040466460679755,12.184285714285693
0.18140137546097876,0.18428571428569285
0.18239808631515997,3.184285714285693
0.18339479716934115,2.184285714285693
0.18439150802352236,2.184285714285693
0.18538821887770357,-5.815714285714307
0.18638492973188475,-1.8157142857143072
0.18738164058606596,-20.815714285714307
0.18837835144024717,-22.815714285714307
0.18937506229442838,-13.815714285714307
0.19037177314860956,-22.815714285714307
0.19136848400279077,-15.815714285714307
0.19236519485697198,-7.815714285714307
0.19336190571115316,-9.815714285714307
0.19435861656533437,-0.8157142857143072
0.19535532741951558,19.184285714285693
0.1963520382736968,40.18428571428569
0.19734874912787798,36.18428571428569
0.19834545998205919,12.184285714285693
0.1993421708362404,12.184285714285693
0.20033888169042158,12.184285714285693
0.2013355925446028,9.184285714285693
0.202332303398784,-1.8157142857143072
0.2033290142529652,-6.815714285714307
0.2043257251071464,8.184285714285693
0.2053224359613276,-6.815714285714307
0.2063191468155088,-24.815714285714307
0.20731585766969002,-14.815714285714307
0.2083125685238712,-6.815714285714307
0.2093092793780524,-7.815714285714307
0.21030599023223362,-33.81571428571431
0.2113027010864148,-9.815714285714307
0.212299411940596,0.18428571428569285
0.21329612279477722,-9.815714285714307
0.21429283364895843,-9.815714285714307
0.2152895445031396,2.184285714285693
0.21628625535732082,20.184285714285693
0.21728296621150203,23.184285714285693
0.21827967706568321,4.184285714285693
0.21927638791986442,-7.815714285714307
0.22027309877404563,-3.815714285714307
0.22126980962822684,7.184285714285693
0.22226652048240803,22.184285714285693
0.22326323133658924,30.184285714285693
0.22425994219077044,23.184285714285693
0.22525665304495163,13.184285714285693
0.22625336389913284,3.184285714285693
0.22725007475331405,-18.815714285714307
0.22824678560749526,-38.81571428571431
0.22924349646167644,-31.815714285714307
0.23024020731585765,-15.815714285714307
0.23123691817003886,-20.815714285714307
0.23223362902422004,-5.815714285714307
0.23323033987840125,19.184285714285693
0.23422705073258246,27.184285714285693
0.23522376158676367,-0.8157142857143072
0.23622047244094485,-3.815714285714307
0.23721718329512606,2.184285714285693
0.23821389414930727,8.184285714285693
0.23921060500348845,11.184285714285693
0.24020731585766966,12.184285714285693
0.24120402671185087,16.184285714285693
0.24220073756603208,17.184285714285693
0.24319744842021326,-4.815714285714307
0.24419415927439447,-14.815714285714307
0.24519087012857568,-26.815714285714307
0.2461875809827569,-25.815714285714307
0.24718429183693807,-28.815714285714307
0.24818100269111928,-29.815714285714307
0.2491777135453005,29.184285714285693
0.2501744243994817,21.184285714285693
0.2511711352536629,8.184285714285693
0.2521678461078441,13.184285714285693
0.2531645569620253,-2.815714285714307
0.2541612678162065,-11.815714285714307
0.2551579786703877,-6.815714285714307
0.2561546895245689,11.184285714285693
0.2571514003787501,35.18428571428569
0.2581481112329313,18.184285714285693
0.2591448220871125,7.184285714285693
0.2601415329412937,-7.815714285714307
0.2611382437954749,-4.815714285714307
0.26213495464965614,-15.815714285714307
0.2631316655038373,-3.815714285714307
0.2641283763580185,6.184285714285693
0.26512508721219974,17.184285714285693
0.2661217980663809,15.184285714285693
0.2671185089205621,-8.815714285714307
0.26811521977474334,-20.815714285714307
0.2691119306289245,-15.815714285714307
0.2701086414831057,-18.815714285714307
0.27110535233728694,-15.815714285714307
0.2721020631914681,-2.815714285714307
0.2730987740456493,-8.815714285714307
0.27409548489983054,-5.815714285714307
0.2750921957540117,8.184285714285693
0.27608890660819296,19.184285714285693
0.27708561746237415,8.184285714285693
0.2780823283165553,8.184285714285693
0.27907903917073656,21.184285714285693
0.28007575002491775,17.184285714285693
0.28107246087909893,15.184285714285693
0.28206917173328017,4.184285714285693
0.28306588258746135,1.1842857142856928
0.28406259344164253,-7.815714285714307
0.28505930429582377,-20.815714285714307
0.28605601515000495,-10.815714285714307
0.2870527260041862,-1.8157142857143072
0.28804943685836737,-4.815714285714307
0.28904614771254855,-19.815714285714307
0.2900428585667298,-19.815714285714307
0.29103956942091097,-8.815714285714307
0.29203628027509215,-15.815714285714307
0.2930329911292734,-10.815714285714307
0.29402970198345457,0.18428571428569285
0.29502641283763575,10.184285714285693
0.296023123691817,27.184285714285693
0.2970198345459982,26.184285714285693
0.29801654540017936,13.184285714285693
0.2990132562543606,8.184285714285693
0.3000099671085418,3.184285714285693
0.301006677962723,9.184285714285693
0.3020033888169042,20.184285714285693
0.3030000996710854,16.184285714285693
0.3039968105252666,12.184285714285693
0.3049935213794478,-2.815714285714307
0.305990232233629,-20.815714285714307
0.3069869430878102,-26.815714285714307
0.3079836539419914,-17.815714285714307
0.3089803647961726,-19.815714285714307
0.3099770756503538,-28.815714285714307
0.310973786504535,-14.815714285714307
0.3119704973587162,0.18428571428569285
0.3129672082128974,3.184285714285693
0.3139639190670786,-2.815714285714307
0.31496062992125984,5.184285714285693
0.315957340775441,13.184285714285693
0.3169540516296222,24.184285714285693
0.31795076248380344,10.184285714285693
0.3189474733379846,12.184285714285693
0.3199441841921658,14.184285714285693
0.32094089504634704,4.184285714285693
0.3219376059005282,-18.815714285714307
0.3229343167547094,-9.815714285714307
0.32393102760889064,13.184285714285693
0.3249277384630718,3.184285714285693
0.32592444931725306,0.18428571428569285
0.32692116017143424,20.184285714285693
0.3279178710256154,9.184285714285693
0.32891458187979666,-1.8157142857143072
0.32991129273397785,-24.815714285714307
0.330908003588159,-24.815714285714307
0.33190471444234027,-12.815714285714307
0.33290142529652145,-10.815714285714307
0.33389813615070263,-7.815714285714307
0.33489484700488387,-0.8157142857143072
0.33589155785906505,4.184285714285693
0.33688826871324623,-2.815714285714307
0.33788497956742747,1.1842857142856928
0.33888169042160865,8.184285714285693
0.3398784012757899,9.184285714285693
0.34087511212997107,1.1842857142856928
0.34187182298415225,9.184285714285693
0.3428685338383335,9.184285714285693
0.34386524469251467,0.18428571428569285
0.34486195554669585,5.184285714285693
0.3458586664008771,12.184285714285693
0.3468553772550583,-2.815714285714307
0.34785208810923945,-18.815714285714307
0.3488487989634207,-22.815714285714307
0.3498455098176019,-21.815714285714307
0.35084222067178306,-11.815714285714307
0.3518389315259643,8.184285714285693
0.3528356423801455,3.184285714285693
0.3538323532343267,-10.815714285714307
0.3548290640885079,-9.815714285714307
0.3558257749426891,8.184285714285693
0.3568224857968703,24.184285714285693
0.3578191966510515,19.184285714285693
0.3588159075052327,23.184285714285693
0.3598126183594139,4.184285714285693
0.3608093292135951,1.1842857142856928
0.3618060400677763,3.184285714285693
0.3628027509219575,3.184285714285693
0.3637994617761387,2.184285714285693
0.36479617263031994,-15.815714285714307
0.3657928834845011,-10.815714285714307
0.3667895943386823,5.184285714285693
0.36778630519286354,-15.815714285714307
0.3687830160470447,-7.815714285714307
0.3697797269012259,-1.8157142857143072
0.37077643775540714,-15.815714285714307
0.3717731486095883,-15.815714285714307
0.3727698594637695,-7.815714285714307
0.37376657031795074,8.184285714285693
0.3747632811721319,0.18428571428569285
0.3757599920263131,11.184285714285693
0.37675670288049434,12.184285714285693
0.3777534137346755,15.184285714285693
0.37875012458885676,32.18428571428569
0.37974683544303794,32.18428571428569
0.3807435462972191,17.184285714285693
0.38174025715140036,-3.815714285714307
0.38273696800558155,-17.815714285714307
0.38373367885976273,-18.815714285714307
0.38473038971394397,10.184285714285693
0.38572710056812515,18.184285714285693
0.38672381142230633,-16.815714285714307
0.38772052227648757,-17.815714285714307
0.38871723313066875,-21.815714285714307
0.38971394398485,-28.815714285714307
0.39071065483903117,-26.815714285714307
0.39170736569321235,0.18428571428569285
0.3927040765473936,6.184285714285693
0.39370078740157477,7.184285714285693
0.39469749825575595,-0.8157142857143072
0.3956942091099372,4.184285714285693
0.39669091996411837,17.184285714285693
0.39768763081829955,19.184285714285693
0.3986843416724808,16.184285714285693
0.399681052526662,6.184285714285693
0.40067776338084315,9.184285714285693
0.4016744742350244,5.184285714285693
0.4026711850892056,-3.815714285714307
0.4036678959433868,-4.815714285714307
0.404664606797568,1.1842857142856928
0.4056613176517492,1.1842857142856928
0.4066580285059304,-16.815714285714307
0.4076547393601116,-13.815714285714307
0.4086514502142928,-26.815714285714307
0.409648161068474,-20.815714285714307
0.4106448719226552,-22.815714285714307
0.4116415827768364,-9.815714285714307
0.4126382936310176,-0.8157142857143072
0.4136350044851988,16.184285714285693
0.41463171533938004,38.18428571428569
0.4156284261935612,35.18428571428569
0.4166251370477424,17.184285714285693
0.41762184790192364,2.184285714285693
0.4186185587561048,7.184285714285693
0.419615269610286,11.184285714285693
0.42061198046446724,24.184285714285693
0.4216086913186484,21.184285714285693
0.4226054021728296,-2.815714285714307
0.42360211302701084,-6.815714285714307
0.424598823881192,-10.815714285714307
0.4255955347353732,-16.815714285714307
0.42659224558955444,-20.815714285714307
0.4275889564437356,-18.815714285714307
0.42858566729791686,-10.815714285714307
0.42958237815209804,-23.815714285714307
0.4305790890062792,-23.815714285714307
0.43157579986046046,3.184285714285693
0.43257251071464164,1.1842857142856928
0.4335692215688228,9.184285714285693
0.43456593242300406,1.1842857142856928
0.43556264327718525,0.18428571428569285
0.43655935413136643,9.184285714285693
0.43755606498554767,1.1842857142856928
0.43855277583972885,9.184285714285693
0.43954948669391003,18.184285714285693
0.44054619754809127,14.184285714285693
0.44154290840227245,14.184285714285693
0.4425396192564537,0.18428571428569285
0.44353633011063487,-14.815714285714307
0.44453304096481605,-25.815714285714307
0.4455297518189973,7.184285714285693
0.44652646267317847,19.184285714285693
0.44752317352735965,9.184285714285693
0.4485198843815409,-4.815714285714307
0.44951659523572207,-21.815714285714307
0.45051330608990325,-26.815714285714307
0.4515100169440845,-10.815714285714307
0.4525067277982657,-2.815714285714307
0.4535034386524469,6.184285714285693
0.4545001495066281,13.184285714285693
0.4554968603608093,14.184285714285693
0.4564935712149905,10.184285714285693
0.4574902820691717,7.184285714285693
0.4584869929233529,8.184285714285693
0.4594837037775341,9.184285714285693
0.4604804146317153,11.184285714285693
0.4614771254858965,8.184285714285693
0.4624738363400777,-2.815714285714307
0.4634705471942589,-7.815714285714307
0.4644672580484401,-4.815714285714307
0.4654639689026213,-2.815714285714307
0.4664606797568025,-7.815714285714307
0.46745739061098374,-9.815714285714307
0.4684541014651649,-17.815714285714307
0.4694508123193461,-29.815714285714307
0.47044752317352734,-8.815714285714307
0.4714442340277085,-8.815714285714307
0.4724409448818897,-6.815714285714307
0.47343765573607094,-0.8157142857143072
0.4744343665902521,6.184285714285693
0.4754310774444333,15.184285714285693
0.47642778829861454,20.184285714285693
0.4774244991527957,18.184285714285693
0.4784212100069769,18.184285714285693
0.47941792086115814,11.184285714285693
0.4804146317153393,0.18428571428569285
0.48141134256952056,11.184285714285693
0.48240805342370174,6.184285714285693
0.4834047642778829,4.184285714285693
0.48440147513206416,-20.815714285714307
0.48539818598624535,-26.815714285714307
0.4863948968404265,-48.81571428571431
0.48739160769460776,-26.815714285714307
0.48838831854878895,3.184285714285693
0.48938502940297013,18.184285714285693
0.49038174025715137,20.184285714285693
0.49137845111133255,5.184285714285693
0.4923751619655138,9.184285714285693
0.49337187281969497,0.18428571428569285
0.49436858367387615,15.184285714285693
0.4953652945280574,27.184285714285693
0.49636200538223857,20.184285714285693
0.49735871623641975,4.184285714285693
0.498355427090601,-1.8157142857143072
0.49935213794478217,3.184285714285693
0.5003488487989634,-3.815714285714307
0.5013455596531445,-9.815714285714307
0.5023422705073258,-10.815714285714307
0.503338981361507,11.184285714285693
0.5043356922156882,13.184285714285693
0.5053324030698694,-13.815714285714307
0.5063291139240506,-13.815714285714307
0.5073258247782317,-14.815714285714307
0.508322535632413,-14.815714285714307
0.5093192464865942,-17.815714285714307
0.5103159573407754,-26.815714285714307
0.5113126681949566,-2.815714285714307
0.5123093790491378,6.184285714285693
0.513306089903319,0.18428571428569285
0.5143028007575002,-0.8157142857143072
0.5152995116116814,5.184285714285693
0.5162962224658626,2.184285714285693
0.5172929333200438,8.184285714285693
0.518289644174225,9.184285714285693
0.5192863550284063,12.184285714285693
0.5202830658825874,17.184285714285693
0.5212797767367686,15.184285714285693
0.5222764875909498,10.184285714285693
0.523273198445131,19.184285714285693
0.5242699092993123,-0.8157142857143072
0.5252666201534935,-7.815714285714307
0.5262633310076746,-14.815714285714307
0.5272600418618558,-31.815714285714307
0.528256752716037,-14.815714285714307
0.5292534635702182,-16.815714285714307
0.5302501744243995,-12.815714285714307
0.5312468852785807,7.184285714285693
0.5322435961327618,-0.8157142857143072
0.533240306986943,-18.815714285714307
0.5342370178411242,4.184285714285693
0.5352337286953054,14.184285714285693
0.5362304395494867,13.184285714285693
0.5372271504036679,20.184285714285693
0.538223861257849,20.184285714285693
0.5392205721120302,17.184285714285693
0.5402172829662114,20.184285714285693
0.5412139938203927,15.184285714285693
0.5422107046745739,-0.8157142857143072
0.5432074155287551,-7.815714285714307
0.5442041263829362,-14.815714285714307
0.5452008372371174,-16.815714285714307
0.5461975480912986,-24.815714285714307
0.5471942589454799,-27.815714285714307
0.5481909697996611,-6.815714285714307
0.5491876806538423,3.184285714285693
0.5501843915080235,-9.815714285714307
0.5511811023622046,-11.815714285714307
0.5521778132163859,-9.815714285714307
0.5531745240705671,-5.815714285714307
0.5541712349247483,-6.815714285714307
0.5551679457789295,17.184285714285693
0.5561646566331107,28.184285714285693
0.5571613674872918,25.184285714285693
0.5581580783414731,29.184285714285693
0.5591547891956543,23.184285714285693
0.5601515000498355,14.184285714285693
0.5611482109040167,-4.815714285714307
0.5621449217581979,-5.815714285714307
0.5631416326123792,0.18428571428569285
0.5641383434665603,-8.815714285714307
0.5651350543207415,-19.815714285714307
0.5661317651749227,-26.815714285714307
0.5671284760291039,-10.815714285714307
0.5681251868832851,-13.815714285714307
0.5691218977374664,4.184285714285693
0.5701186085916475,12.184285714285693
0.5711153194458287,-10.815714285714307
0.5721120303000099,-21.815714285714307
0.5731087411541911,-9.815714285714307
0.5741054520083724,-4.815714285714307
0.5751021628625536,16.184285714285693
0.5760988737167347,27.184285714285693
0.5770955845709159,18.184285714285693
0.5780922954250971,7.184285714285693
0.5790890062792783,12.184285714285693
0.5800857171334596,13.184285714285693
0.5810824279876408,11.184285714285693
0.5820791388418219,4.184285714285693
0.5830758496960031,-3.815714285714307
0.5840725605501843,-7.815714285714307
0.5850692714043655,-3.815714285714307
0.5860659822585468,-3.815714285714307
0.587062693112728,-9.815714285714307
0.5880594039669091,-23.815714285714307
0.5890561148210903,-37.81571428571431
0.5900528256752715,-22.815714285714307
0.5910495365294528,-17.815714285714307
0.592046247383634,4.184285714285693
0.5930429582378152,14.184285714285693
0.5940396690919963,11.184285714285693
0.5950363799461775,4.184285714285693
0.5960330908003587,-2.815714285714307
0.59702980165454,5.184285714285693
0.5980265125087212,22.184285714285693
0.5990232233629024,25.184285714285693
0.6000199342170836,22.184285714285693
0.6010166450712647,17.184285714285693
0.602013355925446,11.184285714285693
0.6030100667796272,1.1842857142856928
0.6040067776338084,-5.815714285714307
0.6050034884879896,-4.815714285714307
0.6060001993421708,-13.815714285714307
0.6069969101963519,-22.815714285714307
0.6079936210505332,-10.815714285714307
0.6089903319047144,-6.815714285714307
0.6099870427588956,-17.815714285714307
0.6109837536130768,-8.815714285714307
0.611980464467258,4.184285714285693
0.6129771753214392,0.18428571428569285
0.6139738861756204,4.184285714285693
0.6149705970298016,1.1842857142856928
0.6159673078839828,0.18428571428569285
0.616964018738164,13.184285714285693
0.6179607295923452,28.184285714285693
0.6189574404465265,17.184285714285693
0.6199541513007076,2.184285714285693
0.6209508621548888,-4.815714285714307
0.62194757300907,-1.8157142857143072
0.6229442838632512,-1.8157142857143072
0.6239409947174324,9.184285714285693
0.6249377055716137,-2.815714285714307
0.6259344164257948,-11.815714285714307
0.626931127279976,-23.815714285714307
0.6279278381341572,-15.815714285714307
0.6289245489883384,-13.815714285714307
0.6299212598425197,-20.815714285714307
0.6309179706967009,-2.815714285714307
0.631914681550882,5.184285714285693
0.6329113924050632,8.184285714285693
0.6339081032592444,11.184285714285693
0.6349048141134256,23.184285714285693
0.6359015249676069,20.184285714285693
0.6368982358217881,7.184285714285693
0.6378949466759692,3.184285714285693
0.6388916575301504,4.184285714285693
0.6398883683843316,19.184285714285693
0.6408850792385129,15.184285714285693
0.6418817900926941,-2.815714285714307
0.6428785009468753,-16.815714285714307
0.6438752118010564,-13.815714285714307
0.6448719226552376,-7.815714285714307
0.6458686335094188,-10.815714285714307
0.6468653443636001,-12.815714285714307
0.6478620552177813,-20.815714285714307
0.6488587660719625,-19.815714285714307
0.6498554769261436,-22.815714285714307
0.6508521877803248,-10.815714285714307
0.6518488986345061,-20.815714285714307
0.6528456094886873,-1.8157142857143072
0.6538423203428685,40.18428571428569
0.6548390311970497,17.184285714285693
0.6558357420512309,29.184285714285693
0.656832452905412,21.184285714285693
0.6578291637595933,20.184285714285693
0.6588258746137745,19.184285714285693
0.6598225854679557,6.184285714285693
0.6608192963221369,3.184285714285693
0.661816007176318,-2.815714285714307
0.6628127180304992,-0.8157142857143072
0.6638094288846805,-5.815714285714307
0.6648061397388617,-10.815714285714307
0.6658028505930429,-18.815714285714307
0.6667995614472241,-17.815714285714307
0.6677962723014053,-5.815714285714307
0.6687929831555866,-7.815714285714307
0.6697896940097677,-17.815714285714307
0.6707864048639489,-15.815714285714307
0.6717831157181301,-1.8157142857143072
0.6727798265723113,2.184285714285693
0.6737765374264925,-0.8157142857143072
0.6747732482806738,2.184285714285693
0.6757699591348549,8.184285714285693
0.6767666699890361,20.184285714285693
0.6777633808432173,16.184285714285693
0.6787600916973985,11.184285714285693
0.6797568025515798,6.184285714285693
0.680753513405761,0.18428571428569285
0.6817502242599421,-9.815714285714307
0.6827469351141233,3.184285714285693
0.6837436459683045,-1.8157142857143072
0.6847403568224857,-8.815714285714307
0.685737067676667,-0.8157142857143072
0.6867337785308482,19.184285714285693
0.6877304893850293,24.184285714285693
0.6887272002392105,1.1842857142856928
0.6897239110933917,-11.815714285714307
0.690720621947573,-28.815714285714307
0.6917173328017542,-22.815714285714307
0.6927140436559354,-10.815714285714307
0.6937107545101165,-9.815714285714307
0.6947074653642977,-11.815714285714307
0.6957041762184789,16.184285714285693
0.6967008870726602,34.18428571428569
0.6976975979268414,29.184285714285693
0.6986943087810226,18.184285714285693
0.6996910196352037,-2.815714285714307
0.7006877304893849,-3.815714285714307
0.7016844413435661,-5.815714285714307
0.7026811521977474,-3.815714285714307
0.7036778630519286,-10.815714285714307
0.7046745739061098,-9.815714285714307
0.705671284760291,-2.815714285714307
0.7066679956144721,-11.815714285714307
0.7076647064686534,-6.815714285714307
0.7086614173228346,-12.815714285714307
0.7096581281770158,-8.815714285714307
0.710654839031197,-10.815714285714307
0.7116515498853782,-5.815714285714307
0.7126482607395593,5.184285714285693
0.7136449715937406,12.184285714285693
0.7146416824479218,2.184285714285693
0.715638393302103,3.184285714285693
0.7166351041562842,6.184285714285693
0.7176318150104654,5.184285714285693
0.7186285258646467,10.184285714285693
0.7196252367188278,17.184285714285693
0.720621947573009,24.184285714285693
0.7216186584271902,18.184285714285693
0.7226153692813714,3.184285714285693
0.7236120801355526,-14.815714285714307
0.7246087909897339,-4.815714285714307
0.725605501843915,-2.815714285714307
0.7266022126980962,-5.815714285714307
0.7275989235522774,-11.815714285714307
0.7285956344064586,-26.815714285714307
0.7295923452606399,-20.815714285714307
0.7305890561148211,-7.815714285714307
0.7315857669690022,-9.815714285714307
0.7325824778231834,17.184285714285693
0.7335791886773646,7.184285714285693
0.7345758995315458,6.184285714285693
0.7355726103857271,20.184285714285693
0.7365693212399083,12.184285714285693
0.7375660320940894,19.184285714285693
0.7385627429482706,6.184285714285693
0.7395594538024518,11.184285714285693
0.7405561646566331,-8.815714285714307
0.7415528755108143,4.184285714285693
0.7425495863649955,14.184285714285693
0.7435462972191766,-9.815714285714307
0.7445430080733578,-11.815714285714307
0.745539718927539,-12.815714285714307
0.7465364297817203,-20.815714285714307
0.7475331406359015,-11.815714285714307
0.7485298514900827,-12.815714285714307
0.7495265623442638,-16.815714285714307
0.750523273198445,-10.815714285714307
0.7515199840526262,-8.815714285714307
0.7525166949068075,-10.815714285714307
0.7535134057609887,5.184285714285693
0.7545101166151699,17.184285714285693
0.755506827469351,21.184285714285693
0.7565035383235322,25.184285714285693
0.7575002491777135,37.18428571428569
0.7584969600318947,22.184285714285693
0.7594936708860759,7.184285714285693
0.7604903817402571,-0.8157142857143072
0.7614870925944383,1.1842857142856928
0.7624838034486194,-7.815714285714307
0.7634805143028007,-11.815714285714307
0.7644772251569819,-5.815714285714307
0.7654739360111631,-17.815714285714307
0.7664706468653443,-33.81571428571431
0.7674673577195255,-19.815714285714307
0.7684640685737067,-18.815714285714307
0.7694607794278879,-18.815714285714307
0.7704574902820691,2.184285714285693
0.7714542011362503,14.184285714285693
0.7724509119904315,17.184285714285693
0.7734476228446127,15.184285714285693
0.774444333698794,16.184285714285693
0.7754410445529751,5.184285714285693
0.7764377554071563,-1.8157142857143072
0.7774344662613375,5.184285714285693
0.7784311771155187,9.184285714285693
0.7794278879697,14.184285714285693
0.7804245988238812,5.184285714285693
0.7814213096780623,14.184285714285693
0.7824180205322435,13.184285714285693
0.7834147313864247,14.184285714285693
0.7844114422406059,-11.815714285714307
0.7854081530947872,-21.815714285714307
0.7864048639489684,-20.815714285714307
0.7874015748031495,-12.815714285714307
0.7883982856573307,-15.815714285714307
0.7893949965115119,-39.81571428571431
0.7903917073656931,-9.815714285714307
0.7913884182198744,5.184285714285693
0.7923851290740556,3.184285714285693
0.7933818399282367,12.184285714285693
0.7943785507824179,10.184285714285693
0.7953752616365991,10.184285714285693
0.7963719724907804,1.1842857142856928
0.7973686833449616,12.184285714285693
0.7983653941991428,24.184285714285693
0.799362105053324,-0.8157142857143072
0.8003588159075051,4.184285714285693
0.8013555267616863,2.184285714285693
0.8023522376158676,10.184285714285693
0.8033489484700488,22.184285714285693
0.80434565932423,19.184285714285693
0.8053423701784111,0.18428571428569285
0.8063390810325923,-17.815714285714307
0.8073357918867736,-23.815714285714307
0.8083325027409548,-30.815714285714307
0.809329213595136,-19.815714285714307
0.8103259244493172,-9.815714285714307
0.8113226353034984,-7.815714285714307
0.8123193461576795,-12.815714285714307
0.8133160570118608,-5.815714285714307
0.814312767866042,9.184285714285693
0.8153094787202232,1.1842857142856928
0.8163061895744044,8.184285714285693
0.8173029004285856,20.184285714285693
0.8182996112827668,40.18428571428569
0.819296322136948,29.184285714285693
0.8202930329911292,12.184285714285693
0.8212897438453104,-17.815714285714307
0.8222864546994916,-33.81571428571431
0.8232831655536728,12.184285714285693
0.824279876407854,2.184285714285693
0.8252765872620352,-37.81571428571431
0.8262732981162164,-28.815714285714307
0.8272700089703976,-1.8157142857143072
0.8282667198245788,13.184285714285693
0.8292634306787601,9.184285714285693
0.8302601415329413,-18.815714285714307
0.8312568523871224,1.1842857142856928
0.8322535632413036,4.184285714285693
0.8332502740954848,6.184285714285693
0.834246984949666,11.184285714285693
0.8352436958038473,14.184285714285693
0.8362404066580285,10.184285714285693
0.8372371175122096,25.184285714285693
0.8382338283663908,2.184285714285693
0.839230539220572,-15.815714285714307
0.8402272500747532,-13.815714285714307
0.8412239609289345,25.184285714285693
0.8422206717831157,18.184285714285693
0.8432173826372968,-9.815714285714307
0.844214093491478,-2.815714285714307
0.8452108043456592,0.18428571428569285
0.8462075151998405,-23.815714285714307
0.8472042260540217,-17.815714285714307
0.8482009369082029,-17.815714285714307
0.849197647762384,-17.815714285714307
0.8501943586165652,-5.815714285714307
0.8511910694707464,0.18428571428569285
0.8521877803249277,-2.815714285714307
0.8531844911791089,5.184285714285693
0.8541812020332901,10.184285714285693
0.8551779128874712,12.184285714285693
0.8561746237416524,9.184285714285693
0.8571713345958337,16.184285714285693
0.8581680454500149,12.184285714285693
0.8591647563041961,14.184285714285693
0.8601614671583773,3.184285714285693
0.8611581780125585,-9.815714285714307
0.8621548888667396,1.1842857142856928
0.8631515997209209,22.184285714285693
0.8641483105751021,-7.815714285714307
0.8651450214292833,-23.815714285714307
0.8661417322834645,-15.815714285714307
0.8671384431376457,-25.815714285714307
0.868135153991827,-23.815714285714307
0.8691318648460081,-7.815714285714307
0.8701285757001893,7.184285714285693
0.8711252865543705,-11.815714285714307
0.8721219974085517,6.184285714285693
0.8731187082627329,17.184285714285693
0.8741154191169141,12.184285714285693
0.8751121299710953,5.184285714285693
0.8761088408252765,6.184285714285693
0.8771055516794577,10.184285714285693
0.8781022625336389,7.184285714285693
0.8790989733878201,5.184285714285693
0.8800956842420014,3.184285714285693
0.8810923950961825,16.184285714285693
0.8820891059503637,24.184285714285693
0.8830858168045449,8.184285714285693
0.8840825276587261,-3.815714285714307
0.8850792385129074,-23.815714285714307
0.8860759493670886,-32.81571428571431
0.8870726602212697,-22.815714285714307
0.8880693710754509,-25.815714285714307
0.8890660819296321,-20.815714285714307
0.8900627927838133,-12.815714285714307
0.8910595036379946,-1.8157142857143072
0.8920562144921758,19.184285714285693
0.8930529253463569,10.184285714285693
0.8940496362005381,11.184285714285693
0.8950463470547193,4.184285714285693
0.8960430579089006,14.184285714285693
0.8970397687630818,32.18428571428569
0.898036479617263,31.184285714285693
0.8990331904714441,18.184285714285693
0.9000299013256253,12.184285714285693
0.9010266121798065,-8.815714285714307
0.9020233230339878,-16.815714285714307
0.903020033888169,-21.815714285714307
0.9040167447423502,-38.81571428571431
0.9050134555965313,-13.815714285714307
0.9060101664507125,18.184285714285693
0.9070068773048938,12.184285714285693
0.908003588159075,2.184285714285693
0.9090002990132562,-13.815714285714307
0.9099970098674374,-39.81571428571431
0.9109937207216185,-19.815714285714307
0.9119904315757997,9.184285714285693
0.912987142429981,8.184285714285693
0.9139838532841622,7.184285714285693
0.9149805641383434,10.184285714285693
0.9159772749925246,13.184285714285693
0.9169739858467058,26.184285714285693
0.9179706967008869,10.184285714285693
0.9189674075550682,6.184285714285693
0.9199641184092494,20.184285714285693
0.9209608292634306,24.184285714285693
0.9219575401176118,-10.815714285714307
0.922954250971793,-10.815714285714307
0.9239509618259742,-7.815714285714307
0.9249476726801554,-4.815714285714307
0.9259443835343366,0.18428571428569285
0.9269410943885178,0.18428571428569285
0.927937805242699,-23.815714285714307
0.9289345160968802,-35.81571428571431
0.9299312269510615,-9.815714285714307
0.9309279378052426,-1.8157142857143072
0.9319246486594238,-2.815714285714307
0.932921359513605,-1.8157142857143072
0.9339180703677862,-1.8157142857143072
0.9349147812219675,23.184285714285693
0.9359114920761487,18.184285714285693
0.9369082029303298,2.184285714285693
0.937904913784511,29.184285714285693
0.9389016246386922,43.18428571428569
0.9398983354928734,17.184285714285693
0.9408950463470547,6.184285714285693
0.9418917572012359,-4.815714285714307
0.942888468055417,-27.815714285714307
0.9438851789095982,-7.815714285714307
0.9448818897637794,-15.815714285714307
0.9458786006179607,-35.81571428571431
0.9468753114721419,-19.815714285714307
0.9478720223263231,5.184285714285693
0.9488687331805042,-19.815714285714307
0.9498654440346854,3.184285714285693
0.9508621548888666,-1.8157142857143072
0.9518588657430479,-9.815714285714307
0.9528555765972291,0.18428571428569285
0.9538522874514103,18.184285714285693
0.9548489983055914,1.1842857142856928
0.9558457091597726,9.184285714285693
0.9568424200139538,29.184285714285693
0.9578391308681351,22.184285714285693
0.9588358417223163,5.184285714285693
0.9598325525764975,1.1842857142856928
0.9608292634306786,-1.8157142857143072
0.9618259742848598,1.1842857142856928
0.9628226851390411,6.184285714285693
0.9638193959932223,-5.815714285714307
0.9648161068474035,-15.815714285714307
0.9658128177015847,-18.815714285714307
0.9668095285557659,-27.815714285714307
0.967806239409947,-20.815714285714307
0.9688029502641283,-17.815714285714307
0.9697996611183095,-11.815714285714307
0.9707963719724907,-6.815714285714307
0.9717930828266719,0.18428571428569285
0.972789793680853,10.184285714285693
0.9737865045350343,11.184285714285693
0.9747832153892155,5.184285714285693
0.9757799262433967,5.184285714285693
0.9767766370975779,24.184285714285693
0.9777733479517591,41.18428571428569
0.9787700588059403,33.18428571428569
0.9797667696601216,21.184285714285693
0.9807634805143027,-8.815714285714307
0.9817601913684839,-12.815714285714307
0.9827569022226651,-5.815714285714307
0.9837536130768463,-17.815714285714307
0.9847503239310276,-14.815714285714307
0.9857470347852088,-13.815714285714307
0.9867437456393899,-14.815714285714307
0.9877404564935711,-10.815714285714307
0.9887371673477523,-7.815714285714307
0.9897338782019335,-6.815714285714307
0.9907305890561148,-7.815714285714307
0.991727299910296,11.184285714285693
0.9927240107644771,15.184285714285693
0.9937207216186583,1.1842857142856928
0.9947174324728395,-8.815714285714307
0.9957141433270208,15.184285714285693
0.996710854181202,51.18428571428569
0.9977075650353832,17.184285714285693
0.9987042758895643,-4.815714285714307
0.9997009867437455,6.184285714285693
1.0006976975979267,5.184285714285693
1.001694408452108,-10.815714285714307
1.002691119306289,-12.815714285714307
1.0036878301604704,-8.815714285714307
1.0046845410146517,-2.815714285714307
1.0056812518688327,-16.815714285714307
1.006677962723014,-19.815714285714307
1.007674673577195,-14.815714285714307
1.0086713844313764,-10.815714285714307
1.0096680952855577,-15.815714285714307
1.0106648061397387,-11.815714285714307
1.01166151699392,5.184285714285693
1.0126582278481011,13.184285714285693
1.0136549387022824,8.184285714285693
1.0146516495564635,2.184285714285693
1.0156483604106448,4.184285714285693
1.016645071264826,12.184285714285693
1.0176417821190071,19.184285714285693
1.0186384929731884,33.18428571428569
1.0196352038273695,19.184285714285693
1.0206319146815508,14.184285714285693
1.021628625535732,-8.815714285714307
1.0226253363899132,-10.815714285714307
1.0236220472440944,-15.815714285714307
1.0246187580982755,-3.815714285714307
1.0256154689524568,5.184285714285693
1.026612179806638,-5.815714285714307
1.0276088906608192,-7.815714285714307
1.0286056015150005,-20.815714285714307
1.0296023123691815,-20.815714285714307
1.0305990232233628,-20.815714285714307
1.031595734077544,-8.815714285714307
1.0325924449317252,4.184285714285693
1.0335891557859065,7.184285714285693
1.0345858666400876,18.184285714285693
1.0355825774942689,15.184285714285693
1.03657928834845,15.184285714285693
1.0375759992026312,23.184285714285693
1.0385727100568125,21.184285714285693
1.0395694209109936,3.184285714285693
1.0405661317651749,-32.81571428571431
1.041562842619356,-0.8157142857143072
1.0425595534735372,1.1842857142856928
1.0435562643277185,1.1842857142856928
1.0445529751818996,20.184285714285693
1.045549686036081,3.184285714285693
1.046546396890262,-12.815714285714307
1.0475431077444433,-26.815714285714307
1.0485398185986246,-35.81571428571431
1.0495365294528056,-10.815714285714307
1.050533240306987,-6.815714285714307
1.051529951161168,-1.8157142857143072
1.0525266620153493,8.184285714285693
1.0535233728695304,12.184285714285693
1.0545200837237116,23.184285714285693
1.055516794577893,12.184285714285693
1.056513505432074,12.184285714285693
1.0575102162862553,24.184285714285693
1.0585069271404364,16.184285714285693
1.0595036379946177,13.184285714285693
1.060500348848799,5.184285714285693
1.06149705970298,-3.815714285714307
1.0624937705571613,-7.815714285714307
1.0634904814113424,-4.815714285714307
1.0644871922655237,-20.815714285714307
1.065483903119705,-22.815714285714307
1.066480613973886,-15.815714285714307
1.0674773248280673,-13.815714285714307
1.0684740356822484,-20.815714285714307
1.0694707465364297,-27.815714285714307
1.0704674573906108,-2.815714285714307
1.071464168244792,-3.815714285714307
1.0724608790989734,16.184285714285693
1.0734575899531544,14.184285714285693
1.0744543008073357,21.184285714285693
1.0754510116615168,24.184285714285693
1.076447722515698,12.184285714285693
1.0774444333698794,4.184285714285693
1.0784411442240605,2.184285714285693
1.0794378550782417,11.184285714285693
1.0804345659324228,6.184285714285693
1.0814312767866041,12.184285714285693
1.0824279876407854,14.184285714285693
1.0834246984949665,-3.815714285714307
1.0844214093491478,-17.815714285714307
1.0854181202033288,-19.815714285714307
1.0864148310575101,-21.815714285714307
1.0874115419116914,-25.815714285714307
1.0884082527658725,-16.815714285714307
1.0894049636200538,-8.815714285714307
1.0904016744742349,-2.815714285714307
1.0913983853284162,8.184285714285693
1.0923950961825972,7.184285714285693
1.0933918070367785,22.184285714285693
1.0943885178909598,16.184285714285693
1.0953852287451409,-1.8157142857143072
1.0963819395993222,-3.815714285714307
1.0973786504535032,3.184285714285693
1.0983753613076845,12.184285714285693
1.0993720721618658,19.184285714285693
1.100368783016047,16.184285714285693
1.1013654938702282,1.1842857142856928
1.1023622047244093,3.184285714285693
1.1033589155785906,19.184285714285693
1.1043556264327719,-8.815714285714307
1.105352337286953,-16.815714285714307
1.1063490481411342,-26.815714285714307
1.1073457589953153,-26.815714285714307
1.1083424698494966,-9.815714285714307
1.1093391807036777,-15.815714285714307
1.110335891557859,-18.815714285714307
1.1113326024120402,1.1842857142856928
1.1123293132662213,7.184285714285693
1.1133260241204026,8.184285714285693
1.1143227349745837,11.184285714285693
1.115319445828765,1.1842857142856928
1.1163161566829463,17.184285714285693
1.1173128675371273,22.184285714285693
1.1183095783913086,32.18428571428569
1.1193062892454897,19.184285714285693
1.120303000099671,8.184285714285693
1.1212997109538523,0.18428571428569285
1.1222964218080334,-19.815714285714307
1.1232931326622146,-9.815714285714307
1.1242898435163957,-25.815714285714307
1.125286554370577,-23.815714285714307
1.1262832652247583,-3.815714285714307
1.1272799760789394,-6.815714285714307
1.1282766869331207,-2.815714285714307
1.1292733977873017,-7.815714285714307
1.130270108641483,-1.8157142857143072
1.131266819495664,8.184285714285693
1.1322635303498454,9.184285714285693
1.1332602412040267,-6.815714285714307
1.1342569520582078,-2.815714285714307
1.135253662912389,11.184285714285693
1.1362503737665701,9.184285714285693
1.1372470846207514,22.184285714285693
1.1382437954749327,29.184285714285693
1.1392405063291138,20.184285714285693
1.140237217183295,7.184285714285693
1.1412339280374761,-34.81571428571431
1.1422306388916574,-29.815714285714307
1.1432273497458387,-2.815714285714307
1.1442240606000198,11.184285714285693
1.145220771454201,-4.815714285714307
1.1462174823083822,-15.815714285714307
1.1472141931625635,-12.815714285714307
1.1482109040167447,-20.815714285714307
1.1492076148709258,0.18428571428569285
1.1502043257251071,4.184285714285693
1.1512010365792882,-6.815714285714307
1.1521977474334695,3.184285714285693
1.1531944582876505,10.184285714285693
1.1541911691418318,20.184285714285693
1.1551878799960131,10.184285714285693
1.1561845908501942,-3.815714285714307
1.1571813017043755,20.184285714285693
1.1581780125585566,8.184285714285693
1.1591747234127379,14.184285714285693
1.1601714342669192,6.184285714285693
1.1611681451211002,0.18428571428569285
1.1621648559752815,-7.815714285714307
1.1631615668294626,-12.815714285714307
1.1641582776836439,-22.815714285714307
1.1651549885378252,-28.815714285714307
1.1661516993920062,-3.815714285714307
1.1671484102461875,-1.8157142857143072
1.1681451211003686,1.1842857142856928
1.16914183195455,2.184285714285693
1.170138542808731,-7.815714285714307
1.1711352536629123,-2.815714285714307
1.1721319645170936,-7.815714285714307
1.1731286753712746,-9.815714285714307
1.174125386225456,3.184285714285693
1.175122097079637,6.184285714285693
1.1761188079338183,16.184285714285693
1.1771155187879996,20.184285714285693
1.1781122296421807,31.184285714285693
1.179108940496362,21.184285714285693
1.180105651350543,17.184285714285693
1.1811023622047243,7.184285714285693
1.1820990730589056,-1.8157142857143072
1.1830957839130867,-12.815714285714307
1.184092494767268,-13.815714285714307
1.185089205621449,-19.815714285714307
1.1860859164756303,-20.815714285714307
1.1870826273298116,-2.815714285714307
1.1880793381839927,-10.815714285714307
1.189076049038174,-14.815714285714307
1.190072759892355,-10.815714285714307
1.1910694707465364,-2.815714285714307
1.1920661816007174,-1.8157142857143072
1.1930628924548987,4.184285714285693
1.19405960330908,14.184285714285693
1.195056314163261,14.184285714285693
1.1960530250174424,11.184285714285693
1.1970497358716234,8.184285714285693
1.1980464467258047,6.184285714285693
1.199043157579986,1.1842857142856928
1.200039868434167,5.184285714285693
1.2010365792883484,20.184285714285693
1.2020332901425295,9.184285714285693
1.2030300009967108,-12.815714285714307
1.204026711850892,-12.815714285714307
1.2050234227050731,-12.815714285714307
1.2060201335592544,-3.815714285714307
1.2070168444134355,-17.815714285714307
1.2080135552676168,-23.815714285714307
1.2090102661217978,-12.815714285714307
1.2100069769759791,-9.815714285714307
1.2110036878301604,-23.815714285714307
1.2120003986843415,3.184285714285693
1.2129971095385228,-2.815714285714307
1.2139938203927039,27.184285714285693
1.2149905312468852,29.184285714285693
1.2159872421010665,24.184285714285693
1.2169839529552475,4.184285714285693
1.2179806638094288,35.18428571428569
1.21897737466361,44.18428571428569
1.2199740855177912,31.184285714285693
1.2209707963719725,4.184285714285693
1.2219675072261535,-7.815714285714307
1.2229642180803348,-20.815714285714307
1.223960928934516,-25.815714285714307
1.2249576397886972,-26.815714285714307
1.2259543506428785,-26.815714285714307
1.2269510614970596,-15.815714285714307
1.2279477723512409,-19.815714285714307
1.228944483205422,-22.815714285714307
1.2299411940596032,-19.815714285714307
1.2309379049137843,-10.815714285714307
1.2319346157679656,9.184285714285693
1.2329313266221469,6.184285714285693
1.233928037476328,9.184285714285693
1.2349247483305092,16.184285714285693
1.2359214591846903,38.18428571428569
1.2369181700388716,24.184285714285693
1.237914880893053,18.184285714285693
1.238911591747234,8.184285714285693
1.2399083026014153,-2.815714285714307
1.2409050134555963,-9.815714285714307
1.2419017243097776,6.184285714285693
1.242898435163959,0.18428571428569285
1.24389514601814,-1.8157142857143072
1.2448918568723213,-10.815714285714307
1.2458885677265024,-15.815714285714307
1.2468852785806837,-14.815714285714307
1.2478819894348647,-23.815714285714307
1.248878700289046,-7.815714285714307
1.2498754111432273,-14.815714285714307
1.2508721219974084,-6.815714285714307
1.2518688328515897,-2.815714285714307
1.2528655437057707,19.184285714285693
1.253862254559952,18.184285714285693
1.2548589654141333,21.184285714285693
1.2558556762683144,27.184285714285693
1.2568523871224957,20.184285714285693
1.2578490979766768,1.1842857142856928
1.258845808830858,5.184285714285693
1.2598425196850394,3.184285714285693
1.2608392305392204,1.1842857142856928
1.2618359413934017,-22.815714285714307
1.2628326522475828,-9.815714285714307
1.263829363101764,-6.815714285714307
1.2648260739559454,-4.815714285714307
1.2658227848101264,-19.815714285714307
1.2668194956643077,-27.815714285714307
1.2678162065184888,-24.815714285714307
1.26881291737267,-0.8157142857143072
1.2698096282268512,7.184285714285693
1.2708063390810325,9.184285714285693
1.2718030499352138,3.184285714285693
1.2727997607893948,4.184285714285693
1.2737964716435761,18.184285714285693
1.2747931824977572,22.184285714285693
1.2757898933519385,14.184285714285693
1.2767866042061198,18.184285714285693
1.2777833150603009,8.184285714285693
1.2787800259144821,-11.815714285714307
1.2797767367686632,-1.8157142857143072
1.2807734476228445,-5.815714285714307
1.2817701584770258,9.184285714285693
1.2827668693312069,-11.815714285714307
1.2837635801853882,-9.815714285714307
1.2847602910395692,-4.815714285714307
1.2857570018937505,-11.815714285714307
1.2867537127479316,-14.815714285714307
1.287750423602113,-16.815714285714307
1.2887471344562942,-11.815714285714307
1.2897438453104753,0.18428571428569285
1.2907405561646565,3.184285714285693
1.2917372670188376,-3.815714285714307
1.292733977873019,5.184285714285693
1.2937306887272002,12.184285714285693
1.2947273995813813,9.184285714285693
1.2957241104355626,0.18428571428569285
1.2967208212897436,20.184285714285693
1.297717532143925,29.184285714285693
1.2987142429981062,21.184285714285693
1.2997109538522873,7.184285714285693
1.3007076647064686,-7.815714285714307
1.3017043755606497,-5.815714285714307
1.302701086414831,5.184285714285693
1.3036977972690122,1.1842857142856928
1.3046945081231933,-18.815714285714307
1.3056912189773746,-22.815714285714307
1.3066879298315557,-19.815714285714307
1.307684640685737,-27.815714285714307
1.308681351539918,-10.815714285714307
1.3096780623940993,7.184285714285693
1.3106747732482806,1.1842857142856928
1.3116714841024617,-0.8157142857143072
1.312668194956643,0.18428571428569285
1.313664905810824,18.184285714285693
1.3146616166650054,8.184285714285693
1.3156583275191867,12.184285714285693
1.3166550383733677,29.184285714285693
1.317651749227549,17.184285714285693
1.31864846008173,12.184285714285693
1.3196451709359114,4.184285714285693
1.3206418817900927,8.184285714285693
1.3216385926442737,-9.815714285714307
1.322635303498455,-28.815714285714307
1.323632014352636,-28.815714285714307
1.3246287252068174,-2.815714285714307
1.3256254360609985,5.184285714285693
1.3266221469151798,-15.815714285714307
1.327618857769361,-14.815714285714307
1.3286155686235421,-7.815714285714307
1.3296122794777234,-7.815714285714307
1.3306089903319045,-8.815714285714307
1.3316057011860858,3.184285714285693
1.332602412040267,13.184285714285693
1.3335991228944482,8.184285714285693
1.3345958337486294,10.184285714285693
1.3355925446028105,17.184285714285693
1.3365892554569918,19.184285714285693
1.337585966311173,12.184285714285693
1.3385826771653542,11.184285714285693
1.3395793880195355,-1.8157142857143072
1.3405760988737165,-7.815714285714307
1.3415728097278978,-19.815714285714307
1.3425695205820791,-12.815714285714307
1.3435662314362602,3.184285714285693
1.3445629422904415,17.184285714285693
1.3455596531446226,6.184285714285693
1.3465563639988039,-9.815714285714307
1.347553074852985,-7.815714285714307
1.3485497857071662,-19.815714285714307
1.3495464965613475,-19.815714285714307
1.3505432074155286,-5.815714285714307
1.3515399182697099,-6.815714285714307
1.352536629123891,2.184285714285693
1.3535333399780722,5.184285714285693
1.3545300508322535,13.184285714285693
1.3555267616864346,16.184285714285693
1.356523472540616,-2.815714285714307
1.357520183394797,11.184285714285693
1.3585168942489783,33.18428571428569
1.3595136051031596,20.184285714285693
1.3605103159573406,6.184285714285693
1.361507026811522,0.18428571428569285
1.362503737665703,-18.815714285714307
1.3635004485198843,-19.815714285714307
1.3644971593740653,-24.815714285714307
1.3654938702282466,-22.815714285714307
1.366490581082428,-14.815714285714307
1.367487291936609,-11.815714285714307
1.3684840027907903,-7.815714285714307
1.3694807136449714,-2.815714285714307
1.3704774244991527,3.184285714285693
1.371474135353334,-3.815714285714307
1.372470846207515,19.184285714285693
1.3734675570616963,27.184285714285693
1.3744642679158774,9.184285714285693
1.3754609787700587,17.184285714285693
1.37645768962424,2.184285714285693
1.377454400478421,14.184285714285693
1.3784511113326023,18.184285714285693
1.3794478221867834,-1.8157142857143072
1.3804445330409647,-19.815714285714307
1.381441243895146,-10.815714285714307
1.382437954749327,-9.815714285714307
1.3834346656035084,1.1842857142856928
1.3844313764576894,1.1842857142856928
1.3854280873118707,-13.815714285714307
1.3864247981660518,-12.815714285714307
1.387421509020233,-9.815714285714307
1.3884182198744144,-12.815714285714307
1.3894149307285955,-14.815714285714307
1.3904116415827767,-7.815714285714307
1.3914083524369578,-6.815714285714307
1.3924050632911391,-6.815714285714307
1.3934017741453204,9.184285714285693
1.3943984849995015,33.18428571428569
1.3953951958536828,37.18428571428569
1.3963919067078638,29.184285714285693
1.3973886175620451,12.184285714285693
1.3983853284162264,3.184285714285693
1.3993820392704075,7.184285714285693
1.4003787501245888,20.184285714285693
1.4013754609787699,4.184285714285693
1.4023721718329512,-19.815714285714307
1.4033688826871322,-34.81571428571431
1.4043655935413135,-47.81571428571431
1.4053623043954948,-30.815714285714307
1.4063590152496759,-2.815714285714307
1.4073557261038572,10.184285714285693
1.4083524369580382,5.184285714285693
1.4093491478122195,2.184285714285693
1.4103458586664008,-7.815714285714307
1.411342569520582,-9.815714285714307
1.4123392803747632,0.18428571428569285
1.4133359912289443,8.184285714285693
1.4143327020831256,28.184285714285693
1.4153294129373069,18.184285714285693
1.416326123791488,13.184285714285693
1.4173228346456692,24.184285714285693
1.4183195454998503,16.184285714285693
1.4193162563540316,10.184285714285693
1.4203129672082129,4.184285714285693
1.421309678062394,-9.815714285714307
1.4223063889165752,-1.8157142857143072
1.4233030997707563,-12.815714285714307
1.4242998106249376,-28.815714285714307
1.4252965214791187,-19.815714285714307
1.4262932323333,-9.815714285714307
1.4272899431874813,-19.815714285714307
1.4282866540416623,-17.815714285714307
1.4292833648958436,1.1842857142856928
1.4302800757500247,1.1842857142856928
1.431276786604206,-8.815714285714307
1.4322734974583873,7.184285714285693
1.4332702083125684,20.184285714285693
1.4342669191667496,21.184285714285693
1.4352636300209307,15.184285714285693
1.436260340875112,8.184285714285693
1.4372570517292933,12.184285714285693
1.4382537625834744,8.184285714285693
1.4392504734376557,3.184285714285693
1.4402471842918367,1.1842857142856928
1.441243895146018,-5.815714285714307
1.4422406060001993,-10.815714285714307
1.4432373168543804,-11.815714285714307
1.4442340277085617,-8.815714285714307
1.4452307385627428,-14.815714285714307
1.446227449416924,-12.815714285714307
1.4472241602711051,-15.815714285714307
1.4482208711252864,-17.815714285714307
1.4492175819794677,-8.815714285714307
1.4502142928336488,0.18428571428569285
1.45121100368783,13.184285714285693
1.4522077145420111,13.184285714285693
1.4532044253961924,16.184285714285693
1.4542011362503737,21.184285714285693
1.4551978471045548,16.184285714285693
1.456194557958736,13.184285714285693
1.4571912688129172,7.184285714285693
1.4581879796670985,2.184285714285693
1.4591846905212797,1.1842857142856928
1.4601814013754608,1.1842857142856928
1.4611781122296421,-2.815714285714307
1.4621748230838232,-23.815714285714307
1.4631715339380045,-19.815714285714307
1.4641682447921855,-14.815714285714307
1.4651649556463668,-12.815714285714307
1.4661616665005481,-10.815714285714307
1.4671583773547292,-4.815714285714307
1.4681550882089105,-8.815714285714307
1.4691517990630916,4.184285714285693
1.4701485099172729,-1.8157142857143072
1.4711452207714542,5.184285714285693
1.4721419316256352,10.184285714285693
1.4731386424798165,13.184285714285693
1.4741353533339976,16.184285714285693
1.4751320641881789,19.184285714285693
1.4761287750423602,11.184285714285693
1.4771254858965412,0.18428571428569285
1.4781221967507225,17.184285714285693
1.4791189076049036,0.18428571428569285
1.480115618459085,-3.815714285714307
1.4811123293132662,2.184285714285693
1.4821090401674473,5.184285714285693
1.4831057510216286,4.184285714285693
1.4841024618758096,-8.815714285714307
1.485099172729991,-7.815714285714307
1.486095883584172,-10.815714285714307
1.4870925944383533,-21.815714285714307
1.4880893052925346,-21.815714285714307
1.4890860161467157,-14.815714285714307
1.490082727000897,-7.815714285714307
1.491079437855078,-1.8157142857143072
1.4920761487092593,2.184285714285693
1.4930728595634406,7.184285714285693
1.4940695704176217,8.184285714285693
1.495066281271803,19.184285714285693
1.496062992125984,22.184285714285693
1.4970597029801653,16.184285714285693
1.4980564138343466,13.184285714285693
1.4990531246885277,3.184285714285693
1.500049835542709,5.184285714285693
1.50104654639689,6.184285714285693
1.5020432572510714,5.184285714285693
1.5030399681052524,-27.815714285714307
1.5040366789594337,-35.81571428571431
1.505033389813615,-37.81571428571431
1.506030100667796,-15.815714285714307
1.5070268115219774,-0.8157142857143072
1.5080235223761584,-4.815714285714307
1.5090202332303397,-3.815714285714307
1.510016944084521,-3.815714285714307
1.511013654938702,1.1842857142856928
1.5120103657928834,8.184285714285693
1.5130070766470645,11.184285714285693
1.5140037875012458,13.184285714285693
1.515000498355427,20.184285714285693
1.5159972092096081,24.184285714285693
1.5169939200637894,20.184285714285693
1.5179906309179705,18.184285714285693
1.5189873417721518,3.184285714285693
1.519984052626333,-4.815714285714307
1.5209807634805141,-5.815714285714307
1.5219774743346954,-13.815714285714307
1.5229741851888765,-33.81571428571431
1.5239708960430578,-32.81571428571431
1.5249676068972389,-8.815714285714307
1.5259643177514202,12.184285714285693
1.5269610286056015,14.184285714285693
1.5279577394597825,-6.815714285714307
1.5289544503139638,4.184285714285693
1.529951161168145,12.184285714285693
1.5309478720223262,-1.8157142857143072
1.5319445828765075,2.184285714285693
1.5329412937306885,14.184285714285693
1.5339380045848698,14.184285714285693
1.534934715439051,0.18428571428569285
1.5359314262932322,12.184285714285693
1.5369281371474135,20.184285714285693
1.5379248480015946,19.184285714285693
1.5389215588557759,4.184285714285693
1.539918269709957,-5.815714285714307
1.5409149805641382,-2.815714285714307
1.5419116914183193,1.1842857142856928
1.5429084022725006,-1.8157142857143072
1.5439051131266819,-39.81571428571431
1.544901823980863,-27.815714285714307
1.5458985348350442,-23.815714285714307
1.5468952456892253,-26.815714285714307
1.5478919565434066,-15.815714285714307
1.548888667397588,-8.815714285714307
1.549885378251769,-4.815714285714307
1.5508820891059503,-3.815714285714307
1.5518787999601313,7.184285714285693
1.5528755108143126,16.184285714285693
1.553872221668494,21.184285714285693
1.554868932522675,19.184285714285693
1.5558656433768563,24.184285714285693
1.5568623542310374,23.184285714285693
1.5578590650852187,21.184285714285693
1.5588557759394,4.184285714285693
1.559852486793581,-2.815714285714307
1.5608491976477623,1.1842857142856928
1.5618459085019434,1.1842857142856928
1.5628426193561247,2.184285714285693
1.5638393302103057,-11.815714285714307
1.564836041064487,-28.815714285714307
1.5658327519186683,-30.815714285714307
1.5668294627728494,-25.815714285714307
1.5678261736270307,-10.815714285714307
1.5688228844812118,3.184285714285693
1.569819595335393,1.1842857142856928
1.5708163061895744,-10.815714285714307
1.5718130170437554,5.184285714285693
1.5728097278979367,24.184285714285693
1.5738064387521178,27.184285714285693
1.574803149606299,26.184285714285693
1.5757998604604804,20.184285714285693
1.5767965713146614,12.184285714285693
1.5777932821688427,15.184285714285693
1.5787899930230238,1.1842857142856928
1.579786703877205,-6.815714285714307
1.5807834147313862,-8.815714285714307
1.5817801255855675,-17.815714285714307
1.5827768364397488,-15.815714285714307
1.5837735472939298,-18.815714285714307
1.5847702581481111,-11.815714285714307
1.5857669690022922,-9.815714285714307
1.5867636798564735,-10.815714285714307
1.5877603907106548,-5.815714285714307
1.5887571015648358,-15.815714285714307
1.5897538124190171,-9.815714285714307
1.5907505232731982,-6.815714285714307
1.5917472341273795,3.184285714285693
1.5927439449815608,3.184285714285693
1.5937406558357419,16.184285714285693
1.5947373666899232,25.184285714285693
1.5957340775441042,31.184285714285693
1.5967307883982855,35.18428571428569
1.5977274992524668,28.184285714285693
1.598724210106648,9.184285714285693
1.5997209209608292,-14.815714285714307
1.6007176318150103,-12.815714285714307
1.6017143426691915,-5.815714285714307
1.6027110535233726,-2.815714285714307
1.603707764377554,-0.8157142857143072
1.6047044752317352,-9.815714285714307
1.6057011860859163,-22.815714285714307
1.6066978969400976,-25.815714285714307
1.6076946077942786,-17.815714285714307
1.60869131864846,-18.815714285714307
1.6096880295026412,-21.815714285714307
1.6106847403568223,3.184285714285693
1.6116814512110036,25.184285714285693
1.6126781620651847,38.18428571428569
1.613674872919366,5.184285714285693
1.6146715837735472,9.184285714285693
1.6156682946277283,4.184285714285693
1.6166650054819096,6.184285714285693
1.6176617163360907,22.184285714285693
1.618658427190272,17.184285714285693
1.619655138044453,4.184285714285693
1.6206518488986343,4.184285714285693
1.6216485597528156,-3.815714285714307
1.6226452706069967,-7.815714285714307
1.623641981461178,-15.815714285714307
1.624638692315359,-14.815714285714307
1.6256354031695404,-18.815714285714307
1.6266321140237217,-19.815714285714307
1.6276288248779027,-13.815714285714307
1.628625535732084,-19.815714285714307
1.629622246586265,-0.8157142857143072
1.6306189574404464,6.184285714285693
1.6316156682946277,0.18428571428569285
1.6326123791488087,-2.815714285714307
1.63360909000299,29.184285714285693
1.634605800857171,34.18428571428569
1.6356025117113524,16.184285714285693
1.6365992225655337,4.184285714285693
1.6375959334197148,6.184285714285693
1.638592644273896,-1.8157142857143072
1.6395893551280771,-10.815714285714307
1.6405860659822584,0.18428571428569285
1.6415827768364395,15.184285714285693
1.6425794876906208,-5.815714285714307
1.643576198544802,-7.815714285714307
1.6445729093989832,-17.815714285714307
1.6455696202531644,-28.815714285714307
1.6465663311073455,-21.815714285714307
1.6475630419615268,-10.815714285714307
1.648559752815708,1.1842857142856928
1.6495564636698892,7.184285714285693
1.6505531745240705,1.1842857142856928
1.6515498853782515,-2.815714285714307
1.6525465962324328,10.184285714285693
1.6535433070866141,4.184285714285693
1.6545400179407952,10.184285714285693
1.6555367287949765,15.184285714285693
1.6565334396491576,28.184285714285693
1.6575301505033389,25.184285714285693
1.6585268613575201,13.184285714285693
1.6595235722117012,1.1842857142856928
1.6605202830658825,-5.815714285714307
1.6615169939200636,-17.815714285714307
1.6625137047742449,-21.815714285714307
1.663510415628426,-33.81571428571431
1.6645071264826072,-39.81571428571431
1.6655038373367885,1.1842857142856928
1.6665005481909696,30.184285714285693
1.667497259045151,7.184285714285693
1.668493969899332,-5.815714285714307
1.6694906807535133,5.184285714285693
1.6704873916076945,0.18428571428569285
1.6714841024618756,0.18428571428569285
1.672480813316057,-1.8157142857143072
1.673477524170238,6.184285714285693
1.6744742350244193,17.184285714285693
1.6754709458786006,10.184285714285693
1.6764676567327816,7.184285714285693
1.677464367586963,20.184285714285693
1.678461078441144,6.184285714285693
1.6794577892953253,8.184285714285693
1.6804545001495064,-7.815714285714307
1.6814512110036877,-6.815714285714307
1.682447921857869,-6.815714285714307
1.68344463271205,-5.815714285714307
1.6844413435662313,-29.815714285714307
1.6854380544204124,-3.815714285714307
1.6864347652745937,-10.815714285714307
1.687431476128775,-14.815714285714307
1.688428186982956,-2.815714285714307
1.6894248978371373,5.184285714285693
1.6904216086913184,3.184285714285693
1.6914183195454997,5.184285714285693
1.692415030399681,6.184285714285693
1.693411741253862,9.184285714285693
1.6944084521080434,5.184285714285693
1.6954051629622244,7.184285714285693
1.6964018738164057,13.184285714285693
1.697398584670587,17.184285714285693
1.698395295524768,6.184285714285693
1.6993920063789494,4.184285714285693
1.7003887172331305,-2.815714285714307
1.7013854280873117,-10.815714285714307
1.7023821389414928,-7.815714285714307
1.703378849795674,-3.815714285714307
1.7043755606498554,-23.815714285714307
1.7053722715040365,-25.815714285714307
1.7063689823582178,-7.815714285714307
1.7073656932123988,-4.815714285714307
1.7083624040665801,3.184285714285693
1.7093591149207614,1.1842857142856928
1.7103558257749425,1.1842857142856928
1.7113525366291238,-2.815714285714307
1.7123492474833049,3.184285714285693
1.7133459583374862,20.184285714285693
1.7143426691916674,10.184285714285693
1.7153393800458485,8.184285714285693
1.7163360909000298,14.184285714285693
1.7173328017542109,15.184285714285693
1.7183295126083922,9.184285714285693
1.7193262234625732,10.184285714285693
1.7203229343167545,6.184285714285693
1.7213196451709358,-10.815714285714307
1.722316356025117,-17.815714285714307
1.7233130668792982,-19.815714285714307
1.7243097777334793,-18.815714285714307
1.7253064885876606,-22.815714285714307
1.7263031994418419,-19.815714285714307
1.727299910296023,5.184285714285693
1.7282966211502042,-19.815714285714307
1.7292933320043853,-10.815714285714307
1.7302900428585666,13.184285714285693
1.7312867537127479,12.184285714285693
1.732283464566929,1.1842857142856928
1.7332801754211102,12.184285714285693
1.7342768862752913,25.184285714285693
1.7352735971294726,33.18428571428569
1.736270307983654,47.18428571428569
1.737267018837835,26.184285714285693
1.7382637296920163,11.184285714285693
1.7392604405461973,-2.815714285714307
1.7402571514003786,-20.815714285714307
1.7412538622545597,-4.815714285714307
1.742250573108741,2.184285714285693
1.7432472839629223,-11.815714285714307
1.7442439948171033,-28.815714285714307
1.7452407056712846,-50.81571428571431
1.7462374165254657,-42.81571428571431
1.747234127379647,-12.815714285714307
1.7482308382338283,-11.815714285714307
1.7492275490880094,-21.815714285714307
1.7502242599421907,0.18428571428569285
1.7512209707963717,28.184285714285693
1.752217681650553,53.18428571428569
1.7532143925047343,54.18428571428569
1.7542111033589154,26.184285714285693
1.7552078142130967,-4.815714285714307
1.7562045250672778,-3.815714285714307
1.757201235921459,19.184285714285693
1.7581979467756401,16.184285714285693
1.7591946576298214,4.184285714285693
1.7601913684840027,-15.815714285714307
1.7611880793381838,-18.815714285714307
1.762184790192365,-30.815714285714307
1.7631815010465461,-26.815714285714307
1.7641782119007274,-19.815714285714307
1.7651749227549087,-17.815714285714307
1.7661716336090898,-10.815714285714307
1.767168344463271,11.184285714285693
1.7681650553174522,14.184285714285693
1.7691617661716335,-5.815714285714307
1.7701584770258147,-12.815714285714307
1.7711551878799958,-2.815714285714307
1.7721518987341771,2.184285714285693
1.7731486095883582,14.184285714285693
1.7741453204425395,36.18428571428569
1.7751420312967208,33.18428571428569
1.7761387421509018,27.184285714285693
1.7771354530050831,25.184285714285693
1.7781321638592642,13.184285714285693
1.7791288747134455,-12.815714285714307
1.7801255855676266,-47.81571428571431
1.7811222964218079,7.184285714285693
1.7821190072759892,-7.815714285714307
1.7831157181301702,-8.815714285714307
1.7841124289843515,-13.815714285714307
1.7851091398385326,-24.815714285714307
1.7861058506927139,-18.815714285714307
1.7871025615468952,-37.81571428571431
1.7880992724010762,-9.815714285714307
1.7890959832552575,12.184285714285693
1.7900926941094386,9.184285714285693
1.79108940496362,20.184285714285693
1.7920861158178012,31.184285714285693
1.7930828266719823,8.184285714285693
1.7940795375261636,6.184285714285693
1.7950762483803446,10.184285714285693
1.796072959234526,14.184285714285693
1.797069670088707,-2.815714285714307
1.7980663809428883,5.184285714285693
1.7990630917970696,13.184285714285693
1.8000598026512507,-2.815714285714307
1.801056513505432,-15.815714285714307
1.802053224359613,-12.815714285714307
1.8030499352137943,-11.815714285714307
1.8040466460679756,2.184285714285693
1.8050433569221567,-10.815714285714307
1.806040067776338,-19.815714285714307
1.807036778630519,-7.815714285714307
1.8080334894847003,-12.815714285714307
1.8090302003388816,-6.815714285714307
1.8100269111930627,3.184285714285693
1.811023622047244,-13.815714285714307
1.812020332901425,5.184285714285693
1.8130170437556064,13.184285714285693
1.8140137546097876,12.184285714285693
1.8150104654639687,15.184285714285693
1.81600717631815,30.184285714285693
1.817003887172331,17.184285714285693
1.8180005980265124,-2.815714285714307
1.8189973088806934,-0.8157142857143072
1.8199940197348747,8.184285714285693
1.820990730589056,1.1842857142856928
1.821987441443237,-27.815714285714307
1.8229841522974184,-36.81571428571431
1.8239808631515995,-19.815714285714307
1.8249775740057808,-9.815714285714307
1.825974284859962,-8.815714285714307
1.8269709957141431,3.184285714285693
1.8279677065683244,4.184285714285693
1.8289644174225055,21.184285714285693
1.8299611282766868,-0.8157142857143072
1.830957839130868,-5.815714285714307
1.8319545499850491,-2.815714285714307
1.8329512608392304,20.184285714285693
1.8339479716934115,30.184285714285693
1.8349446825475928,-5.815714285714307
1.8359413934017739,12.184285714285693
1.8369381042559552,15.184285714285693
1.8379348151101365,-8.815714285714307
1.8389315259643175,0.18428571428569285
1.8399282368184988,0.18428571428569285
1.84092494767268,0.18428571428569285
1.8419216585268612,12.184285714285693
1.8429183693810425,-3.815714285714307
1.8439150802352235,2.184285714285693
1.8449117910894048,-0.8157142857143072
1.845908501943586,-22.815714285714307
1.8469052127977672,-34.81571428571431
1.8479019236519485,-36.81571428571431
1.8488986345061296,-13.815714285714307
1.8498953453603109,-6.815714285714307
1.850892056214492,-9.815714285714307
1.8518887670686732,3.184285714285693
1.8528854779228545,6.184285714285693
1.8538821887770356,20.184285714285693
1.8548788996312169,61.18428571428569
1.855875610485398,52.18428571428569
1.8568723213395792,49.18428571428569
1.8578690321937603,12.184285714285693
1.8588657430479416,-7.815714285714307
1.859862453902123,0.18428571428569285
1.860859164756304,-25.815714285714307
1.8618558756104853,-34.81571428571431
1.8628525864646663,-20.815714285714307
1.8638492973188476,-39.81571428571431
1.864846008173029,-30.815714285714307
1.86584271902721,-11.815714285714307
1.8668394298813913,-11.815714285714307
1.8678361407355724,-12.815714285714307
1.8688328515897537,0.18428571428569285
1.869829562443935,5.184285714285693
1.870826273298116,14.184285714285693
1.8718229841522973,20.184285714285693
1.8728196950064784,14.184285714285693
1.8738164058606597,17.184285714285693
1.8748131167148407,24.184285714285693
1.875809827569022,17.184285714285693
1.8768065384232033,-2.815714285714307
1.8778032492773844,-1.8157142857143072
1.8787999601315657,1.1842857142856928
1.8797966709857468,-0.8157142857143072
1.880793381839928,-5.815714285714307
1.8817900926941094,3.184285714285693
1.8827868035482904,8.184285714285693
1.8837835144024717,-2.815714285714307
1.8847802252566528,-18.815714285714307
1.885776936110834,-14.815714285714307
1.8867736469650154,-15.815714285714307
1.8877703578191964,-23.815714285714307
1.8887670686733777,-15.815714285714307
1.8897637795275588,-6.815714285714307
1.89076049038174,-0.8157142857143072
1.8917572012359214,5.184285714285693
1.8927539120901025,14.184285714285693
1.8937506229442838,8.184285714285693
1.8947473337984648,30.184285714285693
1.8957440446526461,31.184285714285693
1.8967407555068272,21.184285714285693
1.8977374663610085,21.184285714285693
1.8987341772151898,12.184285714285693
1.8997308880693708,0.18428571428569285
1.9007275989235521,0.18428571428569285
1.9017243097777332,-11.815714285714307
1.9027210206319145,-25.815714285714307
1.9037177314860958,-19.815714285714307
1.9047144423402769,-16.815714285714307
1.9057111531944582,-24.815714285714307
1.9067078640486392,-26.815714285714307
1.9077045749028205,3.184285714285693
1.9087012857570018,-2.815714285714307
1.909697996611183,-5.815714285714307
1.9106947074653642,4.184285714285693
1.9116914183195453,10.184285714285693
1.9126881291737265,24.184285714285693
1.9136848400279076,24.184285714285693
1.914681550882089,8.184285714285693
1.9156782617362702,5.184285714285693
1.9166749725904513,3.184285714285693
1.9176716834446326,-2.815714285714307
1.9186683942988136,-14.815714285714307
1.919665105152995,-3.815714285714307
1.9206618160071762,0.18428571428569285
1.9216585268613573,-6.815714285714307
1.9226552377155386,-7.815714285714307
1.9236519485697197,9.184285714285693
1.924648659423901,13.184285714285693
1.9256453702780822,8.184285714285693
1.9266420811322633,-7.815714285714307
1.9276387919864446,-12.815714285714307
1.9286355028406257,-19.815714285714307
1.929632213694807,-24.815714285714307
1.9306289245489883,-8.815714285714307
1.9316256354031693,2.184285714285693
1.9326223462573506,8.184285714285693
1.9336190571115317,26.184285714285693
1.934615767965713,29.184285714285693
1.935612478819894,29.184285714285693
1.9366091896740754,30.184285714285693
1.9376059005282567,13.184285714285693
1.9386026113824377,-18.815714285714307
1.939599322236619,-44.81571428571431
1.9405960330908,-16.815714285714307
1.9415927439449814,-22.815714285714307
1.9425894547991627,25.184285714285693
1.9435861656533437,24.184285714285693
1.944582876507525,9.184285714285693
1.945579587361706,-15.815714285714307
1.9465762982158874,-34.81571428571431
1.9475730090700687,-34.81571428571431
1.9485697199242498,-7.815714285714307
1.949566430778431,3.184285714285693
1.9505631416326121,13.184285714285693
1.9515598524867934,23.184285714285693
1.9525565633409747,16.184285714285693
1.9535532741951558,24.184285714285693
1.954549985049337,25.184285714285693
1.9555466959035182,18.184285714285693
1.9565434067576994,-0.8157142857143072
1.9575401176118805,-7.815714285714307
1.9585368284660618,-3.815714285714307
1.959533539320243,-5.815714285714307
1.9605302501744242,-19.815714285714307
1.9615269610286055,-12.815714285714307
1.9625236718827865,-12.815714285714307
1.9635203827369678,-9.815714285714307
1.9645170935911491,-6.815714285714307
1.9655138044453302,-9.815714285714307
1.9665105152995115,-16.815714285714307
1.9675072261536926,-17.815714285714307
1.9685039370078738,-11.815714285714307
1.9695006478620551,-9.815714285714307
1.9704973587162362,-1.8157142857143072
1.9714940695704175,34.18428571428569
1.9724907804245986,37.18428571428569
1.9734874912787799,28.184285714285693
1.974484202132961,28.184285714285693
1.9754809129871422,8.184285714285693
1.9764776238413235,8.184285714285693
1.9774743346955046,1.1842857142856928
1.978471045549686,-3.815714285714307
1.979467756403867,-3.815714285714307
1.9804644672580483,-21.815714285714307
1.9814611781122295,-20.815714285714307
1.9824578889664106,-8.815714285714307
1.983454599820592,-19.815714285714307
1.984451310674773,-18.815714285714307
1.9854480215289543,-22.815714285714307
1.9864447323831356,-6.815714285714307
1.9874414432373166,14.184285714285693
1.988438154091498,13.184285714285693
1.989434864945679,4.184285714285693
1.9904315757998603,42.18428571428569
1.9914282866540416,29.184285714285693
1.9924249975082227,-2.815714285714307
1.993421708362404,9.184285714285693
1.994418419216585,1.1842857142856928
1.9954151300707663,-2.815714285714307
1.9964118409249474,7.184285714285693
1.9974085517791287,-2.815714285714307
1.99840526263331,3.184285714285693
1.999401973487491,-10.815714285714307
2.0003986843416723,-9.815714285714307
2.0013953951958534,-34.81571428571431
2.0023921060500345,-19.815714285714307
2.003388816904216,-4.815714285714307
2.004385527758397,-9.815714285714307
2.005382238612578,0.18428571428569285
2.0063789494667597,-3.815714285714307
2.0073756603209407,-4.815714285714307
2.008372371175122,0.18428571428569285
2.0093690820293033,3.184285714285693
2.0103657928834844,9.184285714285693
2.0113625037376655,12.184285714285693
2.0123592145918465,12.184285714285693
2.013355925446028,12.184285714285693
2.014352636300209,9.184285714285693
2.01534934715439,6.184285714285693
2.0163460580085717,12.184285714285693
2.0173427688627528,11.184285714285693
2.018339479716934,7.184285714285693
2.0193361905711154,-6.815714285714307
2.0203329014252964,-11.815714285714307
2.0213296122794775,-18.815714285714307
2.0223263231336586,-19.815714285714307
2.02332303398784,-18.815714285714307
2.024319744842021,-22.815714285714307
2.0253164556962022,-12.815714285714307
2.0263131665503837,-5.815714285714307
2.027309877404565,-3.815714285714307
2.028306588258746,0.18428571428569285
2.029303299112927,12.184285714285693
2.0303000099671085,17.184285714285693
2.0312967208212895,11.184285714285693
2.0322934316754706,15.184285714285693
2.033290142529652,8.184285714285693
2.034286853383833,17.184285714285693
2.0352835642380143,29.184285714285693
2.036280275092196,31.184285714285693
2.037276985946377,12.184285714285693
2.038273696800558,-9.815714285714307
2.039270407654739,-10.815714285714307
2.0402671185089205,-7.815714285714307
2.0412638293631016,-21.815714285714307
2.0422605402172826,-25.815714285714307
2.043257251071464,-13.815714285714307
2.0442539619256452,-9.815714285714307
2.0452506727798263,-10.815714285714307
2.0462473836340074,-11.815714285714307
2.047244094488189,-15.815714285714307
2.04824080534237,-16.815714285714307
2.049237516196551,-12.815714285714307
2.0502342270507325,8.184285714285693
2.0512309379049136,22.184285714285693
2.0522276487590947,20.184285714285693
2.053224359613276,16.184285714285693
2.0542210704674573,14.184285714285693
2.0552177813216383,24.184285714285693
2.0562144921758194,20.184285714285693
2.057211203030001,11.184285714285693
2.058207913884182,9.184285714285693
2.059204624738363,-5.815714285714307
2.0602013355925446,-7.815714285714307
2.0611980464467257,-0.8157142857143072
2.0621947573009067,-7.815714285714307
2.063191468155088,-9.815714285714307
2.0641881790092693,-20.815714285714307
2.0651848898634504,-28.815714285714307
2.0661816007176315,-11.815714285714307
2.067178311571813,-3.815714285714307
2.068175022425994,8.184285714285693
2.069171733280175,5.184285714285693
2.0701684441343566,4.184285714285693
2.0711651549885377,10.184285714285693
2.0721618658427188,11.184285714285693
2.0731585766969,5.184285714285693
2.0741552875510814,-8.815714285714307
2.0751519984052624,10.184285714285693
2.0761487092594435,6.184285714285693
2.077145420113625,5.184285714285693
2.078142130967806,21.184285714285693
2.079138841821987,18.184285714285693
2.0801355526761687,13.184285714285693
2.0811322635303497,5.184285714285693
2.082128974384531,2.184285714285693
2.083125685238712,-8.815714285714307
2.0841223960928934,-30.815714285714307
2.0851191069470745,-25.815714285714307
2.0861158178012555,-14.815714285714307
2.087112528655437,-29.815714285714307
2.088109239509618,-15.815714285714307
2.089105950363799,-3.815714285714307
2.0901026612179803,7.184285714285693
2.091099372072162,14.184285714285693
2.092096082926343,14.184285714285693
2.093092793780524,12.184285714285693
2.0940895046347054,-1.8157142857143072
2.0950862154888865,10.184285714285693
2.0960829263430676,25.184285714285693
2.097079637197249,11.184285714285693
2.09807634805143,20.184285714285693
2.0990730589056112,21.184285714285693
2.1000697697597923,-1.8157142857143072
2.101066480613974,5.184285714285693
2.102063191468155,4.184285714285693
2.103059902322336,-20.815714285714307
2.1040566131765175,-31.815714285714307
2.1050533240306986,-36.81571428571431
2.1060500348848796,-26.815714285714307
2.1070467457390607,-4.815714285714307
2.108043456593242,7.184285714285693
2.1090401674474233,1.1842857142856928
2.1100368783016044,5.184285714285693
2.111033589155786,5.184285714285693
2.112030300009967,-3.815714285714307
2.113027010864148,2.184285714285693
2.1140237217183295,29.184285714285693
2.1150204325725106,31.184285714285693
2.1160171434266917,13.184285714285693
2.1170138542808727,7.184285714285693
2.1180105651350543,-4.815714285714307
2.1190072759892353,-4.815714285714307
2.1200039868434164,-11.815714285714307
2.121000697697598,4.184285714285693
2.121997408551779,-13.815714285714307
2.12299411940596,-33.81571428571431
2.123990830260141,5.184285714285693
2.1249875411143226,3.184285714285693
2.1259842519685037,-20.815714285714307
2.126980962822685,-29.815714285714307
2.1279776736768663,-6.815714285714307
2.1289743845310474,10.184285714285693
2.1299710953852284,13.184285714285693
2.13096780623941,13.184285714285693
2.131964517093591,14.184285714285693
2.132961227947772,13.184285714285693
2.133957938801953,12.184285714285693
2.1349546496561347,0.18428571428569285
2.1359513605103158,15.184285714285693
2.136948071364497,17.184285714285693
2.1379447822186783,7.184285714285693
2.1389414930728594,0.18428571428569285
2.1399382039270405,-12.815714285714307
2.1409349147812216,-10.815714285714307
2.141931625635403,-10.815714285714307
2.142928336489584,-7.815714285714307
2.143925047343765,-30.815714285714307
2.1449217581979467,-36.81571428571431
2.145918469052128,-15.815714285714307
2.146915179906309,-8.815714285714307
2.1479118907604904,-23.815714285714307
2.1489086016146715,5.184285714285693
2.1499053124688525,16.184285714285693
2.1509020233230336,27.184285714285693
2.151898734177215,30.184285714285693
2.152895445031396,21.184285714285693
2.1538921558855773,23.184285714285693
2.1548888667397588,22.184285714285693
2.15588557759394,8.184285714285693
2.156882288448121,1.1842857142856928
2.1578789993023024,6.184285714285693
2.1588757101564835,3.184285714285693
2.1598724210106646,1.1842857142856928
2.1608691318648456,-7.815714285714307
2.161865842719027,-26.815714285714307
2.1628625535732082,-33.81571428571431
2.1638592644273893,-13.815714285714307
2.164855975281571,-16.815714285714307
2.165852686135752,-20.815714285714307
2.166849396989933,-16.815714285714307
2.167846107844114,4.184285714285693
2.1688428186982955,22.184285714285693
2.1698395295524766,22.184285714285693
2.1708362404066577,28.184285714285693
2.171832951260839,11.184285714285693
2.1728296621150203,0.18428571428569285
2.1738263729692013,4.184285714285693
2.174823083823383,8.184285714285693
2.175819794677564,22.184285714285693
2.176816505531745,11.184285714285693
2.177813216385926,-5.815714285714307
2.1788099272401076,-17.815714285714307
2.1798066380942887,-0.8157142857143072
2.1808033489484697,1.1842857142856928
2.1818000598026512,-10.815714285714307
2.1827967706568323,-20.815714285714307
2.1837934815110134,-20.815714285714307
2.1847901923651945,-10.815714285714307
2.185786903219376,-9.815714285714307
2.186783614073557,-19.815714285714307
2.187780324927738,1.1842857142856928
2.1887770357819196,7.184285714285693
2.1897737466361007,6.184285714285693
2.1907704574902818,9.184285714285693
2.1917671683444633,4.184285714285693
2.1927638791986444,20.184285714285693
2.1937605900528254,22.184285714285693
2.1947573009070065,2.184285714285693
2.195754011761188,4.184285714285693
2.196750722615369,5.184285714285693
2.19774743346955,7.184285714285693
2.1987441443237317,2.184285714285693
2.1997408551779127,-10.815714285714307
2.200737566032094,4.184285714285693
2.201734276886275,-7.815714285714307
2.2027309877404564,-8.815714285714307
2.2037276985946375,-10.815714285714307
2.2047244094488185,-18.815714285714307
2.205721120303,-31.815714285714307
2.206717831157181,-3.815714285714307
2.207714542011362,17.184285714285693
2.2087112528655437,4.184285714285693
2.2097079637197248,6.184285714285693
2.210704674573906,14.184285714285693
2.211701385428087,13.184285714285693
2.2126980962822684,10.184285714285693
2.2136948071364495,5.184285714285693
2.2146915179906306,7.184285714285693
2.215688228844812,21.184285714285693
2.216684939698993,18.184285714285693
2.2176816505531742,-7.815714285714307
2.2186783614073553,-6.815714285714307
2.219675072261537,-9.815714285714307
2.220671783115718,-9.815714285714307
2.221668493969899,-25.815714285714307
2.2226652048240805,-15.815714285714307
2.2236619156782615,-17.815714285714307
2.2246586265324426,8.184285714285693
2.225655337386624,-0.8157142857143072
2.226652048240805,-17.815714285714307
2.2276487590949863,-11.815714285714307
2.2286454699491673,0.18428571428569285
2.229642180803349,20.184285714285693
2.23063889165753,14.184285714285693
2.231635602511711,2.184285714285693
2.2326323133658925,20.184285714285693
2.2336290242200736,39.18428571428569
2.2346257350742547,8.184285714285693
2.235622445928436,-5.815714285714307
2.2366191567826172,-4.815714285714307
2.2376158676367983,0.18428571428569285
2.2386125784909794,-5.815714285714307
2.239609289345161,-10.815714285714307
2.240606000199342,5.184285714285693
2.241602711053523,6.184285714285693
2.2425994219077046,-6.815714285714307
2.2435961327618856,-39.81571428571431
2.2445928436160667,-26.815714285714307
2.2455895544702478,-10.815714285714307
2.2465862653244293,-20.815714285714307
2.2475829761786104,5.184285714285693
2.2485796870327914,13.184285714285693
2.249576397886973,19.184285714285693
2.250573108741154,19.184285714285693
2.251569819595335,8.184285714285693
2.2525665304495166,21.184285714285693
2.2535632413036977,8.184285714285693
2.2545599521578787,8.184285714285693
2.25555666301206,3.184285714285693
2.2565533738662413,8.184285714285693
2.2575500847204224,14.184285714285693
2.2585467955746035,2.184285714285693
2.259543506428785,1.1842857142856928
2.260540217282966,-7.815714285714307
2.261536928137147,-17.815714285714307
2.262533638991328,-18.815714285714307
2.2635303498455097,-25.815714285714307
2.264527060699691,-30.815714285714307
2.265523771553872,-19.815714285714307
2.2665204824080534,-6.815714285714307
2.2675171932622344,-4.815714285714307
2.2685139041164155,1.1842857142856928
2.269510614970597,15.184285714285693
2.270507325824778,15.184285714285693
2.271504036678959,11.184285714285693
2.2725007475331402,14.184285714285693
2.2734974583873218,26.184285714285693
2.274494169241503,28.184285714285693
2.275490880095684,11.184285714285693
2.2764875909498654,5.184285714285693
2.2774843018040465,3.184285714285693
2.2784810126582276,-5.815714285714307
2.2794777235124086,-5.815714285714307
2.28047443436659,-16.815714285714307
2.281471145220771,-24.815714285714307
2.2824678560749523,-17.815714285714307
2.283464566929134,-17.815714285714307
2.284461277783315,-14.815714285714307
2.285457988637496,0.18428571428569285
2.2864546994916775,-16.815714285714307
2.2874514103458585,-2.815714285714307
2.2884481212000396,7.184285714285693
2.2894448320542207,10.184285714285693
2.290441542908402,21.184285714285693
2.2914382537625833,22.184285714285693
2.2924349646167643,13.184285714285693
2.293431675470946,5.184285714285693
2.294428386325127,12.184285714285693
2.295425097179308,14.184285714285693
2.2964218080334895,16.184285714285693
2.2974185188876706,6.184285714285693
2.2984152297418516,-9.815714285714307
2.2994119405960327,-19.815714285714307
2.3004086514502142,-23.815714285714307
2.3014053623043953,-29.815714285714307
2.3024020731585764,1.1842857142856928
2.303398784012758,-4.815714285714307
2.304395494866939,-14.815714285714307
2.30539220572112,-20.815714285714307
2.306388916575301,-6.815714285714307
2.3073856274294826,-6.815714285714307
2.3083823382836637,-21.815714285714307
2.3093790491378448,17.184285714285693
2.3103757599920263,45.18428571428569
2.3113724708462073,42.18428571428569
2.3123691817003884,25.184285714285693
2.31336589255457,12.184285714285693
2.314362603408751,7.184285714285693
2.315359314262932,4.184285714285693
2.316356025117113,0.18428571428569285
2.3173527359712947,1.1842857142856928
2.3183494468254757,1.1842857142856928
2.319346157679657,-9.815714285714307
2.3203428685338383,-18.815714285714307
2.3213395793880194,-24.815714285714307
2.3223362902422005,-27.815714285714307
2.3233330010963815,-16.815714285714307
2.324329711950563,-20.815714285714307
2.325326422804744,-6.815714285714307
2.326323133658925,-6.815714285714307
2.3273198445131067,-2.815714285714307
2.3283165553672878,2.184285714285693
2.329313266221469,14.184285714285693
2.3303099770756504,27.184285714285693
2.3313066879298314,17.184285714285693
2.3323033987840125,4.184285714285693
2.3333001096381936,10.184285714285693
2.334296820492375,9.184285714285693
2.335293531346556,17.184285714285693
2.336290242200737,15.184285714285693
2.3372869530549187,6.184285714285693
2.3382836639091,4.184285714285693
2.339280374763281,-2.815714285714307
2.340277085617462,-14.815714285714307
2.3412737964716435,-21.815714285714307
2.3422705073258245,-24.815714285714307
2.3432672181800056,3.184285714285693
2.344263929034187,-2.815714285714307
2.345260639888368,-19.815714285714307
2.3462573507425493,-19.815714285714307
2.347254061596731,4.184285714285693
2.348250772450912,6.184285714285693
2.349247483305093,7.184285714285693
2.350244194159274,13.184285714285693
2.3512409050134555,8.184285714285693
2.3522376158676366,18.184285714285693
2.3532343267218176,16.184285714285693
2.354231037575999,12.184285714285693
2.3552277484301802,5.184285714285693
2.3562244592843613,15.184285714285693
2.3572211701385424,-2.815714285714307
2.358217880992724,-6.815714285714307
2.359214591846905,-3.815714285714307
2.360211302701086,-6.815714285714307
2.3612080135552675,-21.815714285714307
2.3622047244094486,-21.815714285714307
2.3632014352636297,-26.815714285714307
2.364198146117811,-26.815714285714307
2.3651948569719923,-2.815714285714307
2.3661915678261733,-3.815714285714307
2.3671882786803544,8.184285714285693
2.368184989534536,-8.815714285714307
2.369181700388717,6.184285714285693
2.370178411242898,12.184285714285693
2.3711751220970796,19.184285714285693
2.3721718329512607,24.184285714285693
2.3731685438054417,17.184285714285693
2.3741652546596232,13.184285714285693
2.3751619655138043,10.184285714285693
2.3761586763679854,4.184285714285693
2.3771553872221665,-1.8157142857143072
2.378152098076348,-3.815714285714307
2.379148808930529,-10.815714285714307
2.38014551978471,-7.815714285714307
2.3811422306388916,12.184285714285693
2.3821389414930727,4.184285714285693
2.3831356523472538,-13.815714285714307
2.384132363201435,-21.815714285714307
2.3851290740556164,-14.815714285714307
2.3861257849097974,-15.815714285714307
2.3871224957639785,-36.81571428571431
2.38811920661816,7.184285714285693
2.389115917472341,13.184285714285693
2.390112628326522,13.184285714285693
2.3911093391807037,30.184285714285693
2.3921060500348847,35.18428571428569
2.393102760889066,8.184285714285693
2.394099471743247,-3.815714285714307
2.3950961825974284,16.184285714285693
2.3960928934516095,20.184285714285693
2.3970896043057905,-6.815714285714307
2.398086315159972,-12.815714285714307
2.399083026014153,-3.815714285714307
2.400079736868334,-9.815714285714307
2.4010764477225153,-20.815714285714307
2.402073158576697,-22.815714285714307
2.403069869430878,-14.815714285714307
2.404066580285059,-11.815714285714307
2.4050632911392404,-15.815714285714307
2.4060600019934215,-19.815714285714307
2.4070567128476026,-5.815714285714307
2.408053423701784,7.184285714285693
2.409050134555965,9.184285714285693
2.4100468454101462,8.184285714285693
2.4110435562643273,9.184285714285693
2.412040267118509,-0.8157142857143072
2.41303697797269,7.184285714285693
2.414033688826871,21.184285714285693
2.4150303996810525,15.184285714285693
2.4160271105352336,10.184285714285693
2.4170238213894146,8.184285714285693
2.4180205322435957,-5.815714285714307
2.419017243097777,-3.815714285714307
2.4200139539519583,1.1842857142856928
2.4210106648061394,-13.815714285714307
2.422007375660321,-18.815714285714307
2.423004086514502,0.18428571428569285
2.424000797368683,3.184285714285693
2.4249975082228645,-9.815714285714307
2.4259942190770456,-16.815714285714307
2.4269909299312267,-19.815714285714307
2.4279876407854077,-9.815714285714307
2.4289843516395893,2.184285714285693
2.4299810624937703,0.18428571428569285
2.4309777733479514,24.184285714285693
2.431974484202133,33.18428571428569
2.432971195056314,11.184285714285693
2.433967905910495,23.184285714285693
2.434964616764676,19.184285714285693
2.4359613276188576,5.184285714285693
2.4369580384730387,2.184285714285693
2.43795474932722,-9.815714285714307
2.4389514601814013,-11.815714285714307
2.4399481710355824,-2.815714285714307
2.4409448818897634,-17.815714285714307
2.441941592743945,-13.815714285714307
2.442938303598126,4.184285714285693
2.443935014452307,-10.815714285714307
2.444931725306488,-20.815714285714307
2.4459284361606697,-33.81571428571431
2.4469251470148508,-32.81571428571431
2.447921857869032,-3.815714285714307
2.4489185687232133,24.184285714285693
2.4499152795773944,29.184285714285693
2.4509119904315755,42.18428571428569
2.451908701285757,19.184285714285693
2.452905412139938,3.184285714285693
2.453902122994119,14.184285714285693
2.4548988338483,-6.815714285714307
2.4558955447024817,-4.815714285714307
2.456892255556663,25.184285714285693
2.457888966410844,26.184285714285693
2.4588856772650254,-0.8157142857143072
2.4598823881192065,-12.815714285714307
2.4608790989733875,-18.815714285714307
2.4618758098275686,-25.815714285714307
2.46287252068175,-20.815714285714307
2.463869231535931,-33.81571428571431
2.4648659423901123,-19.815714285714307
2.4658626532442938,1.1842857142856928
2.466859364098475,1.1842857142856928
2.467856074952656,2.184285714285693
2.4688527858068374,24.184285714285693
2.4698494966610185,22.184285714285693
2.4708462075151996,-1.8157142857143072
2.4718429183693806,6.184285714285693
2.472839629223562,15.184285714285693
2.4738363400777432,18.184285714285693
2.4748330509319243,24.184285714285693
2.475829761786106,7.184285714285693
2.476826472640287,-5.815714285714307
2.477823183494468,-2.815714285714307
2.478819894348649,-22.815714285714307
2.4798166052028305,-22.815714285714307
2.4808133160570116,-9.815714285714307
2.4818100269111927,5.184285714285693
2.482806737765374,-11.815714285714307
2.4838034486195553,-19.815714285714307
2.4848001594737363,-23.815714285714307
2.485796870327918,-33.81571428571431
2.486793581182099,-30.815714285714307
2.48779029203628,20.184285714285693
2.488787002890461,42.18428571428569
2.4897837137446426,23.184285714285693
2.4907804245988237,20.184285714285693
2.4917771354530047,31.184285714285693
2.4927738463071862,21.184285714285693
2.4937705571613673,16.184285714285693
2.4947672680155484,5.184285714285693
2.4957639788697294,-0.8157142857143072
2.496760689723911,-6.815714285714307
2.497757400578092,-16.815714285714307
2.498754111432273,-14.815714285714307
2.4997508222864546,-5.815714285714307
2.5007475331406357,7.184285714285693
2.5017442439948168,-2.815714285714307
2.5027409548489983,-19.815714285714307
2.5037376657031793,-22.815714285714307
2.5047343765573604,-30.815714285714307
2.5057310874115415,-23.815714285714307
2.506727798265723,5.184285714285693
2.507724509119904,8.184285714285693
2.508721219974085,4.184285714285693
2.5097179308282667,-2.815714285714307
2.5107146416824477,2.184285714285693
2.511711352536629,22.184285714285693
2.51270806339081,24.184285714285693
2.5137047742449914,24.184285714285693
2.5147014850991725,30.184285714285693
2.5156981959533535,16.184285714285693
2.516694906807535,-2.815714285714307
2.517691617661716,3.184285714285693
2.518688328515897,-12.815714285714307
2.5196850393700787,-14.815714285714307
2.5206817502242598,-29.815714285714307
2.521678461078441,-19.815714285714307
2.522675171932622,-15.815714285714307
2.5236718827868034,-14.815714285714307
2.5246685936409845,-23.815714285714307
2.5256653044951656,-19.815714285714307
2.526662015349347,20.184285714285693
2.527658726203528,8.184285714285693
2.5286554370577092,22.184285714285693
2.5296521479118907,-6.815714285714307
2.530648858766072,18.184285714285693
2.531645569620253,22.184285714285693
2.532642280474434,22.184285714285693
2.5336389913286155,12.184285714285693
2.5346357021827965,17.184285714285693
2.5356324130369776,8.184285714285693
2.536629123891159,8.184285714285693
2.53762583474534,-6.815714285714307
2.5386225455995213,-26.815714285714307
2.5396192564537023,-22.815714285714307
2.540615967307884,-21.815714285714307
2.541612678162065,-14.815714285714307
2.542609389016246,-5.815714285714307
2.5436060998704275,-5.815714285714307
2.5446028107246086,-14.815714285714307
2.5455995215787897,-11.815714285714307
2.546596232432971,-1.8157142857143072
2.5475929432871522,6.184285714285693
2.5485896541413333,14.184285714285693
2.5495863649955144,12.184285714285693
2.550583075849696,9.184285714285693
2.551579786703877,14.184285714285693
2.552576497558058,16.184285714285693
2.5535732084122396,1.1842857142856928
2.5545699192664206,-1.8157142857143072
2.5555666301206017,15.184285714285693
2.5565633409747828,-3.815714285714307
2.5575600518289643,1.1842857142856928
2.5585567626831454,-7.815714285714307
2.5595534735373264,14.184285714285693
2.560550184391508,-0.8157142857143072
2.561546895245689,-25.815714285714307
2.56254360609987,-30.815714285714307
2.5635403169540516,-24.815714285714307
2.5645370278082327,-29.815714285714307
2.5655337386624137,-20.815714285714307
2.566530449516595,8.184285714285693
2.5675271603707763,23.184285714285693
2.5685238712249574,32.18428571428569
2.5695205820791385,27.184285714285693
2.57051729293332,21.184285714285693
2.571514003787501,5.184285714285693
2.572510714641682,-2.815714285714307
2.573507425495863,-7.815714285714307
2.5745041363500447,6.184285714285693
2.575500847204226,7.184285714285693
2.576497558058407,27.184285714285693
2.5774942689125884,6.184285714285693
2.5784909797667694,5.184285714285693
2.5794876906209505,-7.815714285714307
2.580484401475132,-8.815714285714307
2.581481112329313,-27.815714285714307
2.582477823183494,-22.815714285714307
2.5834745340376752,-14.815714285714307
2.5844712448918568,-19.815714285714307
2.585467955746038,-18.815714285714307
2.586464666600219,-2.815714285714307
2.5874613774544004,9.184285714285693
2.5884580883085815,13.184285714285693
2.5894547991627626,14.184285714285693
2.590451510016944,7.184285714285693
2.591448220871125,13.184285714285693
2.592444931725306,1.1842857142856928
2.5934416425794873,-12.815714285714307
2.594438353433669,13.184285714285693
2.59543506428785,15.184285714285693
2.596431775142031,-6.815714285714307
2.5974284859962125,17.184285714285693
2.5984251968503935,23.184285714285693
2.5994219077045746,27.184285714285693
2.6004186185587557,30.184285714285693
2.601415329412937,1.1842857142856928
2.6024120402671183,-25.815714285714307
2.6034087511212993,-27.815714285714307
2.604405461975481,-23.815714285714307
2.605402172829662,-22.815714285714307
2.606398883683843,-22.815714285714307
2.6073955945380245,-38.81571428571431
2.6083923053922056,-7.815714285714307
2.6093890162463866,6.184285714285693
2.6103857271005677,33.18428571428569
2.6113824379547492,22.184285714285693
2.6123791488089303,16.184285714285693
2.6133758596631114,26.184285714285693
2.614372570517293,16.184285714285693
2.615369281371474,2.184285714285693
2.616365992225655,25.184285714285693
2.617362703079836,-1.8157142857143072
2.6183594139340176,-22.815714285714307
2.6193561247881987,-6.815714285714307
2.6203528356423798,-23.815714285714307
2.6213495464965613,-20.815714285714307
2.6223462573507423,-28.815714285714307
2.6233429682049234,-23.815714285714307
2.624339679059105,-1.8157142857143072
2.625336389913286,-11.815714285714307
2.626333100767467,2.184285714285693
2.627329811621648,14.184285714285693
2.6283265224758297,11.184285714285693
2.6293232333300107,0.18428571428569285
2.630319944184192,7.184285714285693
2.6313166550383733,17.184285714285693
2.6323133658925544,16.184285714285693
2.6333100767467355,25.184285714285693
2.6343067876009165,21.184285714285693
2.635303498455098,5.184285714285693
2.636300209309279,-35.81571428571431
2.63729692016346,-15.815714285714307
2.6382936310176417,30.184285714285693
2.6392903418718228,19.184285714285693
2.640287052726004,-1.8157142857143072
2.6412837635801854,-23.815714285714307
2.6422804744343664,-23.815714285714307
2.6432771852885475,-21.815714285714307
2.6442738961427286,-4.815714285714307
2.64527060699691,-19.815714285714307
2.646267317851091,-9.815714285714307
2.647264028705272,3.184285714285693
2.6482607395594537,-12.815714285714307
2.649257450413635,0.18428571428569285
2.650254161267816,5.184285714285693
2.651250872121997,11.184285714285693
2.6522475829761785,32.18428571428569
2.6532442938303595,25.184285714285693
2.6542410046845406,24.184285714285693
2.655237715538722,16.184285714285693
2.656234426392903,17.184285714285693
2.6572311372470843,15.184285714285693
2.6582278481012658,-9.815714285714307
2.659224558955447,-31.815714285714307
2.660221269809628,-34.81571428571431
2.661217980663809,-13.815714285714307
2.6622146915179905,7.184285714285693
2.6632114023721716,-6.815714285714307
2.6642081132263526,-34.81571428571431
2.665204824080534,-18.815714285714307
2.6662015349347152,3.184285714285693
2.6671982457888963,-7.815714285714307
2.668194956643078,14.184285714285693
2.669191667497259,21.184285714285693
2.67018837835144,21.184285714285693
2.671185089205621,26.184285714285693
2.6721818000598025,17.184285714285693
2.6731785109139836,25.184285714285693
2.6741752217681647,11.184285714285693
2.675171932622346,-5.815714285714307
2.6761686434765273,-14.815714285714307
2.6771653543307083,-12.815714285714307
2.6781620651848894,-11.815714285714307
2.679158776039071,-17.815714285714307
2.680155486893252,-9.815714285714307
2.681152197747433,8.184285714285693
2.6821489086016146,-26.815714285714307
2.6831456194557957,-23.815714285714307
2.6841423303099767,3.184285714285693
2.6851390411641582,7.184285714285693
2.6861357520183393,2.184285714285693
2.6871324628725204,-17.815714285714307
2.6881291737267015,-2.815714285714307
2.689125884580883,2.184285714285693
2.690122595435064,12.184285714285693
2.691119306289245,26.184285714285693
2.6921160171434266,27.184285714285693
2.6931127279976077,11.184285714285693
2.6941094388517888,12.184285714285693
2.69510614970597,17.184285714285693
2.6961028605601514,6.184285714285693
2.6970995714143324,0.18428571428569285
2.6980962822685135,10.184285714285693
2.699092993122695,-13.815714285714307
2.700089703976876,-19.815714285714307
2.701086414831057,-28.815714285714307
2.7020831256852387,-37.81571428571431
2.7030798365394197,-19.815714285714307
2.704076547393601,-19.815714285714307
2.705073258247782,-9.815714285714307
2.7060699691019634,5.184285714285693
2.7070666799561445,1.1842857142856928
2.7080633908103255,12.184285714285693
2.709060101664507,24.184285714285693
2.710056812518688,26.184285714285693
2.711053523372869,20.184285714285693
2.7120502342270503,4.184285714285693
2.713046945081232,17.184285714285693
2.714043655935413,6.184285714285693
2.715040366789594,0.18428571428569285
2.7160370776437754,-7.815714285714307
2.7170337884979565,-10.815714285714307
2.7180304993521376,3.184285714285693
2.719027210206319,8.184285714285693
2.7200239210605,-4.815714285714307
2.7210206319146812,-19.815714285714307
2.7220173427688623,-40.81571428571431
2.723014053623044,-7.815714285714307
2.724010764477225,7.184285714285693
2.725007475331406,-12.815714285714307
2.7260041861855875,-12.815714285714307
2.7270008970397686,-15.815714285714307
2.7279976078939496,8.184285714285693
2.7289943187481307,14.184285714285693
2.729991029602312,12.184285714285693
2.7309877404564933,10.184285714285693
2.7319844513106744,13.184285714285693
2.732981162164856,22.184285714285693
2.733977873019037,24.184285714285693
2.734974583873218,20.184285714285693
2.7359712947273995,21.184285714285693
2.7369680055815806,4.184285714285693
2.7379647164357617,-12.815714285714307
2.7389614272899427,-17.815714285714307
2.7399581381441243,-47.81571428571431
2.7409548489983053,-34.81571428571431
2.7419515598524864,-10.815714285714307
2.742948270706668,-20.815714285714307
2.743944981560849,1.1842857142856928
2.74494169241503,17.184285714285693
2.7459384032692116,-0.8157142857143072
2.7469351141233926,-9.815714285714307
2.7479318249775737,0.18428571428569285
2.748928535831755,20.184285714285693
2.7499252466859363,21.184285714285693
2.7509219575401174,10.184285714285693
2.7519186683942984,27.184285714285693
2.75291537924848,20.184285714285693
2.753912090102661,3.184285714285693
2.754908800956842,12.184285714285693
2.755905511811023,20.184285714285693
2.7569022226652047,13.184285714285693
2.7578989335193858,2.184285714285693
2.758895644373567,-19.815714285714307
2.7598923552277483,-27.815714285714307
2.7608890660819294,-10.815714285714307
2.7618857769361105,-23.815714285714307
2.762882487790292,-18.815714285714307
2.763879198644473,-14.815714285714307
2.764875909498654,-33.81571428571431
2.765872620352835,-22.815714285714307
2.7668693312070167,-12.815714285714307
2.767866042061198,-1.8157142857143072
2.768862752915379,8.184285714285693
2.7698594637695604,27.184285714285693
2.7708561746237415,34.18428571428569
2.7718528854779225,38.18428571428569
2.7728495963321036,52.18428571428569
2.773846307186285,19.184285714285693
2.774843018040466,-3.815714285714307
2.7758397288946473,-17.815714285714307
2.7768364397488288,-16.815714285714307
2.77783315060301,1.1842857142856928
2.778829861457191,4.184285714285693
2.7798265723113724,0.18428571428569285
2.7808232831655535,-31.815714285714307
2.7818199940197346,-29.815714285714307
2.7828167048739156,-30.815714285714307
2.783813415728097,-24.815714285714307
2.7848101265822782,-3.815714285714307
2.7858068374364593,9.184285714285693
2.786803548290641,-16.815714285714307
2.787800259144822,-5.815714285714307
2.788796969999003,3.184285714285693
2.789793680853184,17.184285714285693
2.7907903917073655,20.184285714285693
2.7917871025615466,32.18428571428569
2.7927838134157277,55.18428571428569
2.793780524269909,36.18428571428569
2.7947772351240903,14.184285714285693
2.7957739459782713,-4.815714285714307
2.796770656832453,-13.815714285714307
2.797767367686634,-18.815714285714307
2.798764078540815,-4.815714285714307
2.799760789394996,-7.815714285714307
2.8007575002491776,-21.815714285714307
2.8017542111033586,-22.815714285714307
2.8027509219575397,-27.815714285714307
2.8037476328117212,-27.815714285714307
2.8047443436659023,-11.815714285714307
2.8057410545200834,-1.8157142857143072
2.8067377653742644,-6.815714285714307
2.807734476228446,6.184285714285693
2.808731187082627,15.184285714285693
2.809727897936808,35.18428571428569
2.8107246087909896,42.18428571428569
2.8117213196451707,13.184285714285693
2.8127180304993518,4.184285714285693
2.8137147413535333,9.184285714285693
2.8147114522077143,-11.815714285714307
2.8157081630618954,5.184285714285693
2.8167048739160765,14.184285714285693
2.817701584770258,-4.815714285714307
2.818698295624439,-10.815714285714307
2.81969500647862,-18.815714285714307
2.8206917173328017,0.18428571428569285
2.8216884281869827,-5.815714285714307
2.822685139041164,-15.815714285714307
2.8236818498953453,-12.815714285714307
2.8246785607495264,-6.815714285714307
2.8256752716037075,9.184285714285693
2.8266719824578885,-8.815714285714307
2.82766869331207,-7.815714285714307
2.828665404166251,0.18428571428569285
2.829662115020432,-13.815714285714307
2.8306588258746137,12.184285714285693
2.8316555367287948,28.184285714285693
2.832652247582976,22.184285714285693
2.833648958437157,12.184285714285693
2.8346456692913384,14.184285714285693
2.8356423801455195,13.184285714285693
2.8366390909997006,3.184285714285693
2.837635801853882,-11.815714285714307
2.838632512708063,-19.815714285714307
2.8396292235622442,-21.815714285714307
2.8406259344164257,-13.815714285714307
2.841622645270607,-34.81571428571431
2.842619356124788,-16.815714285714307
2.843616066978969,-2.815714285714307
2.8446127778331505,10.184285714285693
2.8456094886873315,-2.815714285714307
2.8466061995415126,-7.815714285714307
2.847602910395694,11.184285714285693
2.848599621249875,13.184285714285693
2.8495963321040563,6.184285714285693
2.8505930429582373,7.184285714285693
2.851589753812419,8.184285714285693
2.8525864646666,21.184285714285693
2.853583175520781,25.184285714285693
2.8545798863749625,26.184285714285693
2.8555765972291436,19.184285714285693
2.8565733080833247,1.1842857142856928
2.857570018937506,-23.815714285714307
2.8585667297916872,-40.81571428571431
2.8595634406458683,-33.81571428571431
2.8605601515000494,-11.815714285714307
2.861556862354231,-8.815714285714307
2.862553573208412,12.184285714285693
2.863550284062593,16.184285714285693
2.8645469949167746,12.184285714285693
2.8655437057709556,1.1842857142856928
2.8665404166251367,-17.815714285714307
2.8675371274793178,-11.815714285714307
2.8685338383334993,-7.815714285714307
2.8695305491876804,-10.815714285714307
2.8705272600418614,4.184285714285693
2.871523970896043,21.184285714285693
2.872520681750224,10.184285714285693
2.873517392604405,10.184285714285693
2.8745141034585866,16.184285714285693
2.8755108143127677,28.184285714285693
2.8765075251669487,2.184285714285693
2.87750423602113,4.184285714285693
2.8785009468753113,0.18428571428569285
2.8794976577294924,-23.815714285714307
2.8804943685836735,0.18428571428569285
2.881491079437855,-2.815714285714307
2.882487790292036,-17.815714285714307
2.883484501146217,-22.815714285714307
2.8844812120003986,-24.815714285714307
2.8854779228545797,-16.815714285714307
2.886474633708761,-2.815714285714307
2.887471344562942,1.1842857142856928
2.8884680554171234,0.18428571428569285
2.8894647662713044,13.184285714285693
2.8904614771254855,13.184285714285693
2.891458187979667,13.184285714285693
2.892454898833848,19.184285714285693
2.893451609688029,21.184285714285693
2.8944483205422102,12.184285714285693
2.8954450313963918,19.184285714285693
2.896441742250573,17.184285714285693
2.897438453104754,13.184285714285693
2.8984351639589354,-6.815714285714307
2.8994318748131165,-9.815714285714307
2.9004285856672976,-20.815714285714307
2.901425296521479,-39.81571428571431
2.90242200737566,-41.81571428571431
2.903418718229841,-27.815714285714307
2.9044154290840223,-8.815714285714307
2.905412139938204,-9.815714285714307
2.906408850792385,10.184285714285693
2.907405561646566,16.184285714285693
2.9084022725007475,11.184285714285693
2.9093989833549285,4.184285714285693
2.9103956942091096,5.184285714285693
2.9113924050632907,30.184285714285693
2.912389115917472,48.18428571428569
2.9133858267716533,11.184285714285693
2.9143825376258343,-2.815714285714307
2.915379248480016,-20.815714285714307
2.916375959334197,-0.8157142857143072
2.917372670188378,-9.815714285714307
2.9183693810425595,-5.815714285714307
2.9193660918967406,4.184285714285693
2.9203628027509216,22.184285714285693
2.9213595136051027,-16.815714285714307
2.9223562244592842,-57.81571428571431
2.9233529353134653,-35.81571428571431
2.9243496461676464,-14.815714285714307
2.925346357021828,-0.8157142857143072
2.926343067876009,20.184285714285693
2.92733977873019,36.18428571428569
2.928336489584371,25.184285714285693
2.9293332004385526,23.184285714285693
2.9303299112927337,24.184285714285693
2.9313266221469148,25.184285714285693
2.9323233330010963,-2.815714285714307
2.9333200438552773,-12.815714285714307
2.9343167547094584,-14.815714285714307
2.93531346556364,-6.815714285714307
2.936310176417821,9.184285714285693
2.937306887272002,19.184285714285693
2.938303598126183,5.184285714285693
2.9393003089803647,-7.815714285714307
2.9402970198345457,-17.815714285714307
2.941293730688727,-20.815714285714307
2.9422904415429083,-28.815714285714307
2.9432871523970894,-27.815714285714307
2.9442838632512704,-30.815714285714307
2.9452805741054515,-7.815714285714307
2.946277284959633,14.184285714285693
2.947273995813814,26.184285714285693
2.948270706667995,10.184285714285693
2.9492674175221767,-2.815714285714307
2.9502641283763578,11.184285714285693
2.951260839230539,4.184285714285693
2.9522575500847204,-7.815714285714307
2.9532542609389014,35.18428571428569
2.9542509717930825,40.18428571428569
2.9552476826472636,35.18428571428569
2.956244393501445,12.184285714285693
2.957241104355626,-22.815714285714307
2.958237815209807,-34.81571428571431
2.9592345260639887,-39.81571428571431
2.96023123691817,-26.815714285714307
2.961227947772351,-9.815714285714307
2.9622246586265324,-15.815714285714307
2.9632213694807135,8.184285714285693
2.9642180803348945,-1.8157142857143072
2.9652147911890756,3.184285714285693
2.966211502043257,5.184285714285693
2.967208212897438,-4.815714285714307
2.9682049237516193,18.184285714285693
2.9692016346058008,12.184285714285693
2.970198345459982,-2.815714285714307
2.971195056314163,0.18428571428569285
2.972191767168344,3.184285714285693
2.9731884780225255,25.184285714285693
2.9741851888767066,25.184285714285693
2.9751818997308876,8.184285714285693
2.976178610585069,-11.815714285714307
2.9771753214392502,-10.815714285714307
2.9781720322934313,-0.8157142857143072
2.979168743147613,-9.815714285714307
2.980165454001794,-11.815714285714307
2.981162164855975,-21.815714285714307
2.982158875710156,-29.815714285714307
2.9831555865643375,-10.815714285714307
2.9841522974185186,4.184285714285693
2.9851490082726997,17.184285714285693
2.986145719126881,5.184285714285693
2.9871424299810623,1.1842857142856928
2.9881391408352433,3.184285714285693
2.9891358516894244,2.184285714285693
2.990132562543606,6.184285714285693
2.991129273397787,29.184285714285693
2.992125984251968,30.184285714285693
2.9931226951061496,27.184285714285693
2.9941194059603307,8.184285714285693
2.9951161168145117,0.18428571428569285
2.9961128276686932,-11.815714285714307
2.9971095385228743,-30.815714285714307
2.9981062493770554,-9.815714285714307
2.9991029602312365,-9.815714285714307
3.000099671085418,-11.815714285714307
3.001096381939599,-20.815714285714307
3.00209309279378,-19.815714285714307
3.0030898036479616,-7.815714285714307
3.0040865145021427,-7.815714285714307
3.0050832253563238,-9.815714285714307
3.006079936210505,-5.815714285714307
3.0070766470646864,2.184285714285693
3.0080733579188674,6.184285714285693
3.0090700687730485,18.184285714285693
3.01006677962723,30.184285714285693
3.011063490481411,35.18428571428569
3.012060201335592,23.184285714285693
3.0130569121897737,8.184285714285693
3.0140536230439547,-6.815714285714307
3.015050333898136,-10.815714285714307
3.016047044752317,14.184285714285693
3.0170437556064984,-6.815714285714307
3.0180404664606795,-7.815714285714307
3.0190371773148605,12.184285714285693
3.020033888169042,5.184285714285693
3.021030599023223,-40.81571428571431
3.022027309877404,-29.815714285714307
3.0230240207315853,-26.815714285714307
3.024020731585767,-22.815714285714307
3.025017442439948,-4.815714285714307
3.026014153294129,18.184285714285693
3.0270108641483104,39.18428571428569
3.0280075750024915,30.184285714285693
3.0290042858566726,20.184285714285693
3.030000996710854,18.184285714285693
3.030997707565035,6.184285714285693
3.0319944184192162,-1.8157142857143072
3.0329911292733973,3.184285714285693
3.033987840127579,-3.815714285714307
3.03498455098176,-8.815714285714307
3.035981261835941,-1.8157142857143072
3.0369779726901225,-15.815714285714307
3.0379746835443036,-19.815714285714307
3.0389713943984846,2.184285714285693
3.039968105252666,-24.815714285714307
3.040964816106847,-29.815714285714307
3.0419615269610283,-26.815714285714307
3.0429582378152094,-4.815714285714307
3.043954948669391,-10.815714285714307
3.044951659523572,4.184285714285693
3.045948370377753,12.184285714285693
3.0469450812319345,15.184285714285693
3.0479417920861156,19.184285714285693
3.0489385029402967,28.184285714285693
3.0499352137944777,33.18428571428569
3.0509319246486593,14.184285714285693
3.0519286355028403,12.184285714285693
3.0529253463570214,9.184285714285693
3.053922057211203,-2.815714285714307
3.054918768065384,-15.815714285714307
3.055915478919565,-25.815714285714307
3.0569121897737466,7.184285714285693
3.0579089006279276,-10.815714285714307
3.0589056114821087,-25.815714285714307
3.05990232233629,-1.8157142857143072
3.0608990331904713,0.18428571428569285
3.0618957440446524,-14.815714285714307
3.0628924548988334,-25.815714285714307
3.063889165753015,9.184285714285693
3.064885876607196,15.184285714285693
3.065882587461377,2.184285714285693
3.066879298315558,1.1842857142856928
3.0678760091697397,24.184285714285693
3.0688727200239208,19.184285714285693
3.069869430878102,18.184285714285693
3.0708661417322833,6.184285714285693
3.0718628525864644,8.184285714285693
3.0728595634406455,-11.815714285714307
3.073856274294827,0.18428571428569285
3.074852985149008,-0.8157142857143072
3.075849696003189,-12.815714285714307
3.07684640685737,3.184285714285693
3.0778431177115517,5.184285714285693
3.078839828565733,-9.815714285714307
3.079836539419914,-10.815714285714307
3.0808332502740954,-15.815714285714307
3.0818299611282765,-27.815714285714307
3.0828266719824575,-29.815714285714307
3.0838233828366386,-6.815714285714307
3.08482009369082,-3.815714285714307
3.085816804545001,3.184285714285693
3.0868135153991823,14.184285714285693
3.0878102262533638,22.184285714285693
3.088806937107545,23.184285714285693
3.089803647961726,16.184285714285693
3.0908003588159074,-1.8157142857143072
3.0917970696700885,-6.815714285714307
3.0927937805242696,-5.815714285714307
3.0937904913784506,13.184285714285693
3.094787202232632,16.184285714285693
3.095783913086813,38.18428571428569
3.0967806239409943,30.184285714285693
3.097777334795176,6.184285714285693
3.098774045649357,-26.815714285714307
3.099770756503538,-43.81571428571431
3.1007674673577195,-37.81571428571431
3.1017641782119005,-24.815714285714307
3.1027608890660816,-0.8157142857143072
3.1037575999202627,-1.8157142857143072
3.104754310774444,1.1842857142856928
3.1057510216286253,-7.815714285714307
3.1067477324828063,-12.815714285714307
3.107744443336988,0.18428571428569285
3.108741154191169,11.184285714285693
3.10973786504535,19.184285714285693
3.110734575899531,20.184285714285693
3.1117312867537126,12.184285714285693
3.1127279976078936,24.184285714285693
3.1137247084620747,40.18428571428569
3.1147214193162562,18.184285714285693
3.1157181301704373,-3.815714285714307
3.1167148410246184,-14.815714285714307
3.1177115518788,-16.815714285714307
3.118708262732981,-10.815714285714307
3.119704973587162,-20.815714285714307
3.120701684441343,-20.815714285714307
3.1216983952955246,-1.8157142857143072
3.1226951061497057,-4.815714285714307
3.1236918170038868,-19.815714285714307
3.1246885278580683,-6.815714285714307
3.1256852387122493,-29.815714285714307
3.1266819495664304,-4.815714285714307
3.1276786604206115,22.184285714285693
3.128675371274793,15.184285714285693
3.129672082128974,-3.815714285714307
3.130668792983155,10.184285714285693
3.1316655038373367,24.184285714285693
3.1326622146915177,34.18428571428569
3.133658925545699,19.184285714285693
3.1346556363998803,7.184285714285693
3.1356523472540614,9.184285714285693
3.1366490581082425,-7.815714285714307
3.1376457689624235,-19.815714285714307
3.138642479816605,-24.815714285714307
3.139639190670786,-23.815714285714307
3.140635901524967,-23.815714285714307
3.1416326123791487,-10.815714285714307
3.1426293232333298,-3.815714285714307
3.143626034087511,-3.815714285714307
3.144622744941692,-1.8157142857143072
3.1456194557958734,-4.815714285714307
3.1466161666500545,5.184285714285693
3.1476128775042356,0.18428571428569285
3.148609588358417,14.184285714285693
3.149606299212598,8.184285714285693
3.1506030100667792,-0.8157142857143072
3.1515997209209607,6.184285714285693
