Time,EMG
0.0,15.115382059800652
0.000996710854181202,21.115382059800652
0.001993421708362404,8.115382059800652
0.002990132562543606,-7.884617940199348
0.003986843416724808,-7.884617940199348
0.00498355427090601,-12.884617940199348
0.005980265125087212,-18.884617940199348
0.006976975979268414,-15.884617940199348
0.007973686833449616,-23.884617940199348
0.008970397687630818,-32.88461794019935
0.00996710854181202,-17.884617940199348
0.01096381939599322,-15.884617940199348
0.011960530250174423,-11.884617940199348
0.012957241104355626,29.115382059800652
0.013953951958536827,19.115382059800652
0.014950662812718028,22.115382059800652
0.01594737366689923,30.115382059800652
0.016944084521080434,12.115382059800652
0.017940795375261637,20.115382059800652
0.018937506229442836,-2.884617940199348
0.01993421708362404,-15.884617940199348
0.02093092793780524,19.115382059800652
0.02192763879198644,26.115382059800652
0.022924349646167644,23.115382059800652
0.023921060500348847,-2.884617940199348
0.02491777135453005,-15.884617940199348
0.025914482208711252,-28.884617940199348
0.02691119306289245,-47.88461794019935
0.027907903917073654,-31.884617940199348
0.028904614771254857,-14.884617940199348
0.029901325625436057,-6.884617940199348
0.03089803647961726,-1.8846179401993481
0.03189474733379846,-7.884617940199348
0.032891458187979665,4.115382059800652
0.03388816904216087,14.115382059800652
0.03488487989634207,16.115382059800652
0.03588159075052327,26.115382059800652
0.03687830160470447,11.115382059800652
0.03787501245888567,7.115382059800652
0.038871723313066875,20.115382059800652
0.03986843416724808,20.115382059800652
0.04086514502142928,17.115382059800652
0.04186185587561048,1.1153820598006519
0.042858566729791686,-14.884617940199348
0.04385527758397288,-17.884617940199348
0.044851988438154085,-7.884617940199348
0.04584869929233529,-14.884617940199348
0.04684541014651649,-18.884617940199348
0.04784212100069769,-11.884617940199348
0.048838831854878896,-10.884617940199348
0.0498355427090601,-8.884617940199348
0.0508322535632413,-16.884617940199348
0.051828964417422504,-7.884617940199348
0.0528256752716037,8.115382059800652
0.0538223861257849,5.115382059800652
0.054819096979966106,8.115382059800652
0.05581580783414731,6.115382059800652
0.05681251868832851,8.115382059800652
0.057809229542509714,20.115382059800652
0.05880594039669092,18.115382059800652
0.05980265125087211,15.115382059800652
0.060799362105053316,17.115382059800652
0.06179607295923452,2.115382059800652
0.06279278381341573,-1.8846179401993481
0.06378949466759692,10.115382059800652
0.06478620552177812,-0.8846179401993481
0.06578291637595933,-11.884617940199348
0.06677962723014053,-14.884617940199348
0.06777633808432174,-18.884617940199348
0.06877304893850293,-22.884617940199348
0.06976975979268414,-18.884617940199348
0.07076647064686534,-10.884617940199348
0.07176318150104655,-12.884617940199348
0.07275989235522774,2.115382059800652
0.07375660320940894,6.115382059800652
0.07475331406359015,17.115382059800652
0.07575002491777134,19.115382059800652
0.07674673577195255,20.115382059800652
0.07774344662613375,26.115382059800652
0.07874015748031496,17.115382059800652
0.07973686833449616,9.115382059800652
0.08073357918867735,-8.884617940199348
0.08173029004285856,-8.884617940199348
0.08272700089703976,3.115382059800652
0.08372371175122097,-7.884617940199348
0.08472042260540216,-4.884617940199348
0.08571713345958337,-25.884617940199348
0.08671384431376457,-24.884617940199348
0.08771055516794576,-11.884617940199348
0.08870726602212697,-12.884617940199348
0.08970397687630817,4.115382059800652
0.09070068773048938,-10.884617940199348
0.09169739858467058,10.115382059800652
0.09269410943885178,8.115382059800652
0.09369082029303298,0.11538205980065186
0.09468753114721419,16.115382059800652
0.09568424200139539,22.115382059800652
0.09668095285557658,7.115382059800652
0.09767766370975779,-2.884617940199348
0.09867437456393899,23.115382059800652
0.0996710854181202,24.115382059800652
0.1006677962723014,-5.884617940199348
0.1016645071264826,-10.884617940199348
0.1026612179806638,-10.884617940199348
0.10365792883484501,-13.884617940199348
0.1046546396890262,-0.8846179401993481
0.1056513505432074,-4.884617940199348
0.10664806139738861,-22.884617940199348
0.1076447722515698,-15.884617940199348
0.10864148310575102,-1.8846179401993481
0.10963819395993221,-3.884617940199348
0.11063490481411342,-6.884617940199348
0.11163161566829462,3.115382059800652
0.11262832652247581,5.115382059800652
0.11362503737665702,4.115382059800652
0.11462174823083822,-2.884617940199348
0.11561845908501943,4.115382059800652
0.11661516993920062,13.115382059800652
0.11761188079338183,19.115382059800652
0.11860859164756303,12.115382059800652
0.11960530250174423,33.11538205980065
0.12060201335592544,21.115382059800652
0.12159872421010663,-7.884617940199348
0.12259543506428784,-16.884617940199348
0.12359214591846904,-15.884617940199348
0.12458885677265025,-11.884617940199348
0.12558556762683146,0.11538205980065186
0.12658227848101264,4.115382059800652
0.12757898933519385,0.11538205980065186
0.12857570018937506,-17.884617940199348
0.12957241104355624,-23.884617940199348
0.13056912189773745,-21.884617940199348
0.13156583275191866,-9.884617940199348
0.13256254360609987,5.115382059800652
0.13355925446028105,16.115382059800652
0.13455596531446226,15.115382059800652
0.13555267616864347,24.115382059800652
0.13654938702282465,19.115382059800652
0.13754609787700586,13.115382059800652
0.13854280873118707,4.115382059800652
0.13953951958536828,-1.8846179401993481
0.14053623043954946,-9.884617940199348
0.14153294129373067,-7.884617940199348
0.14252965214791188,-11.884617940199348
0.1435263630020931,-4.884617940199348
0.14452307385627428,-3.884617940199348
0.14551978471045549,1.1153820598006519
0.1465164955646367,-9.884617940199348
0.14751320641881788,-10.884617940199348
0.1485099172729991,-1.8846179401993481
0.1495066281271803,-6.884617940199348
0.1505033389813615,-0.8846179401993481
0.1515000498355427,-1.8846179401993481
0.1524967606897239,0.11538205980065186
0.1534934715439051,2.115382059800652
0.1544901823980863,-1.8846179401993481
0.1554868932522675,-6.884617940199348
0.1564836041064487,10.115382059800652
0.15748031496062992,27.115382059800652
0.1584770258148111,20.115382059800652
0.1594737366689923,20.115382059800652
0.16047044752317352,12.115382059800652
0.1614671583773547,3.115382059800652
0.1624638692315359,-19.884617940199348
0.16346058008571712,-12.884617940199348
0.16445729093989833,4.115382059800652
0.1654540017940795,3.115382059800652
0.16645071264826072,-8.884617940199348
0.16744742350244193,-12.884617940199348
0.16844413435662312,-14.884617940199348
0.16944084521080433,-19.884617940199348
0.17043755606498553,-28.884617940199348
0.17143426691916674,-17.884617940199348
0.17243097777334793,-2.884617940199348
0.17342768862752914,2.115382059800652
0.17442439948171035,26.115382059800652
0.17542111033589153,51.11538205980065
0.17641782119007274,24.115382059800652
0.17741453204425395,7.115382059800652
0.17841124289843516,13.115382059800652
0.17940795375261634,11.115382059800652
0.18040466460679755,1.1153820598006519
0.18140137546097876,5.115382059800652
0.18239808631515997,5.115382059800652
0.18339479716934115,-18.884617940199348
0.18439150802352236,-14.884617940199348
0.18538821887770357,-22.884617940199348
0.18638492973188475,-24.884617940199348
0.18738164058606596,-24.884617940199348
0.18837835144024717,-23.884617940199348
0.18937506229442838,-14.884617940199348
0.19037177314860956,-10.884617940199348
0.19136848400279077,-2.884617940199348
0.19236519485697198,4.115382059800652
0.19336190571115316,18.115382059800652
0.19435861656533437,28.115382059800652
0.19535532741951558,34.11538205980065
0.1963520382736968,27.115382059800652
0.19734874912787798,14.115382059800652
0.19834545998205919,5.115382059800652
0.1993421708362404,13.115382059800652
0.20033888169042158,1.1153820598006519
0.2013355925446028,-18.884617940199348
0.202332303398784,-16.884617940199348
0.2033290142529652,-16.884617940199348
0.2043257251071464,-21.884617940199348
0.2053224359613276,1.1153820598006519
0.2063191468155088,6.115382059800652
0.20731585766969002,-21.884617940199348
0.2083125685238712,-13.884617940199348
0.2093092793780524,-2.884617940199348
0.21030599023223362,12.115382059800652
0.2113027010864148,15.115382059800652
0.212299411940596,7.115382059800652
0.21329612279477722,-14.884617940199348
0.21429283364895843,9.115382059800652
0.2152895445031396,8.115382059800652
0.21628625535732082,20.115382059800652
0.21728296621150203,12.115382059800652
0.21827967706568321,3.115382059800652
0.21927638791986442,17.115382059800652
0.22027309877404563,13.115382059800652
0.22126980962822684,16.115382059800652
0.22226652048240803,-5.884617940199348
0.22326323133658924,-20.884617940199348
0.22425994219077044,-23.884617940199348
0.22525665304495163,-18.884617940199348
0.22625336389913284,-20.884617940199348
0.22725007475331405,-25.884617940199348
0.22824678560749526,-18.884617940199348
0.22924349646167644,-5.884617940199348
0.23024020731585765,-5.884617940199348
0.23123691817003886,-33.88461794019935
0.23223362902422004,4.115382059800652
0.23323033987840125,42.11538205980065
0.23422705073258246,36.11538205980065
0.23522376158676367,12.115382059800652
0.23622047244094485,19.115382059800652
0.23721718329512606,27.115382059800652
0.23821389414930727,19.115382059800652
0.23921060500348845,16.115382059800652
0.24020731585766966,-7.884617940199348
0.24120402671185087,5.115382059800652
0.24220073756603208,-11.884617940199348
0.24319744842021326,-13.884617940199348
0.24419415927439447,-19.884617940199348
0.24519087012857568,-20.884617940199348
0.2461875809827569,-19.884617940199348
0.24718429183693807,-11.884617940199348
0.24818100269111928,-12.884617940199348
0.2491777135453005,-10.884617940199348
0.2501744243994817,0.11538205980065186
0.2511711352536629,-6.884617940199348
0.2521678461078441,5.115382059800652
0.2531645569620253,12.115382059800652
0.2541612678162065,23.115382059800652
0.2551579786703877,29.115382059800652
0.2561546895245689,22.115382059800652
0.2571514003787501,22.115382059800652
0.2581481112329313,2.115382059800652
0.2591448220871125,0.11538205980065186
0.2601415329412937,-8.884617940199348
0.2611382437954749,-1.8846179401993481
0.26213495464965614,-4.884617940199348
0.2631316655038373,-12.884617940199348
0.2641283763580185,-18.884617940199348
0.26512508721219974,-18.884617940199348
0.2661217980663809,-23.884617940199348
0.2671185089205621,-20.884617940199348
0.26811521977474334,-4.884617940199348
0.2691119306289245,7.115382059800652
0.2701086414831057,15.115382059800652
0.27110535233728694,11.115382059800652
0.2721020631914681,4.115382059800652
0.2730987740456493,4.115382059800652
0.27409548489983054,11.115382059800652
0.2750921957540117,19.115382059800652
0.27608890660819296,19.115382059800652
0.27708561746237415,15.115382059800652
0.2780823283165553,5.115382059800652
0.27907903917073656,3.115382059800652
0.28007575002491775,1.1153820598006519
0.28107246087909893,0.11538205980065186
0.28206917173328017,-0.8846179401993481
0.28306588258746135,-9.884617940199348
0.28406259344164253,-17.884617940199348
0.28505930429582377,-15.884617940199348
0.28605601515000495,-14.884617940199348
0.2870527260041862,-12.884617940199348
0.28804943685836737,-22.884617940199348
0.28904614771254855,-10.884617940199348
0.2900428585667298,-5.884617940199348
0.29103956942091097,-10.884617940199348
0.29203628027509215,4.115382059800652
0.2930329911292734,10.115382059800652
0.29402970198345457,19.115382059800652
0.29502641283763575,20.115382059800652
0.296023123691817,9.115382059800652
0.2970198345459982,11.115382059800652
0.29801654540017936,23.115382059800652
0.2990132562543606,5.115382059800652
0.3000099671085418,-1.8846179401993481
0.301006677962723,0.11538205980065186
0.3020033888169042,-7.884617940199348
0.3030000996710854,-16.884617940199348
0.3039968105252666,9.115382059800652
0.3049935213794478,14.115382059800652
0.305990232233629,10.115382059800652
0.3069869430878102,3.115382059800652
0.3079836539419914,-7.884617940199348
0.3089803647961726,7.115382059800652
0.3099770756503538,-11.884617940199348
0.310973786504535,-24.884617940199348
0.3119704973587162,-16.884617940199348
0.3129672082128974,-23.884617940199348
0.3139639190670786,5.115382059800652
0.31496062992125984,15.115382059800652
0.315957340775441,16.115382059800652
0.3169540516296222,17.115382059800652
0.31795076248380344,14.115382059800652
0.3189474733379846,8.115382059800652
0.3199441841921658,10.115382059800652
0.32094089504634704,4.115382059800652
0.3219376059005282,3.115382059800652
0.3229343167547094,-8.884617940199348
0.32393102760889064,-8.884617940199348
0.3249277384630718,-18.884617940199348
0.32592444931725306,-28.884617940199348
0.32692116017143424,-10.884617940199348
0.3279178710256154,2.115382059800652
0.32891458187979666,-11.884617940199348
0.32991129273397785,-3.884617940199348
0.330908003588159,4.115382059800652
0.33190471444234027,7.115382059800652
0.33290142529652145,8.115382059800652
0.33389813615070263,4.115382059800652
0.33489484700488387,4.115382059800652
0.33589155785906505,6.115382059800652
0.33688826871324623,20.115382059800652
0.33788497956742747,12.115382059800652
0.33888169042160865,-10.884617940199348
0.3398784012757899,22.115382059800652
0.34087511212997107,23.115382059800652
0.34187182298415225,1.1153820598006519
0.3428685338383335,-7.884617940199348
0.34386524469251467,-20.884617940199348
0.34486195554669585,-24.884617940199348
0.3458586664008771,-17.884617940199348
0.3468553772550583,-16.884617940199348
0.34785208810923945,-40.88461794019935
0.3488487989634207,-25.884617940199348
0.3498455098176019,14.115382059800652
0.35084222067178306,26.115382059800652
0.3518389315259643,18.115382059800652
0.3528356423801455,20.115382059800652
0.3538323532343267,27.115382059800652
0.3548290640885079,21.115382059800652
0.3558257749426891,0.11538205980065186
0.3568224857968703,-14.884617940199348
0.3578191966510515,31.115382059800652
0.3588159075052327,17.115382059800652
0.3598126183594139,-4.884617940199348
0.3608093292135951,-10.884617940199348
0.3618060400677763,-14.884617940199348
0.3628027509219575,-13.884617940199348
0.3637994617761387,-14.884617940199348
0.36479617263031994,-14.884617940199348
0.3657928834845011,-18.884617940199348
0.3667895943386823,-18.884617940199348
0.36778630519286354,-6.884617940199348
0.3687830160470447,16.115382059800652
0.3697797269012259,-4.884617940199348
0.37077643775540714,-12.884617940199348
0.3717731486095883,-8.884617940199348
0.3727698594637695,4.115382059800652
0.37376657031795074,13.115382059800652
0.3747632811721319,21.115382059800652
0.3757599920263131,18.115382059800652
0.37675670288049434,14.115382059800652
0.3777534137346755,44.11538205980065
0.37875012458885676,39.11538205980065
0.37974683544303794,12.115382059800652
0.3807435462972191,-7.884617940199348
0.38174025715140036,-12.884617940199348
0.38273696800558155,-11.884617940199348
0.38373367885976273,-19.884617940199348
0.38473038971394397,-31.884617940199348
0.38572710056812515,-30.884617940199348
0.38672381142230633,-23.884617940199348
0.38772052227648757,-17.884617940199348
0.38871723313066875,-11.884617940199348
0.38971394398485,-7.884617940199348
0.39071065483903117,2.115382059800652
0.39170736569321235,6.115382059800652
0.3927040765473936,4.115382059800652
0.39370078740157477,12.115382059800652
0.39469749825575595,17.115382059800652
0.3956942091099372,19.115382059800652
0.39669091996411837,21.115382059800652
0.39768763081829955,26.115382059800652
0.3986843416724808,27.115382059800652
0.399681052526662,16.115382059800652
0.40067776338084315,1.1153820598006519
0.4016744742350244,-8.884617940199348
0.4026711850892056,-15.884617940199348
0.4036678959433868,-19.884617940199348
0.404664606797568,-22.884617940199348
0.4056613176517492,-19.884617940199348
0.4066580285059304,-15.884617940199348
0.4076547393601116,-24.884617940199348
0.4086514502142928,-12.884617940199348
0.409648161068474,-6.884617940199348
0.4106448719226552,1.1153820598006519
0.4116415827768364,1.1153820598006519
0.4126382936310176,3.115382059800652
0.4136350044851988,17.115382059800652
0.41463171533938004,11.115382059800652
0.4156284261935612,12.115382059800652
0.4166251370477424,22.115382059800652
0.41762184790192364,12.115382059800652
0.4186185587561048,28.115382059800652
0.419615269610286,24.115382059800652
0.42061198046446724,12.115382059800652
0.4216086913186484,4.115382059800652
0.4226054021728296,-10.884617940199348
0.42360211302701084,-14.884617940199348
0.424598823881192,-24.884617940199348
0.4255955347353732,-17.884617940199348
0.42659224558955444,-19.884617940199348
0.4275889564437356,-25.884617940199348
0.42858566729791686,-15.884617940199348
0.42958237815209804,-10.884617940199348
0.4305790890062792,-3.884617940199348
0.43157579986046046,7.115382059800652
0.43257251071464164,11.115382059800652
0.4335692215688228,12.115382059800652
0.43456593242300406,17.115382059800652
0.43556264327718525,24.115382059800652
0.43655935413136643,14.115382059800652
0.43755606498554767,9.115382059800652
0.43855277583972885,9.115382059800652
0.43954948669391003,4.115382059800652
0.44054619754809127,3.115382059800652
0.44154290840227245,0.11538205980065186
0.4425396192564537,-2.884617940199348
0.44353633011063487,-12.884617940199348
0.44453304096481605,-25.884617940199348
0.4455297518189973,-22.884617940199348
0.44652646267317847,-11.884617940199348
0.44752317352735965,7.115382059800652
0.4485198843815409,0.11538205980065186
0.44951659523572207,1.1153820598006519
0.45051330608990325,-0.8846179401993481
0.4515100169440845,-1.8846179401993481
0.4525067277982657,12.115382059800652
0.4535034386524469,12.115382059800652
0.4545001495066281,4.115382059800652
0.4554968603608093,8.115382059800652
0.4564935712149905,19.115382059800652
0.4574902820691717,18.115382059800652
0.4584869929233529,21.115382059800652
0.4594837037775341,9.115382059800652
0.4604804146317153,3.115382059800652
0.4614771254858965,-5.884617940199348
0.4624738363400777,-12.884617940199348
0.4634705471942589,-10.884617940199348
0.4644672580484401,-14.884617940199348
0.4654639689026213,-26.884617940199348
0.4664606797568025,-35.88461794019935
0.46745739061098374,-18.884617940199348
0.4684541014651649,-10.884617940199348
0.4694508123193461,-2.884617940199348
0.47044752317352734,-1.8846179401993481
0.4714442340277085,12.115382059800652
0.4724409448818897,17.115382059800652
0.47343765573607094,11.115382059800652
0.4744343665902521,3.115382059800652
0.4754310774444333,11.115382059800652
0.47642778829861454,22.115382059800652
0.4774244991527957,18.115382059800652
0.4784212100069769,16.115382059800652
0.47941792086115814,16.115382059800652
0.4804146317153393,1.1153820598006519
0.48141134256952056,-13.884617940199348
0.48240805342370174,-16.884617940199348
0.4834047642778829,-19.884617940199348
0.48440147513206416,-19.884617940199348
0.48539818598624535,-12.884617940199348
0.4863948968404265,-16.884617940199348
0.48739160769460776,-22.884617940199348
0.48838831854878895,-10.884617940199348
0.48938502940297013,-1.8846179401993481
0.49038174025715137,3.115382059800652
0.49137845111133255,11.115382059800652
0.4923751619655138,19.115382059800652
0.49337187281969497,23.115382059800652
0.49436858367387615,20.115382059800652
0.4953652945280574,22.115382059800652
0.49636200538223857,25.115382059800652
0.49735871623641975,16.115382059800652
0.498355427090601,-3.884617940199348
0.49935213794478217,-5.884617940199348
0.5003488487989634,-7.884617940199348
0.5013455596531445,-17.884617940199348
0.5023422705073258,-7.884617940199348
0.503338981361507,1.1153820598006519
0.5043356922156882,0.11538205980065186
0.5053324030698694,-11.884617940199348
0.5063291139240506,-18.884617940199348
0.5073258247782317,-19.884617940199348
0.508322535632413,-19.884617940199348
0.5093192464865942,-17.884617940199348
0.5103159573407754,-12.884617940199348
0.5113126681949566,0.11538205980065186
0.5123093790491378,8.115382059800652
0.513306089903319,23.115382059800652
0.5143028007575002,10.115382059800652
0.5152995116116814,12.115382059800652
0.5162962224658626,29.115382059800652
0.5172929333200438,31.115382059800652
0.518289644174225,7.115382059800652
0.5192863550284063,-8.884617940199348
0.5202830658825874,12.115382059800652
0.5212797767367686,0.11538205980065186
0.5222764875909498,-13.884617940199348
0.523273198445131,-11.884617940199348
0.5242699092993123,-10.884617940199348
0.5252666201534935,-11.884617940199348
0.5262633310076746,-12.884617940199348
0.5272600418618558,-19.884617940199348
0.528256752716037,-22.884617940199348
0.5292534635702182,-23.884617940199348
0.5302501744243995,-15.884617940199348
0.5312468852785807,1.1153820598006519
0.5322435961327618,15.115382059800652
0.533240306986943,23.115382059800652
0.5342370178411242,32.11538205980065
0.5352337286953054,27.115382059800652
0.5362304395494867,21.115382059800652
0.5372271504036679,6.115382059800652
0.538223861257849,13.115382059800652
0.5392205721120302,6.115382059800652
0.5402172829662114,-2.884617940199348
0.5412139938203927,4.115382059800652
0.5422107046745739,7.115382059800652
0.5432074155287551,1.1153820598006519
0.5442041263829362,-3.884617940199348
0.5452008372371174,-23.884617940199348
0.5461975480912986,-44.88461794019935
0.5471942589454799,-30.884617940199348
0.5481909697996611,-15.884617940199348
0.5491876806538423,-10.884617940199348
0.5501843915080235,-14.884617940199348
0.5511811023622046,-5.884617940199348
0.5521778132163859,12.115382059800652
0.5531745240705671,29.115382059800652
0.5541712349247483,44.11538205980065
0.5551679457789295,34.11538205980065
0.5561646566331107,22.115382059800652
0.5571613674872918,9.115382059800652
0.5581580783414731,4.115382059800652
0.5591547891956543,6.115382059800652
0.5601515000498355,-1.8846179401993481
0.5611482109040167,-10.884617940199348
0.5621449217581979,-11.884617940199348
0.5631416326123792,-7.884617940199348
0.5641383434665603,-14.884617940199348
0.5651350543207415,-17.884617940199348
0.5661317651749227,-19.884617940199348
0.5671284760291039,-21.884617940199348
0.5681251868832851,-20.884617940199348
0.5691218977374664,-17.884617940199348
0.5701186085916475,-4.884617940199348
0.5711153194458287,0.11538205980065186
0.5721120303000099,-1.8846179401993481
0.5731087411541911,16.115382059800652
0.5741054520083724,29.115382059800652
0.5751021628625536,43.11538205980065
0.5760988737167347,34.11538205980065
0.5770955845709159,16.115382059800652
0.5780922954250971,1.1153820598006519
0.5790890062792783,2.115382059800652
0.5800857171334596,-3.884617940199348
0.5810824279876408,-13.884617940199348
0.5820791388418219,-9.884617940199348
0.5830758496960031,-11.884617940199348
0.5840725605501843,-9.884617940199348
0.5850692714043655,-6.884617940199348
0.5860659822585468,-9.884617940199348
0.587062693112728,-15.884617940199348
0.5880594039669091,-22.884617940199348
0.5890561148210903,-24.884617940199348
0.5900528256752715,-17.884617940199348
0.5910495365294528,0.11538205980065186
0.592046247383634,4.115382059800652
0.5930429582378152,14.115382059800652
0.5940396690919963,13.115382059800652
0.5950363799461775,29.115382059800652
0.5960330908003587,47.11538205980065
0.59702980165454,37.11538205980065
0.5980265125087212,15.115382059800652
0.5990232233629024,0.11538205980065186
0.6000199342170836,-6.884617940199348
0.6010166450712647,-9.884617940199348
0.602013355925446,-8.884617940199348
0.6030100667796272,-10.884617940199348
0.6040067776338084,-22.884617940199348
0.6050034884879896,-21.884617940199348
0.6060001993421708,-13.884617940199348
0.6069969101963519,-10.884617940199348
0.6079936210505332,-6.884617940199348
0.6089903319047144,-9.884617940199348
0.6099870427588956,-5.884617940199348
0.6109837536130768,3.115382059800652
0.611980464467258,13.115382059800652
0.6129771753214392,17.115382059800652
0.6139738861756204,19.115382059800652
0.6149705970298016,19.115382059800652
0.6159673078839828,21.115382059800652
0.616964018738164,21.115382059800652
0.6179607295923452,7.115382059800652
0.6189574404465265,-2.884617940199348
0.6199541513007076,-2.884617940199348
0.6209508621548888,-6.884617940199348
0.62194757300907,-9.884617940199348
0.6229442838632512,-10.884617940199348
0.6239409947174324,-15.884617940199348
0.6249377055716137,-25.884617940199348
0.6259344164257948,-18.884617940199348
0.626931127279976,-10.884617940199348
0.6279278381341572,0.11538205980065186
0.6289245489883384,-4.884617940199348
0.6299212598425197,-11.884617940199348
0.6309179706967009,-8.884617940199348
0.631914681550882,-1.8846179401993481
0.6329113924050632,11.115382059800652
0.6339081032592444,17.115382059800652
0.6349048141134256,15.115382059800652
0.6359015249676069,15.115382059800652
0.6368982358217881,18.115382059800652
0.6378949466759692,23.115382059800652
0.6388916575301504,28.115382059800652
0.6398883683843316,14.115382059800652
0.6408850792385129,1.1153820598006519
0.6418817900926941,-10.884617940199348
0.6428785009468753,-19.884617940199348
0.6438752118010564,-27.884617940199348
0.6448719226552376,-28.884617940199348
0.6458686335094188,-22.884617940199348
0.6468653443636001,-22.884617940199348
0.6478620552177813,-12.884617940199348
0.6488587660719625,5.115382059800652
0.6498554769261436,12.115382059800652
0.6508521877803248,11.115382059800652
0.6518488986345061,10.115382059800652
0.6528456094886873,18.115382059800652
0.6538423203428685,18.115382059800652
0.6548390311970497,9.115382059800652
0.6558357420512309,6.115382059800652
0.656832452905412,11.115382059800652
0.6578291637595933,7.115382059800652
0.6588258746137745,-0.8846179401993481
0.6598225854679557,7.115382059800652
0.6608192963221369,4.115382059800652
0.661816007176318,-22.884617940199348
0.6628127180304992,-27.884617940199348
0.6638094288846805,-17.884617940199348
0.6648061397388617,-3.884617940199348
0.6658028505930429,-3.884617940199348
0.6667995614472241,-5.884617940199348
0.6677962723014053,-5.884617940199348
0.6687929831555866,-9.884617940199348
0.6697896940097677,-4.884617940199348
0.6707864048639489,4.115382059800652
0.6717831157181301,6.115382059800652
0.6727798265723113,8.115382059800652
0.6737765374264925,19.115382059800652
0.6747732482806738,22.115382059800652
0.6757699591348549,24.115382059800652
0.6767666699890361,20.115382059800652
0.6777633808432173,9.115382059800652
0.6787600916973985,-2.884617940199348
0.6797568025515798,-6.884617940199348
0.680753513405761,-11.884617940199348
0.6817502242599421,1.1153820598006519
0.6827469351141233,-0.8846179401993481
0.6837436459683045,-21.884617940199348
0.6847403568224857,-35.88461794019935
0.685737067676667,-25.884617940199348
0.6867337785308482,-7.884617940199348
0.6877304893850293,-2.884617940199348
0.6887272002392105,-9.884617940199348
0.6897239110933917,-11.884617940199348
0.690720621947573,1.1153820598006519
0.6917173328017542,17.115382059800652
0.6927140436559354,20.115382059800652
0.6937107545101165,20.115382059800652
0.6947074653642977,20.115382059800652
0.6957041762184789,21.115382059800652
0.6967008870726602,8.115382059800652
0.6976975979268414,5.115382059800652
0.6986943087810226,-1.8846179401993481
0.6996910196352037,-1.8846179401993481
0.7006877304893849,0.11538205980065186
0.7016844413435661,-13.884617940199348
0.7026811521977474,-13.884617940199348
0.7036778630519286,-11.884617940199348
0.7046745739061098,-12.884617940199348
0.705671284760291,-12.884617940199348
0.7066679956144721,-10.884617940199348
0.7076647064686534,-2.884617940199348
0.7086614173228346,-7.884617940199348
0.7096581281770158,-3.884617940199348
0.710654839031197,3.115382059800652
0.7116515498853782,12.115382059800652
0.7126482607395593,15.115382059800652
0.7136449715937406,12.115382059800652
0.7146416824479218,16.115382059800652
0.715638393302103,25.115382059800652
0.7166351041562842,21.115382059800652
0.7176318150104654,12.115382059800652
0.7186285258646467,7.115382059800652
0.7196252367188278,-2.884617940199348
0.720621947573009,-11.884617940199348
0.7216186584271902,-14.884617940199348
0.7226153692813714,-10.884617940199348
0.7236120801355526,-20.884617940199348
0.7246087909897339,-26.884617940199348
0.725605501843915,-26.884617940199348
0.7266022126980962,-21.884617940199348
0.7275989235522774,-11.884617940199348
0.7285956344064586,1.1153820598006519
0.7295923452606399,16.115382059800652
0.7305890561148211,24.115382059800652
0.7315857669690022,17.115382059800652
0.7325824778231834,18.115382059800652
0.7335791886773646,24.115382059800652
0.7345758995315458,25.115382059800652
0.7355726103857271,14.115382059800652
0.7365693212399083,-0.8846179401993481
0.7375660320940894,-2.884617940199348
0.7385627429482706,3.115382059800652
0.7395594538024518,3.115382059800652
0.7405561646566331,-13.884617940199348
0.7415528755108143,-19.884617940199348
0.7425495863649955,-11.884617940199348
0.7435462972191766,-9.884617940199348
0.7445430080733578,-8.884617940199348
0.745539718927539,-3.884617940199348
0.7465364297817203,0.11538205980065186
0.7475331406359015,-1.8846179401993481
0.7485298514900827,-7.884617940199348
0.7495265623442638,-9.884617940199348
0.750523273198445,-2.884617940199348
0.7515199840526262,3.115382059800652
0.7525166949068075,12.115382059800652
0.7535134057609887,18.115382059800652
0.7545101166151699,17.115382059800652
0.755506827469351,15.115382059800652
0.7565035383235322,8.115382059800652
0.7575002491777135,12.115382059800652
0.7584969600318947,1.1153820598006519
0.7594936708860759,1.1153820598006519
0.7604903817402571,4.115382059800652
0.7614870925944383,-2.884617940199348
0.7624838034486194,-12.884617940199348
0.7634805143028007,-24.884617940199348
0.7644772251569819,-15.884617940199348
0.7654739360111631,-15.884617940199348
0.7664706468653443,-12.884617940199348
0.7674673577195255,-11.884617940199348
0.7684640685737067,-9.884617940199348
0.7694607794278879,-13.884617940199348
0.7704574902820691,0.11538205980065186
0.7714542011362503,2.115382059800652
0.7724509119904315,12.115382059800652
0.7734476228446127,14.115382059800652
0.774444333698794,24.115382059800652
0.7754410445529751,26.115382059800652
0.7764377554071563,17.115382059800652
0.7774344662613375,18.115382059800652
0.7784311771155187,5.115382059800652
0.7794278879697,-4.884617940199348
0.7804245988238812,-1.8846179401993481
0.7814213096780623,0.11538205980065186
0.7824180205322435,-2.884617940199348
0.7834147313864247,-5.884617940199348
0.7844114422406059,-19.884617940199348
0.7854081530947872,-24.884617940199348
0.7864048639489684,-24.884617940199348
0.7874015748031495,-18.884617940199348
0.7883982856573307,-6.884617940199348
0.7893949965115119,5.115382059800652
0.7903917073656931,8.115382059800652
0.7913884182198744,15.115382059800652
0.7923851290740556,21.115382059800652
0.7933818399282367,14.115382059800652
0.7943785507824179,13.115382059800652
0.7953752616365991,14.115382059800652
0.7963719724907804,18.115382059800652
0.7973686833449616,14.115382059800652
0.7983653941991428,-3.884617940199348
0.799362105053324,-10.884617940199348
0.8003588159075051,-9.884617940199348
0.8013555267616863,-15.884617940199348
0.8023522376158676,-12.884617940199348
0.8033489484700488,-19.884617940199348
0.80434565932423,-18.884617940199348
0.8053423701784111,-16.884617940199348
0.8063390810325923,-10.884617940199348
0.8073357918867736,-4.884617940199348
0.8083325027409548,-4.884617940199348
0.809329213595136,1.1153820598006519
0.8103259244493172,5.115382059800652
0.8113226353034984,4.115382059800652
0.8123193461576795,12.115382059800652
0.8133160570118608,25.115382059800652
0.814312767866042,24.115382059800652
0.8153094787202232,20.115382059800652
0.8163061895744044,8.115382059800652
0.8173029004285856,10.115382059800652
0.8182996112827668,6.115382059800652
0.819296322136948,-1.8846179401993481
0.8202930329911292,-4.884617940199348
0.8212897438453104,-6.884617940199348
0.8222864546994916,-6.884617940199348
0.8232831655536728,-17.884617940199348
0.824279876407854,-19.884617940199348
0.8252765872620352,-20.884617940199348
0.8262732981162164,-13.884617940199348
0.8272700089703976,-0.8846179401993481
0.8282667198245788,-4.884617940199348
0.8292634306787601,-6.884617940199348
0.8302601415329413,1.1153820598006519
0.8312568523871224,9.115382059800652
0.8322535632413036,17.115382059800652
0.8332502740954848,18.115382059800652
0.834246984949666,12.115382059800652
0.8352436958038473,14.115382059800652
0.8362404066580285,17.115382059800652
0.8372371175122096,12.115382059800652
0.8382338283663908,8.115382059800652
0.839230539220572,7.115382059800652
0.8402272500747532,-7.884617940199348
0.8412239609289345,-16.884617940199348
0.8422206717831157,-1.8846179401993481
0.8432173826372968,2.115382059800652
0.844214093491478,-5.884617940199348
0.8452108043456592,-14.884617940199348
0.8462075151998405,-25.884617940199348
0.8472042260540217,-21.884617940199348
0.8482009369082029,-11.884617940199348
0.849197647762384,-12.884617940199348
0.8501943586165652,5.115382059800652
0.8511910694707464,17.115382059800652
0.8521877803249277,14.115382059800652
0.8531844911791089,13.115382059800652
0.8541812020332901,18.115382059800652
0.8551779128874712,20.115382059800652
0.8561746237416524,17.115382059800652
0.8571713345958337,11.115382059800652
0.8581680454500149,5.115382059800652
0.8591647563041961,-9.884617940199348
0.8601614671583773,-1.8846179401993481
0.8611581780125585,-5.884617940199348
0.8621548888667396,-11.884617940199348
0.8631515997209209,-24.884617940199348
0.8641483105751021,-18.884617940199348
0.8651450214292833,-7.884617940199348
0.8661417322834645,-7.884617940199348
0.8671384431376457,-12.884617940199348
0.868135153991827,-12.884617940199348
0.8691318648460081,-1.8846179401993481
0.8701285757001893,-0.8846179401993481
0.8711252865543705,5.115382059800652
0.8721219974085517,22.115382059800652
0.8731187082627329,17.115382059800652
0.8741154191169141,20.115382059800652
0.8751121299710953,24.115382059800652
0.8761088408252765,3.115382059800652
0.8771055516794577,7.115382059800652
0.8781022625336389,7.115382059800652
0.8790989733878201,5.115382059800652
0.8800956842420014,0.11538205980065186
0.8810923950961825,-10.884617940199348
0.8820891059503637,-14.884617940199348
0.8830858168045449,-22.884617940199348
0.8840825276587261,-27.884617940199348
0.8850792385129074,-24.884617940199348
0.8860759493670886,3.115382059800652
0.8870726602212697,-13.884617940199348
0.8880693710754509,-10.884617940199348
0.8890660819296321,5.115382059800652
0.8900627927838133,17.115382059800652
0.8910595036379946,17.115382059800652
0.8920562144921758,14.115382059800652
0.8930529253463569,7.115382059800652
0.8940496362005381,10.115382059800652
0.8950463470547193,11.115382059800652
0.8960430579089006,19.115382059800652
0.8970397687630818,14.115382059800652
0.898036479617263,4.115382059800652
0.8990331904714441,-5.884617940199348
0.9000299013256253,-2.884617940199348
0.9010266121798065,-14.884617940199348
0.9020233230339878,-14.884617940199348
0.903020033888169,-9.884617940199348
0.9040167447423502,-11.884617940199348
0.9050134555965313,-10.884617940199348
0.9060101664507125,-17.884617940199348
0.9070068773048938,-36.88461794019935
0.908003588159075,-33.88461794019935
0.9090002990132562,2.115382059800652
0.9099970098674374,13.115382059800652
0.9109937207216185,17.115382059800652
0.9119904315757997,29.115382059800652
0.912987142429981,24.115382059800652
0.9139838532841622,20.115382059800652
0.9149805641383434,26.115382059800652
0.9159772749925246,24.115382059800652
0.9169739858467058,19.115382059800652
0.9179706967008869,5.115382059800652
0.9189674075550682,-2.884617940199348
0.9199641184092494,-1.8846179401993481
0.9209608292634306,-10.884617940199348
0.9219575401176118,-25.884617940199348
0.922954250971793,-26.884617940199348
0.9239509618259742,-23.884617940199348
0.9249476726801554,-19.884617940199348
0.9259443835343366,-15.884617940199348
0.9269410943885178,-11.884617940199348
0.927937805242699,-10.884617940199348
0.9289345160968802,-2.884617940199348
0.9299312269510615,7.115382059800652
0.9309279378052426,9.115382059800652
0.9319246486594238,12.115382059800652
0.932921359513605,15.115382059800652
0.9339180703677862,8.115382059800652
0.9349147812219675,9.115382059800652
0.9359114920761487,16.115382059800652
0.9369082029303298,16.115382059800652
0.937904913784511,12.115382059800652
0.9389016246386922,14.115382059800652
0.9398983354928734,-7.884617940199348
0.9408950463470547,-12.884617940199348
0.9418917572012359,-4.884617940199348
0.942888468055417,0.11538205980065186
0.9438851789095982,-14.884617940199348
0.9448818897637794,-24.884617940199348
0.9458786006179607,-14.884617940199348
0.9468753114721419,-14.884617940199348
0.9478720223263231,-27.884617940199348
0.9488687331805042,-30.884617940199348
0.9498654440346854,22.115382059800652
0.9508621548888666,52.11538205980065
0.9518588657430479,29.115382059800652
0.9528555765972291,10.115382059800652
0.9538522874514103,0.11538205980065186
0.9548489983055914,9.115382059800652
0.9558457091597726,20.115382059800652
0.9568424200139538,26.115382059800652
0.9578391308681351,11.115382059800652
0.9588358417223163,1.1153820598006519
0.9598325525764975,-6.884617940199348
0.9608292634306786,-28.884617940199348
0.9618259742848598,-28.884617940199348
0.9628226851390411,-23.884617940199348
0.9638193959932223,-9.884617940199348
0.9648161068474035,-4.884617940199348
0.9658128177015847,-2.884617940199348
0.9668095285557659,-12.884617940199348
0.967806239409947,-14.884617940199348
0.9688029502641283,6.115382059800652
0.9697996611183095,18.115382059800652
0.9707963719724907,-2.884617940199348
0.9717930828266719,9.115382059800652
0.972789793680853,4.115382059800652
0.9737865045350343,9.115382059800652
0.9747832153892155,25.115382059800652
0.9757799262433967,31.115382059800652
0.9767766370975779,20.115382059800652
0.9777733479517591,-3.884617940199348
0.9787700588059403,-10.884617940199348
0.9797667696601216,-1.8846179401993481
0.9807634805143027,-12.884617940199348
0.9817601913684839,-16.884617940199348
0.9827569022226651,-15.884617940199348
0.9837536130768463,-15.884617940199348
0.9847503239310276,-18.884617940199348
0.9857470347852088,-19.884617940199348
0.9867437456393899,-11.884617940199348
0.9877404564935711,-5.884617940199348
0.9887371673477523,-0.8846179401993481
0.9897338782019335,10.115382059800652
0.9907305890561148,8.115382059800652
0.991727299910296,11.115382059800652
0.9927240107644771,16.115382059800652
0.9937207216186583,17.115382059800652
0.9947174324728395,11.115382059800652
0.9957141433270208,11.115382059800652
0.996710854181202,8.115382059800652
0.9977075650353832,7.115382059800652
0.9987042758895643,-3.884617940199348
0.9997009867437455,0.11538205980065186
1.0006976975979267,3.115382059800652
1.001694408452108,-12.884617940199348
1.002691119306289,-29.884617940199348
1.0036878301604704,-16.884617940199348
1.0046845410146517,-17.884617940199348
1.0056812518688327,-15.884617940199348
1.006677962723014,0.11538205980065186
1.007674673577195,-1.8846179401993481
1.0086713844313764,3.115382059800652
1.0096680952855577,13.115382059800652
1.0106648061397387,19.115382059800652
1.01166151699392,30.115382059800652
1.0126582278481011,20.115382059800652
1.0136549387022824,6.115382059800652
1.0146516495564635,3.115382059800652
1.0156483604106448,0.11538205980065186
1.016645071264826,5.115382059800652
1.0176417821190071,10.115382059800652
1.0186384929731884,6.115382059800652
1.0196352038273695,-7.884617940199348
1.0206319146815508,-4.884617940199348
1.021628625535732,-5.884617940199348
1.0226253363899132,-9.884617940199348
1.0236220472440944,-16.884617940199348
1.0246187580982755,-21.884617940199348
1.0256154689524568,-34.88461794019935
1.026612179806638,-21.884617940199348
1.0276088906608192,-11.884617940199348
1.0286056015150005,-3.884617940199348
1.0296023123691815,13.115382059800652
1.0305990232233628,20.115382059800652
1.031595734077544,28.115382059800652
1.0325924449317252,25.115382059800652
1.0335891557859065,22.115382059800652
1.0345858666400876,16.115382059800652
1.0355825774942689,12.115382059800652
1.03657928834845,8.115382059800652
1.0375759992026312,9.115382059800652
1.0385727100568125,2.115382059800652
1.0395694209109936,-7.884617940199348
1.0405661317651749,-12.884617940199348
1.041562842619356,-18.884617940199348
1.0425595534735372,-18.884617940199348
1.0435562643277185,-23.884617940199348
1.0445529751818996,-12.884617940199348
1.045549686036081,-8.884617940199348
1.046546396890262,-18.884617940199348
1.0475431077444433,-12.884617940199348
1.0485398185986246,-2.884617940199348
1.0495365294528056,6.115382059800652
1.050533240306987,7.115382059800652
1.051529951161168,17.115382059800652
1.0525266620153493,18.115382059800652
1.0535233728695304,19.115382059800652
1.0545200837237116,14.115382059800652
1.055516794577893,11.115382059800652
1.056513505432074,12.115382059800652
1.0575102162862553,15.115382059800652
1.0585069271404364,4.115382059800652
1.0595036379946177,-1.8846179401993481
1.060500348848799,-9.884617940199348
1.06149705970298,-13.884617940199348
1.0624937705571613,-23.884617940199348
1.0634904814113424,-22.884617940199348
1.0644871922655237,-18.884617940199348
1.065483903119705,-18.884617940199348
1.066480613973886,-17.884617940199348
1.0674773248280673,-8.884617940199348
1.0684740356822484,0.11538205980065186
1.0694707465364297,8.115382059800652
1.0704674573906108,13.115382059800652
1.071464168244792,17.115382059800652
1.0724608790989734,15.115382059800652
1.0734575899531544,14.115382059800652
1.0744543008073357,21.115382059800652
1.0754510116615168,24.115382059800652
1.076447722515698,19.115382059800652
1.0774444333698794,8.115382059800652
1.0784411442240605,4.115382059800652
1.0794378550782417,-4.884617940199348
1.0804345659324228,-14.884617940199348
1.0814312767866041,-20.884617940199348
1.0824279876407854,-31.884617940199348
1.0834246984949665,-32.88461794019935
1.0844214093491478,-19.884617940199348
1.0854181202033288,-16.884617940199348
1.0864148310575101,-12.884617940199348
1.0874115419116914,-10.884617940199348
1.0884082527658725,1.1153820598006519
1.0894049636200538,14.115382059800652
1.0904016744742349,28.115382059800652
1.0913983853284162,24.115382059800652
1.0923950961825972,27.115382059800652
1.0933918070367785,21.115382059800652
1.0943885178909598,12.115382059800652
1.0953852287451409,17.115382059800652
1.0963819395993222,12.115382059800652
1.0973786504535032,1.1153820598006519
1.0983753613076845,-4.884617940199348
1.0993720721618658,-7.884617940199348
1.100368783016047,-22.884617940199348
1.1013654938702282,-18.884617940199348
1.1023622047244093,-7.884617940199348
1.1033589155785906,-9.884617940199348
1.1043556264327719,-16.884617940199348
1.105352337286953,-14.884617940199348
1.1063490481411342,-1.8846179401993481
1.1073457589953153,-5.884617940199348
1.1083424698494966,-7.884617940199348
1.1093391807036777,5.115382059800652
1.110335891557859,24.115382059800652
1.1113326024120402,27.115382059800652
1.1123293132662213,8.115382059800652
1.1133260241204026,12.115382059800652
1.1143227349745837,6.115382059800652
1.115319445828765,5.115382059800652
1.1163161566829463,9.115382059800652
1.1173128675371273,15.115382059800652
1.1183095783913086,11.115382059800652
1.1193062892454897,-1.8846179401993481
1.120303000099671,-18.884617940199348
1.1212997109538523,-19.884617940199348
1.1222964218080334,-15.884617940199348
1.1232931326622146,-24.884617940199348
1.1242898435163957,-24.884617940199348
1.125286554370577,-23.884617940199348
1.1262832652247583,-19.884617940199348
1.1272799760789394,4.115382059800652
1.1282766869331207,15.115382059800652
1.1292733977873017,10.115382059800652
1.130270108641483,1.1153820598006519
1.131266819495664,22.115382059800652
1.1322635303498454,18.115382059800652
1.1332602412040267,22.115382059800652
1.1342569520582078,21.115382059800652
1.135253662912389,23.115382059800652
1.1362503737665701,5.115382059800652
1.1372470846207514,1.1153820598006519
1.1382437954749327,-1.8846179401993481
1.1392405063291138,-10.884617940199348
1.140237217183295,-18.884617940199348
1.1412339280374761,-14.884617940199348
1.1422306388916574,-17.884617940199348
1.1432273497458387,-14.884617940199348
1.1442240606000198,-10.884617940199348
1.145220771454201,-12.884617940199348
1.1462174823083822,-6.884617940199348
1.1472141931625635,-7.884617940199348
1.1482109040167447,-4.884617940199348
1.1492076148709258,2.115382059800652
1.1502043257251071,12.115382059800652
1.1512010365792882,16.115382059800652
1.1521977474334695,13.115382059800652
1.1531944582876505,15.115382059800652
1.1541911691418318,17.115382059800652
1.1551878799960131,12.115382059800652
1.1561845908501942,15.115382059800652
1.1571813017043755,4.115382059800652
1.1581780125585566,-3.884617940199348
1.1591747234127379,-6.884617940199348
1.1601714342669192,-10.884617940199348
1.1611681451211002,-17.884617940199348
1.1621648559752815,-17.884617940199348
1.1631615668294626,-13.884617940199348
1.1641582776836439,-2.884617940199348
1.1651549885378252,-5.884617940199348
1.1661516993920062,-8.884617940199348
1.1671484102461875,-2.884617940199348
1.1681451211003686,-3.884617940199348
1.16914183195455,1.1153820598006519
1.170138542808731,5.115382059800652
1.1711352536629123,10.115382059800652
1.1721319645170936,10.115382059800652
1.1731286753712746,11.115382059800652
1.174125386225456,16.115382059800652
1.175122097079637,16.115382059800652
1.1761188079338183,7.115382059800652
1.1771155187879996,7.115382059800652
1.1781122296421807,2.115382059800652
1.179108940496362,5.115382059800652
1.180105651350543,-0.8846179401993481
1.1811023622047243,-13.884617940199348
1.1820990730589056,-17.884617940199348
1.1830957839130867,-23.884617940199348
1.184092494767268,-24.884617940199348
1.185089205621449,-23.884617940199348
1.1860859164756303,-14.884617940199348
1.1870826273298116,-7.884617940199348
1.1880793381839927,-17.884617940199348
1.189076049038174,-1.8846179401993481
1.190072759892355,47.11538205980065
1.1910694707465364,43.11538205980065
1.1920661816007174,20.115382059800652
1.1930628924548987,16.115382059800652
1.19405960330908,17.115382059800652
1.195056314163261,20.115382059800652
1.1960530250174424,16.115382059800652
1.1970497358716234,5.115382059800652
1.1980464467258047,0.11538205980065186
1.199043157579986,-8.884617940199348
1.200039868434167,-20.884617940199348
1.2010365792883484,-26.884617940199348
1.2020332901425295,-25.884617940199348
1.2030300009967108,-29.884617940199348
1.204026711850892,-20.884617940199348
1.2050234227050731,-11.884617940199348
1.2060201335592544,-4.884617940199348
1.2070168444134355,0.11538205980065186
1.2080135552676168,9.115382059800652
1.2090102661217978,19.115382059800652
1.2100069769759791,19.115382059800652
1.2110036878301604,7.115382059800652
1.2120003986843415,6.115382059800652
1.2129971095385228,13.115382059800652
1.2139938203927039,8.115382059800652
1.2149905312468852,6.115382059800652
1.2159872421010665,3.115382059800652
1.2169839529552475,18.115382059800652
1.2179806638094288,11.115382059800652
1.21897737466361,-0.8846179401993481
1.2199740855177912,15.115382059800652
1.2209707963719725,9.115382059800652
1.2219675072261535,-21.884617940199348
1.2229642180803348,-42.88461794019935
1.223960928934516,-37.88461794019935
1.2249576397886972,-32.88461794019935
1.2259543506428785,-14.884617940199348
1.2269510614970596,0.11538205980065186
1.2279477723512409,4.115382059800652
1.228944483205422,14.115382059800652
1.2299411940596032,17.115382059800652
1.2309379049137843,19.115382059800652
1.2319346157679656,20.115382059800652
1.2329313266221469,16.115382059800652
1.233928037476328,14.115382059800652
1.2349247483305092,9.115382059800652
1.2359214591846903,7.115382059800652
1.2369181700388716,1.1153820598006519
1.237914880893053,-4.884617940199348
1.238911591747234,-17.884617940199348
1.2399083026014153,-24.884617940199348
1.2409050134555963,-11.884617940199348
1.2419017243097776,0.11538205980065186
1.242898435163959,-4.884617940199348
1.24389514601814,-7.884617940199348
1.2448918568723213,-7.884617940199348
1.2458885677265024,-17.884617940199348
1.2468852785806837,-23.884617940199348
1.2478819894348647,-12.884617940199348
1.248878700289046,13.115382059800652
1.2498754111432273,16.115382059800652
1.2508721219974084,30.115382059800652
1.2518688328515897,28.115382059800652
1.2528655437057707,24.115382059800652
1.253862254559952,11.115382059800652
1.2548589654141333,2.115382059800652
1.2558556762683144,8.115382059800652
1.2568523871224957,3.115382059800652
1.2578490979766768,3.115382059800652
1.258845808830858,-7.884617940199348
1.2598425196850394,-27.884617940199348
1.2608392305392204,-22.884617940199348
1.2618359413934017,-22.884617940199348
1.2628326522475828,-32.88461794019935
1.263829363101764,-30.884617940199348
1.2648260739559454,-14.884617940199348
1.2658227848101264,12.115382059800652
1.2668194956643077,15.115382059800652
1.2678162065184888,18.115382059800652
1.26881291737267,18.115382059800652
1.2698096282268512,5.115382059800652
1.2708063390810325,0.11538205980065186
1.2718030499352138,-10.884617940199348
1.2727997607893948,11.115382059800652
1.2737964716435761,37.11538205980065
1.2747931824977572,32.11538205980065
1.2757898933519385,12.115382059800652
1.2767866042061198,-9.884617940199348
1.2777833150603009,4.115382059800652
1.2787800259144821,2.115382059800652
1.2797767367686632,-7.884617940199348
1.2807734476228445,-19.884617940199348
1.2817701584770258,-2.884617940199348
1.2827668693312069,15.115382059800652
1.2837635801853882,-6.884617940199348
1.2847602910395692,-20.884617940199348
1.2857570018937505,-15.884617940199348
1.2867537127479316,-19.884617940199348
1.287750423602113,-19.884617940199348
1.2887471344562942,-7.884617940199348
1.2897438453104753,12.115382059800652
1.2907405561646565,16.115382059800652
1.2917372670188376,16.115382059800652
1.292733977873019,20.115382059800652
1.2937306887272002,20.115382059800652
1.2947273995813813,11.115382059800652
1.2957241104355626,17.115382059800652
1.2967208212897436,30.115382059800652
1.297717532143925,24.115382059800652
1.2987142429981062,-8.884617940199348
1.2997109538522873,-37.88461794019935
1.3007076647064686,-46.88461794019935
1.3017043755606497,-44.88461794019935
1.302701086414831,-14.884617940199348
1.3036977972690122,-21.884617940199348
1.3046945081231933,-22.884617940199348
1.3056912189773746,0.11538205980065186
1.3066879298315557,1.1153820598006519
1.307684640685737,6.115382059800652
1.308681351539918,19.115382059800652
1.3096780623940993,21.115382059800652
1.3106747732482806,17.115382059800652
1.3116714841024617,14.115382059800652
1.312668194956643,13.115382059800652
1.313664905810824,13.115382059800652
1.3146616166650054,12.115382059800652
1.3156583275191867,16.115382059800652
1.3166550383733677,13.115382059800652
1.317651749227549,-3.884617940199348
1.31864846008173,-5.884617940199348
1.3196451709359114,-12.884617940199348
1.3206418817900927,-13.884617940199348
1.3216385926442737,-10.884617940199348
1.322635303498455,-19.884617940199348
1.323632014352636,-23.884617940199348
1.3246287252068174,-21.884617940199348
1.3256254360609985,-15.884617940199348
1.3266221469151798,-10.884617940199348
1.327618857769361,-4.884617940199348
1.3286155686235421,11.115382059800652
1.3296122794777234,20.115382059800652
1.3306089903319045,22.115382059800652
1.3316057011860858,31.115382059800652
1.332602412040267,27.115382059800652
1.3335991228944482,13.115382059800652
1.3345958337486294,3.115382059800652
1.3355925446028105,9.115382059800652
1.3365892554569918,10.115382059800652
1.337585966311173,5.115382059800652
1.3385826771653542,-12.884617940199348
1.3395793880195355,-19.884617940199348
1.3405760988737165,-24.884617940199348
1.3415728097278978,-25.884617940199348
1.3425695205820791,-28.884617940199348
1.3435662314362602,-19.884617940199348
1.3445629422904415,-17.884617940199348
1.3455596531446226,-4.884617940199348
1.3465563639988039,-1.8846179401993481
1.347553074852985,9.115382059800652
1.3485497857071662,19.115382059800652
1.3495464965613475,23.115382059800652
1.3505432074155286,19.115382059800652
1.3515399182697099,7.115382059800652
1.352536629123891,9.115382059800652
1.3535333399780722,19.115382059800652
1.3545300508322535,14.115382059800652
1.3555267616864346,12.115382059800652
1.356523472540616,9.115382059800652
1.357520183394797,-1.8846179401993481
1.3585168942489783,-2.884617940199348
1.3595136051031596,-15.884617940199348
1.3605103159573406,-22.884617940199348
1.361507026811522,-24.884617940199348
1.362503737665703,-34.88461794019935
1.3635004485198843,-17.884617940199348
1.3644971593740653,-16.884617940199348
1.3654938702282466,-21.884617940199348
1.366490581082428,2.115382059800652
1.367487291936609,16.115382059800652
1.3684840027907903,19.115382059800652
1.3694807136449714,13.115382059800652
1.3704774244991527,11.115382059800652
1.371474135353334,9.115382059800652
1.372470846207515,24.115382059800652
1.3734675570616963,28.115382059800652
1.3744642679158774,16.115382059800652
1.3754609787700587,9.115382059800652
1.37645768962424,1.1153820598006519
1.377454400478421,-7.884617940199348
1.3784511113326023,-19.884617940199348
1.3794478221867834,-25.884617940199348
1.3804445330409647,-14.884617940199348
1.381441243895146,1.1153820598006519
1.382437954749327,-9.884617940199348
1.3834346656035084,-22.884617940199348
1.3844313764576894,-27.884617940199348
1.3854280873118707,-11.884617940199348
1.3864247981660518,5.115382059800652
1.387421509020233,8.115382059800652
1.3884182198744144,4.115382059800652
1.3894149307285955,5.115382059800652
1.3904116415827767,16.115382059800652
1.3914083524369578,12.115382059800652
1.3924050632911391,6.115382059800652
1.3934017741453204,15.115382059800652
1.3943984849995015,25.115382059800652
1.3953951958536828,20.115382059800652
1.3963919067078638,11.115382059800652
1.3973886175620451,14.115382059800652
1.3983853284162264,11.115382059800652
1.3993820392704075,-1.8846179401993481
1.4003787501245888,-16.884617940199348
1.4013754609787699,-29.884617940199348
1.4023721718329512,-25.884617940199348
1.4033688826871322,-20.884617940199348
1.4043655935413135,-19.884617940199348
1.4053623043954948,-18.884617940199348
1.4063590152496759,-12.884617940199348
1.4073557261038572,-5.884617940199348
1.4083524369580382,-8.884617940199348
1.4093491478122195,7.115382059800652
1.4103458586664008,23.115382059800652
1.411342569520582,36.11538205980065
1.4123392803747632,44.11538205980065
1.4133359912289443,24.115382059800652
1.4143327020831256,5.115382059800652
1.4153294129373069,1.1153820598006519
1.416326123791488,17.115382059800652
1.4173228346456692,8.115382059800652
1.4183195454998503,3.115382059800652
1.4193162563540316,-5.884617940199348
1.4203129672082129,-25.884617940199348
1.421309678062394,-36.88461794019935
1.4223063889165752,-35.88461794019935
1.4233030997707563,-30.884617940199348
1.4242998106249376,-27.884617940199348
1.4252965214791187,-9.884617940199348
1.4262932323333,-4.884617940199348
1.4272899431874813,-4.884617940199348
1.4282866540416623,5.115382059800652
1.4292833648958436,35.11538205980065
1.4302800757500247,40.11538205980065
1.431276786604206,21.115382059800652
1.4322734974583873,12.115382059800652
1.4332702083125684,13.115382059800652
1.4342669191667496,22.115382059800652
1.4352636300209307,6.115382059800652
1.436260340875112,-7.884617940199348
1.4372570517292933,-6.884617940199348
1.4382537625834744,-9.884617940199348
1.4392504734376557,-9.884617940199348
1.4402471842918367,-24.884617940199348
1.441243895146018,-31.884617940199348
1.4422406060001993,-24.884617940199348
1.4432373168543804,-15.884617940199348
1.4442340277085617,-9.884617940199348
1.4452307385627428,14.115382059800652
1.446227449416924,25.115382059800652
1.4472241602711051,8.115382059800652
1.4482208711252864,-3.884617940199348
1.4492175819794677,4.115382059800652
1.4502142928336488,16.115382059800652
1.45121100368783,17.115382059800652
1.4522077145420111,19.115382059800652
1.4532044253961924,15.115382059800652
1.4542011362503737,20.115382059800652
1.4551978471045548,20.115382059800652
1.456194557958736,-5.884617940199348
1.4571912688129172,-15.884617940199348
1.4581879796670985,-11.884617940199348
1.4591846905212797,-3.884617940199348
1.4601814013754608,-12.884617940199348
1.4611781122296421,-22.884617940199348
1.4621748230838232,-22.884617940199348
1.4631715339380045,-14.884617940199348
1.4641682447921855,-18.884617940199348
1.4651649556463668,-10.884617940199348
1.4661616665005481,-0.8846179401993481
1.4671583773547292,7.115382059800652
1.4681550882089105,8.115382059800652
1.4691517990630916,7.115382059800652
1.4701485099172729,12.115382059800652
1.4711452207714542,20.115382059800652
1.4721419316256352,29.115382059800652
1.4731386424798165,18.115382059800652
1.4741353533339976,5.115382059800652
1.4751320641881789,13.115382059800652
1.4761287750423602,10.115382059800652
1.4771254858965412,-2.884617940199348
1.4781221967507225,-10.884617940199348
1.4791189076049036,-14.884617940199348
1.480115618459085,-14.884617940199348
1.4811123293132662,-6.884617940199348
1.4821090401674473,3.115382059800652
1.4831057510216286,-6.884617940199348
1.4841024618758096,-18.884617940199348
1.485099172729991,-21.884617940199348
1.486095883584172,-24.884617940199348
1.4870925944383533,-8.884617940199348
1.4880893052925346,5.115382059800652
1.4890860161467157,12.115382059800652
1.490082727000897,19.115382059800652
1.491079437855078,22.115382059800652
1.4920761487092593,18.115382059800652
1.4930728595634406,24.115382059800652
1.4940695704176217,35.11538205980065
1.495066281271803,28.115382059800652
1.496062992125984,2.115382059800652
1.4970597029801653,-11.884617940199348
1.4980564138343466,-19.884617940199348
1.4990531246885277,-19.884617940199348
1.500049835542709,-20.884617940199348
1.50104654639689,-26.884617940199348
1.5020432572510714,-24.884617940199348
1.5030399681052524,-20.884617940199348
1.5040366789594337,-23.884617940199348
1.505033389813615,-19.884617940199348
1.506030100667796,-6.884617940199348
1.5070268115219774,13.115382059800652
1.5080235223761584,17.115382059800652
1.5090202332303397,15.115382059800652
1.510016944084521,12.115382059800652
1.511013654938702,19.115382059800652
1.5120103657928834,24.115382059800652
1.5130070766470645,20.115382059800652
1.5140037875012458,15.115382059800652
1.515000498355427,20.115382059800652
1.5159972092096081,22.115382059800652
1.5169939200637894,30.115382059800652
1.5179906309179705,12.115382059800652
1.5189873417721518,-25.884617940199348
1.519984052626333,-33.88461794019935
1.5209807634805141,-41.88461794019935
1.5219774743346954,-23.884617940199348
1.5229741851888765,-18.884617940199348
1.5239708960430578,-20.884617940199348
1.5249676068972389,-6.884617940199348
1.5259643177514202,-3.884617940199348
1.5269610286056015,-8.884617940199348
1.5279577394597825,-14.884617940199348
1.5289544503139638,4.115382059800652
1.529951161168145,37.11538205980065
1.5309478720223262,40.11538205980065
1.5319445828765075,32.11538205980065
1.5329412937306885,19.115382059800652
1.5339380045848698,8.115382059800652
1.534934715439051,5.115382059800652
1.5359314262932322,1.1153820598006519
1.5369281371474135,2.115382059800652
1.5379248480015946,-10.884617940199348
1.5389215588557759,-13.884617940199348
1.539918269709957,-23.884617940199348
1.5409149805641382,-20.884617940199348
1.5419116914183193,-0.8846179401993481
1.5429084022725006,1.1153820598006519
1.5439051131266819,-14.884617940199348
1.544901823980863,-22.884617940199348
1.5458985348350442,-0.8846179401993481
1.5468952456892253,8.115382059800652
1.5478919565434066,0.11538205980065186
1.548888667397588,1.1153820598006519
1.549885378251769,6.115382059800652
1.5508820891059503,15.115382059800652
1.5518787999601313,23.115382059800652
1.5528755108143126,8.115382059800652
1.553872221668494,9.115382059800652
1.554868932522675,24.115382059800652
1.5558656433768563,4.115382059800652
1.5568623542310374,0.11538205980065186
1.5578590650852187,-3.884617940199348
1.5588557759394,-3.884617940199348
1.559852486793581,-7.884617940199348
1.5608491976477623,-14.884617940199348
1.5618459085019434,-21.884617940199348
1.5628426193561247,-25.884617940199348
1.5638393302103057,-27.884617940199348
1.564836041064487,-25.884617940199348
1.5658327519186683,-6.884617940199348
1.5668294627728494,7.115382059800652
1.5678261736270307,14.115382059800652
1.5688228844812118,7.115382059800652
1.569819595335393,9.115382059800652
1.5708163061895744,15.115382059800652
1.5718130170437554,18.115382059800652
1.5728097278979367,25.115382059800652
1.5738064387521178,36.11538205980065
1.574803149606299,34.11538205980065
1.5757998604604804,13.115382059800652
1.5767965713146614,-4.884617940199348
1.5777932821688427,-12.884617940199348
1.5787899930230238,-19.884617940199348
1.579786703877205,-14.884617940199348
1.5807834147313862,-21.884617940199348
1.5817801255855675,-36.88461794019935
1.5827768364397488,-25.884617940199348
1.5837735472939298,-7.884617940199348
1.5847702581481111,-7.884617940199348
1.5857669690022922,-13.884617940199348
1.5867636798564735,-6.884617940199348
1.5877603907106548,16.115382059800652
1.5887571015648358,23.115382059800652
1.5897538124190171,5.115382059800652
1.5907505232731982,5.115382059800652
1.5917472341273795,10.115382059800652
1.5927439449815608,23.115382059800652
1.5937406558357419,21.115382059800652
1.5947373666899232,24.115382059800652
1.5957340775441042,27.115382059800652
1.5967307883982855,12.115382059800652
1.5977274992524668,-6.884617940199348
1.598724210106648,-15.884617940199348
1.5997209209608292,-20.884617940199348
1.6007176318150103,-29.884617940199348
1.6017143426691915,-18.884617940199348
1.6027110535233726,-10.884617940199348
1.603707764377554,-33.88461794019935
1.6047044752317352,-24.884617940199348
1.6057011860859163,-1.8846179401993481
1.6066978969400976,2.115382059800652
1.6076946077942786,9.115382059800652
1.60869131864846,7.115382059800652
1.6096880295026412,3.115382059800652
1.6106847403568223,14.115382059800652
1.6116814512110036,24.115382059800652
1.6126781620651847,33.11538205980065
1.613674872919366,22.115382059800652
1.6146715837735472,8.115382059800652
1.6156682946277283,-2.884617940199348
1.6166650054819096,-9.884617940199348
1.6176617163360907,-4.884617940199348
1.618658427190272,-7.884617940199348
1.619655138044453,-5.884617940199348
1.6206518488986343,-19.884617940199348
1.6216485597528156,-24.884617940199348
1.6226452706069967,-16.884617940199348
1.623641981461178,-25.884617940199348
1.624638692315359,-22.884617940199348
1.6256354031695404,1.1153820598006519
1.6266321140237217,18.115382059800652
1.6276288248779027,20.115382059800652
1.628625535732084,4.115382059800652
1.629622246586265,11.115382059800652
1.6306189574404464,9.115382059800652
1.6316156682946277,22.115382059800652
1.6326123791488087,30.115382059800652
1.63360909000299,29.115382059800652
1.634605800857171,31.115382059800652
1.6356025117113524,24.115382059800652
1.6365992225655337,0.11538205980065186
1.6375959334197148,-16.884617940199348
1.638592644273896,-29.884617940199348
1.6395893551280771,-29.884617940199348
1.6405860659822584,-26.884617940199348
1.6415827768364395,-27.884617940199348
1.6425794876906208,-23.884617940199348
1.643576198544802,-24.884617940199348
1.6445729093989832,-23.884617940199348
1.6455696202531644,-7.884617940199348
1.6465663311073455,5.115382059800652
1.6475630419615268,15.115382059800652
1.648559752815708,19.115382059800652
1.6495564636698892,10.115382059800652
1.6505531745240705,10.115382059800652
1.6515498853782515,17.115382059800652
1.6525465962324328,22.115382059800652
1.6535433070866141,22.115382059800652
1.6545400179407952,22.115382059800652
1.6555367287949765,7.115382059800652
1.6565334396491576,3.115382059800652
1.6575301505033389,-2.884617940199348
1.6585268613575201,-4.884617940199348
1.6595235722117012,-10.884617940199348
1.6605202830658825,-25.884617940199348
1.6615169939200636,-23.884617940199348
1.6625137047742449,-19.884617940199348
1.663510415628426,-21.884617940199348
1.6645071264826072,-14.884617940199348
1.6655038373367885,-4.884617940199348
1.6665005481909696,12.115382059800652
1.667497259045151,17.115382059800652
1.668493969899332,6.115382059800652
1.6694906807535133,4.115382059800652
1.6704873916076945,11.115382059800652
1.6714841024618756,15.115382059800652
1.672480813316057,20.115382059800652
1.673477524170238,12.115382059800652
1.6744742350244193,18.115382059800652
1.6754709458786006,12.115382059800652
1.6764676567327816,-4.884617940199348
1.677464367586963,-10.884617940199348
1.678461078441144,-3.884617940199348
1.6794577892953253,-9.884617940199348
1.6804545001495064,-15.884617940199348
1.6814512110036877,-21.884617940199348
1.682447921857869,-27.884617940199348
1.68344463271205,-25.884617940199348
1.6844413435662313,-14.884617940199348
1.6854380544204124,-11.884617940199348
1.6864347652745937,2.115382059800652
1.687431476128775,20.115382059800652
1.688428186982956,29.115382059800652
1.6894248978371373,29.115382059800652
1.6904216086913184,10.115382059800652
1.6914183195454997,-11.884617940199348
1.692415030399681,3.115382059800652
1.693411741253862,20.115382059800652
1.6944084521080434,23.115382059800652
1.6954051629622244,17.115382059800652
1.6964018738164057,3.115382059800652
1.697398584670587,-6.884617940199348
1.698395295524768,-4.884617940199348
1.6993920063789494,5.115382059800652
1.7003887172331305,4.115382059800652
1.7013854280873117,-20.884617940199348
1.7023821389414928,-39.88461794019935
1.703378849795674,-33.88461794019935
1.7043755606498554,-27.884617940199348
1.7053722715040365,-23.884617940199348
1.7063689823582178,-7.884617940199348
1.7073656932123988,12.115382059800652
1.7083624040665801,33.11538205980065
1.7093591149207614,31.115382059800652
1.7103558257749425,17.115382059800652
1.7113525366291238,11.115382059800652
1.7123492474833049,9.115382059800652
1.7133459583374862,4.115382059800652
1.7143426691916674,6.115382059800652
1.7153393800458485,8.115382059800652
1.7163360909000298,7.115382059800652
1.7173328017542109,0.11538205980065186
1.7183295126083922,-16.884617940199348
1.7193262234625732,-25.884617940199348
1.7203229343167545,-9.884617940199348
1.7213196451709358,-7.884617940199348
1.722316356025117,-12.884617940199348
1.7233130668792982,-17.884617940199348
1.7243097777334793,-26.884617940199348
1.7253064885876606,-13.884617940199348
1.7263031994418419,0.11538205980065186
1.727299910296023,12.115382059800652
1.7282966211502042,15.115382059800652
1.7292933320043853,24.115382059800652
1.7302900428585666,37.11538205980065
1.7312867537127479,35.11538205980065
1.732283464566929,14.115382059800652
1.7332801754211102,-0.8846179401993481
1.7342768862752913,-4.884617940199348
1.7352735971294726,-5.884617940199348
1.736270307983654,-1.8846179401993481
1.737267018837835,9.115382059800652
1.7382637296920163,0.11538205980065186
1.7392604405461973,-14.884617940199348
1.7402571514003786,-30.884617940199348
1.7412538622545597,-31.884617940199348
1.742250573108741,-23.884617940199348
1.7432472839629223,-14.884617940199348
1.7442439948171033,5.115382059800652
1.7452407056712846,12.115382059800652
1.7462374165254657,13.115382059800652
1.747234127379647,10.115382059800652
1.7482308382338283,14.115382059800652
1.7492275490880094,13.115382059800652
1.7502242599421907,16.115382059800652
1.7512209707963717,15.115382059800652
1.752217681650553,9.115382059800652
1.7532143925047343,13.115382059800652
1.7542111033589154,4.115382059800652
1.7552078142130967,-0.8846179401993481
1.7562045250672778,-16.884617940199348
1.757201235921459,-18.884617940199348
1.7581979467756401,4.115382059800652
1.7591946576298214,11.115382059800652
1.7601913684840027,-7.884617940199348
1.7611880793381838,-23.884617940199348
1.762184790192365,-20.884617940199348
1.7631815010465461,-17.884617940199348
1.7641782119007274,-26.884617940199348
1.7651749227549087,-27.884617940199348
1.7661716336090898,-5.884617940199348
1.767168344463271,11.115382059800652
1.7681650553174522,14.115382059800652
1.7691617661716335,26.115382059800652
1.7701584770258147,42.11538205980065
1.7711551878799958,43.11538205980065
1.7721518987341771,25.115382059800652
1.7731486095883582,4.115382059800652
1.7741453204425395,2.115382059800652
1.7751420312967208,-3.884617940199348
1.7761387421509018,4.115382059800652
1.7771354530050831,-10.884617940199348
1.7781321638592642,-31.884617940199348
1.7791288747134455,-40.88461794019935
1.7801255855676266,-16.884617940199348
1.7811222964218079,-20.884617940199348
1.7821190072759892,-27.884617940199348
1.7831157181301702,-23.884617940199348
1.7841124289843515,17.115382059800652
1.7851091398385326,36.11538205980065
1.7861058506927139,17.115382059800652
1.7871025615468952,5.115382059800652
1.7880992724010762,6.115382059800652
1.7890959832552575,12.115382059800652
1.7900926941094386,20.115382059800652
1.79108940496362,19.115382059800652
1.7920861158178012,20.115382059800652
1.7930828266719823,10.115382059800652
1.7940795375261636,-1.8846179401993481
1.7950762483803446,-11.884617940199348
1.796072959234526,-9.884617940199348
1.797069670088707,-0.8846179401993481
1.7980663809428883,4.115382059800652
1.7990630917970696,-10.884617940199348
1.8000598026512507,-29.884617940199348
1.801056513505432,-20.884617940199348
1.802053224359613,-15.884617940199348
1.8030499352137943,-19.884617940199348
1.8040466460679756,-27.884617940199348
1.8050433569221567,-5.884617940199348
1.806040067776338,10.115382059800652
1.807036778630519,12.115382059800652
1.8080334894847003,-5.884617940199348
1.8090302003388816,13.115382059800652
1.8100269111930627,29.115382059800652
1.811023622047244,29.115382059800652
1.812020332901425,7.115382059800652
1.8130170437556064,16.115382059800652
1.8140137546097876,32.11538205980065
1.8150104654639687,15.115382059800652
1.81600717631815,-4.884617940199348
1.817003887172331,-17.884617940199348
1.8180005980265124,-26.884617940199348
1.8189973088806934,-23.884617940199348
1.8199940197348747,-11.884617940199348
1.820990730589056,5.115382059800652
1.821987441443237,4.115382059800652
1.8229841522974184,-7.884617940199348
1.8239808631515995,-14.884617940199348
1.8249775740057808,-9.884617940199348
1.825974284859962,-2.884617940199348
1.8269709957141431,7.115382059800652
1.8279677065683244,13.115382059800652
1.8289644174225055,1.1153820598006519
1.8299611282766868,3.115382059800652
1.830957839130868,0.11538205980065186
1.8319545499850491,1.1153820598006519
1.8329512608392304,14.115382059800652
1.8339479716934115,14.115382059800652
1.8349446825475928,16.115382059800652
1.8359413934017739,5.115382059800652
1.8369381042559552,-2.884617940199348
1.8379348151101365,-14.884617940199348
1.8389315259643175,-10.884617940199348
1.8399282368184988,-12.884617940199348
1.84092494767268,-21.884617940199348
1.8419216585268612,-14.884617940199348
1.8429183693810425,-13.884617940199348
1.8439150802352235,-6.884617940199348
1.8449117910894048,-3.884617940199348
1.845908501943586,-10.884617940199348
1.8469052127977672,-2.884617940199348
1.8479019236519485,5.115382059800652
1.8488986345061296,20.115382059800652
1.8498953453603109,22.115382059800652
1.850892056214492,20.115382059800652
1.8518887670686732,19.115382059800652
1.8528854779228545,23.115382059800652
1.8538821887770356,5.115382059800652
1.8548788996312169,14.115382059800652
1.855875610485398,27.115382059800652
1.8568723213395792,8.115382059800652
1.8578690321937603,-21.884617940199348
1.8588657430479416,-34.88461794019935
1.859862453902123,-24.884617940199348
1.860859164756304,-15.884617940199348
1.8618558756104853,-23.884617940199348
1.8628525864646663,-22.884617940199348
1.8638492973188476,-0.8846179401993481
1.864846008173029,0.11538205980065186
1.86584271902721,-0.8846179401993481
1.8668394298813913,4.115382059800652
1.8678361407355724,3.115382059800652
1.8688328515897537,12.115382059800652
1.869829562443935,29.115382059800652
1.870826273298116,22.115382059800652
1.8718229841522973,20.115382059800652
1.8728196950064784,13.115382059800652
1.8738164058606597,4.115382059800652
1.8748131167148407,-3.884617940199348
1.875809827569022,-11.884617940199348
1.8768065384232033,-10.884617940199348
1.8778032492773844,-15.884617940199348
1.8787999601315657,-10.884617940199348
1.8797966709857468,-0.8846179401993481
1.880793381839928,-10.884617940199348
1.8817900926941094,-30.884617940199348
1.8827868035482904,-18.884617940199348
1.8837835144024717,-1.8846179401993481
1.8847802252566528,8.115382059800652
1.885776936110834,8.115382059800652
1.8867736469650154,6.115382059800652
1.8877703578191964,-3.884617940199348
1.8887670686733777,4.115382059800652
1.8897637795275588,28.115382059800652
1.89076049038174,33.11538205980065
1.8917572012359214,17.115382059800652
1.8927539120901025,1.1153820598006519
1.8937506229442838,4.115382059800652
1.8947473337984648,14.115382059800652
1.8957440446526461,3.115382059800652
1.8967407555068272,-24.884617940199348
1.8977374663610085,-31.884617940199348
1.8987341772151898,-23.884617940199348
1.8997308880693708,-2.884617940199348
1.9007275989235521,0.11538205980065186
1.9017243097777332,-7.884617940199348
1.9027210206319145,-12.884617940199348
1.9037177314860958,0.11538205980065186
1.9047144423402769,4.115382059800652
1.9057111531944582,-11.884617940199348
1.9067078640486392,-4.884617940199348
1.9077045749028205,7.115382059800652
1.9087012857570018,22.115382059800652
1.909697996611183,15.115382059800652
1.9106947074653642,11.115382059800652
1.9116914183195453,19.115382059800652
1.9126881291737265,11.115382059800652
1.9136848400279076,8.115382059800652
1.914681550882089,8.115382059800652
1.9156782617362702,0.11538205980065186
1.9166749725904513,-12.884617940199348
1.9176716834446326,-16.884617940199348
1.9186683942988136,-10.884617940199348
1.919665105152995,-2.884617940199348
1.9206618160071762,-0.8846179401993481
1.9216585268613573,-4.884617940199348
1.9226552377155386,-11.884617940199348
1.9236519485697197,-8.884617940199348
1.924648659423901,-2.884617940199348
1.9256453702780822,-8.884617940199348
1.9266420811322633,-1.8846179401993481
1.9276387919864446,8.115382059800652
1.9286355028406257,4.115382059800652
1.929632213694807,3.115382059800652
1.9306289245489883,1.1153820598006519
1.9316256354031693,14.115382059800652
1.9326223462573506,8.115382059800652
1.9336190571115317,25.115382059800652
1.934615767965713,18.115382059800652
1.935612478819894,-3.884617940199348
1.9366091896740754,4.115382059800652
1.9376059005282567,14.115382059800652
1.9386026113824377,-4.884617940199348
1.939599322236619,-31.884617940199348
1.9405960330908,-40.88461794019935
1.9415927439449814,-14.884617940199348
1.9425894547991627,-23.884617940199348
1.9435861656533437,-25.884617940199348
1.944582876507525,-16.884617940199348
1.945579587361706,5.115382059800652
1.9465762982158874,33.11538205980065
1.9475730090700687,39.11538205980065
1.9485697199242498,27.115382059800652
1.949566430778431,3.115382059800652
1.9505631416326121,3.115382059800652
1.9515598524867934,21.115382059800652
1.9525565633409747,1.1153820598006519
1.9535532741951558,11.115382059800652
1.954549985049337,12.115382059800652
1.9555466959035182,-0.8846179401993481
1.9565434067576994,7.115382059800652
1.9575401176118805,7.115382059800652
1.9585368284660618,-17.884617940199348
1.959533539320243,-24.884617940199348
1.9605302501744242,-29.884617940199348
1.9615269610286055,-39.88461794019935
1.9625236718827865,-49.88461794019935
1.9635203827369678,-26.884617940199348
1.9645170935911491,-1.8846179401993481
1.9655138044453302,16.115382059800652
1.9665105152995115,26.115382059800652
1.9675072261536926,32.11538205980065
1.9685039370078738,26.115382059800652
1.9695006478620551,17.115382059800652
1.9704973587162362,27.115382059800652
1.9714940695704175,37.11538205980065
1.9724907804245986,6.115382059800652
1.9734874912787799,-8.884617940199348
1.974484202132961,-2.884617940199348
1.9754809129871422,1.1153820598006519
1.9764776238413235,10.115382059800652
1.9774743346955046,-5.884617940199348
1.978471045549686,-11.884617940199348
1.979467756403867,-26.884617940199348
1.9804644672580483,-42.88461794019935
1.9814611781122295,-28.884617940199348
1.9824578889664106,-34.88461794019935
1.983454599820592,-8.884617940199348
1.984451310674773,3.115382059800652
1.9854480215289543,11.115382059800652
1.9864447323831356,20.115382059800652
1.9874414432373166,14.115382059800652
1.988438154091498,17.115382059800652
1.989434864945679,31.115382059800652
1.9904315757998603,25.115382059800652
1.9914282866540416,12.115382059800652
1.9924249975082227,12.115382059800652
1.993421708362404,7.115382059800652
1.994418419216585,-1.8846179401993481
1.9954151300707663,-11.884617940199348
1.9964118409249474,-10.884617940199348
1.9974085517791287,-12.884617940199348
1.99840526263331,-17.884617940199348
1.999401973487491,-23.884617940199348
2.0003986843416723,-19.884617940199348
2.0013953951958534,-20.884617940199348
2.0023921060500345,-11.884617940199348
2.003388816904216,-7.884617940199348
2.004385527758397,-1.8846179401993481
2.005382238612578,13.115382059800652
2.0063789494667597,11.115382059800652
2.0073756603209407,6.115382059800652
2.008372371175122,7.115382059800652
2.0093690820293033,26.115382059800652
2.0103657928834844,40.11538205980065
2.0113625037376655,29.115382059800652
2.0123592145918465,8.115382059800652
2.013355925446028,1.1153820598006519
2.014352636300209,-2.884617940199348
2.01534934715439,-10.884617940199348
2.0163460580085717,-9.884617940199348
2.0173427688627528,-12.884617940199348
2.018339479716934,-21.884617940199348
2.0193361905711154,-23.884617940199348
2.0203329014252964,-27.884617940199348
2.0213296122794775,-30.884617940199348
2.0223263231336586,-27.884617940199348
2.02332303398784,-10.884617940199348
2.024319744842021,-1.8846179401993481
2.0253164556962022,16.115382059800652
2.0263131665503837,38.11538205980065
2.027309877404565,38.11538205980065
2.028306588258746,33.11538205980065
2.029303299112927,27.115382059800652
2.0303000099671085,22.115382059800652
2.0312967208212895,9.115382059800652
2.0322934316754706,8.115382059800652
2.033290142529652,1.1153820598006519
2.034286853383833,-3.884617940199348
2.0352835642380143,-11.884617940199348
2.036280275092196,-20.884617940199348
2.037276985946377,-10.884617940199348
2.038273696800558,-10.884617940199348
2.039270407654739,-16.884617940199348
2.0402671185089205,-21.884617940199348
2.0412638293631016,-17.884617940199348
2.0422605402172826,-19.884617940199348
2.043257251071464,-18.884617940199348
2.0442539619256452,-9.884617940199348
2.0452506727798263,7.115382059800652
2.0462473836340074,12.115382059800652
2.047244094488189,9.115382059800652
2.04824080534237,26.115382059800652
2.049237516196551,24.115382059800652
2.0502342270507325,27.115382059800652
2.0512309379049136,26.115382059800652
2.0522276487590947,24.115382059800652
2.053224359613276,14.115382059800652
2.0542210704674573,-3.884617940199348
2.0552177813216383,-10.884617940199348
2.0562144921758194,-23.884617940199348
2.057211203030001,-28.884617940199348
2.058207913884182,-23.884617940199348
2.059204624738363,-21.884617940199348
2.0602013355925446,-14.884617940199348
2.0611980464467257,2.115382059800652
2.0621947573009067,12.115382059800652
2.063191468155088,-10.884617940199348
2.0641881790092693,-8.884617940199348
2.0651848898634504,-10.884617940199348
2.0661816007176315,-0.8846179401993481
2.067178311571813,22.115382059800652
2.068175022425994,21.115382059800652
2.069171733280175,6.115382059800652
2.0701684441343566,-12.884617940199348
2.0711651549885377,1.1153820598006519
2.0721618658427188,21.115382059800652
2.0731585766969,32.11538205980065
2.0741552875510814,24.115382059800652
2.0751519984052624,16.115382059800652
2.0761487092594435,1.1153820598006519
2.077145420113625,-4.884617940199348
2.078142130967806,-13.884617940199348
2.079138841821987,-18.884617940199348
2.0801355526761687,-24.884617940199348
2.0811322635303497,-12.884617940199348
2.082128974384531,-4.884617940199348
2.083125685238712,-11.884617940199348
2.0841223960928934,-7.884617940199348
2.0851191069470745,-17.884617940199348
2.0861158178012555,-20.884617940199348
2.087112528655437,1.1153820598006519
2.088109239509618,4.115382059800652
2.089105950363799,11.115382059800652
2.0901026612179803,14.115382059800652
2.091099372072162,20.115382059800652
2.092096082926343,43.11538205980065
2.093092793780524,43.11538205980065
2.0940895046347054,14.115382059800652
2.0950862154888865,1.1153820598006519
2.0960829263430676,-14.884617940199348
2.097079637197249,-21.884617940199348
2.09807634805143,-9.884617940199348
2.0990730589056112,-15.884617940199348
2.1000697697597923,-17.884617940199348
2.101066480613974,-15.884617940199348
2.102063191468155,-25.884617940199348
2.103059902322336,-23.884617940199348
2.1040566131765175,-18.884617940199348
2.1050533240306986,-9.884617940199348
2.1060500348848796,8.115382059800652
2.1070467457390607,20.115382059800652
2.108043456593242,22.115382059800652
2.1090401674474233,24.115382059800652
2.1100368783016044,21.115382059800652
2.111033589155786,23.115382059800652
2.112030300009967,29.115382059800652
2.113027010864148,25.115382059800652
2.1140237217183295,3.115382059800652
2.1150204325725106,-6.884617940199348
2.1160171434266917,-15.884617940199348
2.1170138542808727,-25.884617940199348
2.1180105651350543,-17.884617940199348
2.1190072759892353,-17.884617940199348
2.1200039868434164,-23.884617940199348
2.121000697697598,-23.884617940199348
2.121997408551779,-23.884617940199348
2.12299411940596,-23.884617940199348
2.123990830260141,2.115382059800652
2.1249875411143226,14.115382059800652
2.1259842519685037,25.115382059800652
2.126980962822685,19.115382059800652
2.1279776736768663,13.115382059800652
2.1289743845310474,6.115382059800652
2.1299710953852284,5.115382059800652
2.13096780623941,8.115382059800652
2.131964517093591,25.115382059800652
2.132961227947772,53.11538205980065
2.133957938801953,23.115382059800652
2.1349546496561347,1.1153820598006519
2.1359513605103158,-11.884617940199348
2.136948071364497,-33.88461794019935
2.1379447822186783,-43.88461794019935
2.1389414930728594,-39.88461794019935
2.1399382039270405,-10.884617940199348
2.1409349147812216,3.115382059800652
2.141931625635403,-4.884617940199348
2.142928336489584,-6.884617940199348
2.143925047343765,-1.8846179401993481
2.1449217581979467,-2.884617940199348
2.145918469052128,-2.884617940199348
2.146915179906309,8.115382059800652
2.1479118907604904,19.115382059800652
2.1489086016146715,11.115382059800652
2.1499053124688525,20.115382059800652
2.1509020233230336,19.115382059800652
2.151898734177215,24.115382059800652
2.152895445031396,15.115382059800652
2.1538921558855773,-1.8846179401993481
2.1548888667397588,-10.884617940199348
2.15588557759394,-9.884617940199348
2.156882288448121,-8.884617940199348
2.1578789993023024,-9.884617940199348
2.1588757101564835,-27.884617940199348
2.1598724210106646,-31.884617940199348
2.1608691318648456,-17.884617940199348
2.161865842719027,-19.884617940199348
2.1628625535732082,-13.884617940199348
2.1638592644273893,-1.8846179401993481
2.164855975281571,16.115382059800652
2.165852686135752,20.115382059800652
2.166849396989933,22.115382059800652
2.167846107844114,23.115382059800652
2.1688428186982955,20.115382059800652
2.1698395295524766,24.115382059800652
2.1708362404066577,20.115382059800652
2.171832951260839,16.115382059800652
2.1728296621150203,12.115382059800652
2.1738263729692013,-11.884617940199348
2.174823083823383,-29.884617940199348
2.175819794677564,-22.884617940199348
2.176816505531745,-29.884617940199348
2.177813216385926,-13.884617940199348
2.1788099272401076,-4.884617940199348
2.1798066380942887,-5.884617940199348
2.1808033489484697,0.11538205980065186
2.1818000598026512,-8.884617940199348
2.1827967706568323,-10.884617940199348
2.1837934815110134,-23.884617940199348
2.1847901923651945,-6.884617940199348
2.185786903219376,-1.8846179401993481
2.186783614073557,-1.8846179401993481
2.187780324927738,29.115382059800652
2.1887770357819196,38.11538205980065
2.1897737466361007,38.11538205980065
2.1907704574902818,33.11538205980065
2.1917671683444633,38.11538205980065
2.1927638791986444,3.115382059800652
2.1937605900528254,-12.884617940199348
2.1947573009070065,-14.884617940199348
2.195754011761188,-7.884617940199348
2.196750722615369,-16.884617940199348
2.19774743346955,-2.884617940199348
2.1987441443237317,-6.884617940199348
2.1997408551779127,-26.884617940199348
2.200737566032094,-27.884617940199348
2.201734276886275,-43.88461794019935
2.2027309877404564,-14.884617940199348
2.2037276985946375,3.115382059800652
2.2047244094488185,-2.884617940199348
2.205721120303,10.115382059800652
2.206717831157181,13.115382059800652
2.207714542011362,12.115382059800652
2.2087112528655437,26.115382059800652
2.2097079637197248,33.11538205980065
2.210704674573906,25.115382059800652
2.211701385428087,12.115382059800652
2.2126980962822684,6.115382059800652
2.2136948071364495,-0.8846179401993481
2.2146915179906306,-8.884617940199348
2.215688228844812,-14.884617940199348
2.216684939698993,-17.884617940199348
2.2176816505531742,-20.884617940199348
2.2186783614073553,-18.884617940199348
2.219675072261537,-15.884617940199348
2.220671783115718,-0.8846179401993481
2.221668493969899,-8.884617940199348
2.2226652048240805,-22.884617940199348
2.2236619156782615,-11.884617940199348
2.2246586265324426,-1.8846179401993481
2.225655337386624,5.115382059800652
2.226652048240805,3.115382059800652
2.2276487590949863,20.115382059800652
2.2286454699491673,40.11538205980065
2.229642180803349,41.11538205980065
2.23063889165753,26.115382059800652
2.231635602511711,14.115382059800652
2.2326323133658925,2.115382059800652
2.2336290242200736,4.115382059800652
2.2346257350742547,-6.884617940199348
2.235622445928436,-16.884617940199348
2.2366191567826172,-27.884617940199348
2.2376158676367983,-22.884617940199348
2.2386125784909794,-17.884617940199348
2.239609289345161,-15.884617940199348
2.240606000199342,-9.884617940199348
2.241602711053523,-10.884617940199348
2.2425994219077046,-11.884617940199348
2.2435961327618856,2.115382059800652
2.2445928436160667,-1.8846179401993481
2.2455895544702478,7.115382059800652
2.2465862653244293,11.115382059800652
2.2475829761786104,14.115382059800652
2.2485796870327914,20.115382059800652
2.249576397886973,27.115382059800652
2.250573108741154,44.11538205980065
2.251569819595335,30.115382059800652
2.2525665304495166,10.115382059800652
2.2535632413036977,-6.884617940199348
2.2545599521578787,-3.884617940199348
2.25555666301206,-12.884617940199348
2.2565533738662413,-25.884617940199348
2.2575500847204224,-17.884617940199348
2.2585467955746035,-32.88461794019935
2.259543506428785,-31.884617940199348
2.260540217282966,-12.884617940199348
2.261536928137147,-12.884617940199348
2.262533638991328,-12.884617940199348
2.2635303498455097,6.115382059800652
2.264527060699691,5.115382059800652
2.265523771553872,5.115382059800652
2.2665204824080534,-1.8846179401993481
2.2675171932622344,8.115382059800652
2.2685139041164155,21.115382059800652
2.269510614970597,35.11538205980065
2.270507325824778,35.11538205980065
2.271504036678959,27.115382059800652
2.2725007475331402,5.115382059800652
2.2734974583873218,-6.884617940199348
2.274494169241503,-3.884617940199348
2.275490880095684,-19.884617940199348
2.2764875909498654,-18.884617940199348
2.2774843018040465,0.11538205980065186
2.2784810126582276,-5.884617940199348
2.2794777235124086,-31.884617940199348
2.28047443436659,-22.884617940199348
2.281471145220771,-17.884617940199348
2.2824678560749523,-6.884617940199348
2.283464566929134,-15.884617940199348
2.284461277783315,-20.884617940199348
2.285457988637496,-6.884617940199348
2.2864546994916775,1.1153820598006519
2.2874514103458585,23.115382059800652
2.2884481212000396,35.11538205980065
2.2894448320542207,48.11538205980065
2.290441542908402,43.11538205980065
2.2914382537625833,21.115382059800652
2.2924349646167643,8.115382059800652
2.293431675470946,3.115382059800652
2.294428386325127,-14.884617940199348
2.295425097179308,-10.884617940199348
2.2964218080334895,-8.884617940199348
2.2974185188876706,-5.884617940199348
2.2984152297418516,-21.884617940199348
2.2994119405960327,-35.88461794019935
2.3004086514502142,-18.884617940199348
2.3014053623043953,-33.88461794019935
2.3024020731585764,-13.884617940199348
2.303398784012758,-6.884617940199348
2.304395494866939,5.115382059800652
2.30539220572112,6.115382059800652
2.306388916575301,21.115382059800652
2.3073856274294826,35.11538205980065
2.3083823382836637,39.11538205980065
2.3093790491378448,22.115382059800652
2.3103757599920263,13.115382059800652
2.3113724708462073,0.11538205980065186
2.3123691817003884,-2.884617940199348
2.31336589255457,22.115382059800652
2.314362603408751,19.115382059800652
2.315359314262932,2.115382059800652
2.316356025117113,-26.884617940199348
2.3173527359712947,-30.884617940199348
2.3183494468254757,-4.884617940199348
2.319346157679657,0.11538205980065186
2.3203428685338383,-16.884617940199348
2.3213395793880194,-31.884617940199348
2.3223362902422005,-31.884617940199348
2.3233330010963815,-28.884617940199348
2.324329711950563,-15.884617940199348
2.325326422804744,5.115382059800652
2.326323133658925,22.115382059800652
2.3273198445131067,21.115382059800652
2.3283165553672878,15.115382059800652
2.329313266221469,2.115382059800652
2.3303099770756504,37.11538205980065
2.3313066879298314,35.11538205980065
2.3323033987840125,12.115382059800652
2.3333001096381936,14.115382059800652
2.334296820492375,5.115382059800652
2.335293531346556,4.115382059800652
2.336290242200737,-5.884617940199348
2.3372869530549187,-6.884617940199348
2.3382836639091,-16.884617940199348
2.339280374763281,-35.88461794019935
2.340277085617462,-43.88461794019935
2.3412737964716435,-23.884617940199348
2.3422705073258245,1.1153820598006519
2.3432672181800056,3.115382059800652
2.344263929034187,-13.884617940199348
2.345260639888368,-25.884617940199348
2.3462573507425493,-9.884617940199348
2.347254061596731,20.115382059800652
2.348250772450912,34.11538205980065
2.349247483305093,57.11538205980065
2.350244194159274,62.11538205980065
2.3512409050134555,19.115382059800652
2.3522376158676366,-2.884617940199348
2.3532343267218176,-7.884617940199348
2.354231037575999,-8.884617940199348
2.3552277484301802,-12.884617940199348
2.3562244592843613,-9.884617940199348
2.3572211701385424,-6.884617940199348
2.358217880992724,-11.884617940199348
2.359214591846905,-20.884617940199348
2.360211302701086,-9.884617940199348
2.3612080135552675,-19.884617940199348
2.3622047244094486,-13.884617940199348
2.3632014352636297,-9.884617940199348
2.364198146117811,-5.884617940199348
2.3651948569719923,-2.884617940199348
2.3661915678261733,6.115382059800652
2.3671882786803544,29.115382059800652
2.368184989534536,29.115382059800652
2.369181700388717,15.115382059800652
2.370178411242898,22.115382059800652
2.3711751220970796,14.115382059800652
2.3721718329512607,5.115382059800652
2.3731685438054417,4.115382059800652
2.3741652546596232,-9.884617940199348
2.3751619655138043,-30.884617940199348
2.3761586763679854,-11.884617940199348
2.3771553872221665,-15.884617940199348
2.378152098076348,-22.884617940199348
2.379148808930529,-22.884617940199348
2.38014551978471,1.1153820598006519
2.3811422306388916,0.11538205980065186
2.3821389414930727,6.115382059800652
2.3831356523472538,-3.884617940199348
2.384132363201435,-15.884617940199348
2.3851290740556164,14.115382059800652
2.3861257849097974,20.115382059800652
2.3871224957639785,17.115382059800652
2.38811920661816,4.115382059800652
2.389115917472341,-1.8846179401993481
2.390112628326522,12.115382059800652
2.3911093391807037,22.115382059800652
2.3921060500348847,36.11538205980065
2.393102760889066,18.115382059800652
2.394099471743247,-0.8846179401993481
2.3950961825974284,-10.884617940199348
2.3960928934516095,-7.884617940199348
2.3970896043057905,-23.884617940199348
2.398086315159972,-34.88461794019935
2.399083026014153,-20.884617940199348
2.400079736868334,-5.884617940199348
2.4010764477225153,-2.884617940199348
2.402073158576697,-15.884617940199348
2.403069869430878,-26.884617940199348
2.404066580285059,-18.884617940199348
2.4050632911392404,5.115382059800652
2.4060600019934215,19.115382059800652
2.4070567128476026,28.115382059800652
2.408053423701784,40.11538205980065
2.409050134555965,34.11538205980065
2.4100468454101462,22.115382059800652
2.4110435562643273,6.115382059800652
2.412040267118509,-3.884617940199348
2.41303697797269,3.115382059800652
2.414033688826871,-6.884617940199348
2.4150303996810525,-17.884617940199348
2.4160271105352336,-3.884617940199348
2.4170238213894146,-19.884617940199348
2.4180205322435957,-14.884617940199348
2.419017243097777,-6.884617940199348
2.4200139539519583,-12.884617940199348
2.4210106648061394,-36.88461794019935
2.422007375660321,-28.884617940199348
2.423004086514502,-20.884617940199348
2.424000797368683,-10.884617940199348
2.4249975082228645,5.115382059800652
2.4259942190770456,33.11538205980065
2.4269909299312267,46.11538205980065
2.4279876407854077,35.11538205980065
2.4289843516395893,20.115382059800652
2.4299810624937703,12.115382059800652
2.4309777733479514,-0.8846179401993481
2.431974484202133,-7.884617940199348
2.432971195056314,6.115382059800652
2.433967905910495,20.115382059800652
2.434964616764676,3.115382059800652
2.4359613276188576,1.1153820598006519
2.4369580384730387,-0.8846179401993481
2.43795474932722,-1.8846179401993481
2.4389514601814013,-20.884617940199348
2.4399481710355824,-39.88461794019935
2.4409448818897634,-36.88461794019935
2.441941592743945,-15.884617940199348
2.442938303598126,-16.884617940199348
2.443935014452307,-10.884617940199348
2.444931725306488,15.115382059800652
2.4459284361606697,25.115382059800652
2.4469251470148508,15.115382059800652
2.447921857869032,12.115382059800652
2.4489185687232133,18.115382059800652
2.4499152795773944,12.115382059800652
2.4509119904315755,17.115382059800652
2.451908701285757,15.115382059800652
2.452905412139938,-4.884617940199348
2.453902122994119,-12.884617940199348
2.4548988338483,-10.884617940199348
2.4558955447024817,-10.884617940199348
2.456892255556663,14.115382059800652
2.457888966410844,12.115382059800652
2.4588856772650254,-11.884617940199348
2.4598823881192065,-31.884617940199348
2.4608790989733875,-18.884617940199348
2.4618758098275686,-9.884617940199348
2.46287252068175,-12.884617940199348
2.463869231535931,-19.884617940199348
2.4648659423901123,-2.884617940199348
2.4658626532442938,3.115382059800652
2.466859364098475,8.115382059800652
2.467856074952656,28.115382059800652
2.4688527858068374,35.11538205980065
2.4698494966610185,29.115382059800652
2.4708462075151996,22.115382059800652
2.4718429183693806,4.115382059800652
2.472839629223562,-6.884617940199348
2.4738363400777432,-2.884617940199348
2.4748330509319243,12.115382059800652
2.475829761786106,5.115382059800652
2.476826472640287,-5.884617940199348
2.477823183494468,-19.884617940199348
2.478819894348649,-34.88461794019935
2.4798166052028305,-35.88461794019935
2.4808133160570116,-28.884617940199348
2.4818100269111927,-9.884617940199348
2.482806737765374,2.115382059800652
2.4838034486195553,2.115382059800652
2.4848001594737363,2.115382059800652
2.485796870327918,1.1153820598006519
2.486793581182099,-1.8846179401993481
2.48779029203628,20.115382059800652
2.488787002890461,51.11538205980065
2.4897837137446426,46.11538205980065
2.4907804245988237,25.115382059800652
2.4917771354530047,9.115382059800652
2.4927738463071862,-0.8846179401993481
2.4937705571613673,-20.884617940199348
2.4947672680155484,-11.884617940199348
2.4957639788697294,-14.884617940199348
2.496760689723911,-26.884617940199348
2.497757400578092,-28.884617940199348
2.498754111432273,-8.884617940199348
2.4997508222864546,7.115382059800652
2.5007475331406357,-2.884617940199348
2.5017442439948168,-4.884617940199348
2.5027409548489983,-18.884617940199348
2.5037376657031793,-12.884617940199348
2.5047343765573604,6.115382059800652
2.5057310874115415,11.115382059800652
2.506727798265723,5.115382059800652
2.507724509119904,5.115382059800652
2.508721219974085,24.115382059800652
2.5097179308282667,36.11538205980065
2.5107146416824477,24.115382059800652
2.511711352536629,8.115382059800652
2.51270806339081,20.115382059800652
2.5137047742449914,12.115382059800652
2.5147014850991725,-13.884617940199348
2.5156981959533535,-27.884617940199348
2.516694906807535,-19.884617940199348
2.517691617661716,-27.884617940199348
2.518688328515897,-15.884617940199348
2.5196850393700787,-26.884617940199348
2.5206817502242598,-23.884617940199348
2.521678461078441,-10.884617940199348
2.522675171932622,-2.884617940199348
2.5236718827868034,4.115382059800652
2.5246685936409845,5.115382059800652
2.5256653044951656,13.115382059800652
2.526662015349347,-8.884617940199348
2.527658726203528,29.115382059800652
2.5286554370577092,47.11538205980065
2.5296521479118907,35.11538205980065
2.530648858766072,5.115382059800652
2.531645569620253,-7.884617940199348
2.532642280474434,2.115382059800652
2.5336389913286155,-3.884617940199348
2.5346357021827965,4.115382059800652
2.5356324130369776,18.115382059800652
2.536629123891159,-9.884617940199348
2.53762583474534,-28.884617940199348
2.5386225455995213,-28.884617940199348
2.5396192564537023,-22.884617940199348
2.540615967307884,-11.884617940199348
2.541612678162065,-6.884617940199348
2.542609389016246,-1.8846179401993481
2.5436060998704275,-12.884617940199348
2.5446028107246086,-12.884617940199348
2.5455995215787897,6.115382059800652
2.546596232432971,24.115382059800652
2.5475929432871522,29.115382059800652
2.5485896541413333,7.115382059800652
2.5495863649955144,1.1153820598006519
2.550583075849696,17.115382059800652
2.551579786703877,15.115382059800652
2.552576497558058,1.1153820598006519
2.5535732084122396,21.115382059800652
2.5545699192664206,14.115382059800652
2.5555666301206017,-9.884617940199348
2.5565633409747828,-26.884617940199348
2.5575600518289643,-35.88461794019935
2.5585567626831454,-36.88461794019935
2.5595534735373264,-21.884617940199348
2.560550184391508,-3.884617940199348
2.561546895245689,-0.8846179401993481
2.56254360609987,-5.884617940199348
2.5635403169540516,-4.884617940199348
2.5645370278082327,5.115382059800652
2.5655337386624137,20.115382059800652
2.566530449516595,26.115382059800652
2.5675271603707763,19.115382059800652
2.5685238712249574,22.115382059800652
2.5695205820791385,19.115382059800652
2.57051729293332,18.115382059800652
2.571514003787501,19.115382059800652
2.572510714641682,5.115382059800652
2.573507425495863,1.1153820598006519
2.5745041363500447,-8.884617940199348
2.575500847204226,-17.884617940199348
2.576497558058407,-24.884617940199348
2.5774942689125884,-23.884617940199348
2.5784909797667694,-26.884617940199348
2.5794876906209505,-18.884617940199348
2.580484401475132,-10.884617940199348
2.581481112329313,-18.884617940199348
2.582477823183494,-14.884617940199348
2.5834745340376752,6.115382059800652
2.5844712448918568,8.115382059800652
2.585467955746038,9.115382059800652
2.586464666600219,37.11538205980065
2.5874613774544004,23.115382059800652
2.5884580883085815,13.115382059800652
2.5894547991627626,17.115382059800652
2.590451510016944,8.115382059800652
2.591448220871125,16.115382059800652
2.592444931725306,7.115382059800652
2.5934416425794873,9.115382059800652
2.594438353433669,-0.8846179401993481
2.59543506428785,-18.884617940199348
2.596431775142031,-30.884617940199348
2.5974284859962125,-34.88461794019935
2.5984251968503935,-26.884617940199348
2.5994219077045746,-12.884617940199348
2.6004186185587557,-14.884617940199348
2.601415329412937,-19.884617940199348
2.6024120402671183,-14.884617940199348
2.6034087511212993,3.115382059800652
2.604405461975481,17.115382059800652
2.605402172829662,31.115382059800652
2.606398883683843,32.11538205980065
2.6073955945380245,24.115382059800652
2.6083923053922056,15.115382059800652
2.6093890162463866,24.115382059800652
2.6103857271005677,24.115382059800652
2.6113824379547492,8.115382059800652
2.6123791488089303,10.115382059800652
2.6133758596631114,0.11538205980065186
2.614372570517293,-2.884617940199348
2.615369281371474,-14.884617940199348
2.616365992225655,-31.884617940199348
2.617362703079836,-19.884617940199348
2.6183594139340176,-13.884617940199348
2.6193561247881987,-23.884617940199348
2.6203528356423798,-27.884617940199348
2.6213495464965613,-8.884617940199348
2.6223462573507423,-9.884617940199348
2.6233429682049234,-3.884617940199348
2.624339679059105,13.115382059800652
2.625336389913286,8.115382059800652
2.626333100767467,1.1153820598006519
2.627329811621648,19.115382059800652
2.6283265224758297,37.11538205980065
2.6293232333300107,30.115382059800652
2.630319944184192,16.115382059800652
2.6313166550383733,15.115382059800652
2.6323133658925544,-4.884617940199348
2.6333100767467355,-10.884617940199348
2.6343067876009165,-11.884617940199348
2.635303498455098,-22.884617940199348
2.636300209309279,-21.884617940199348
2.63729692016346,-17.884617940199348
2.6382936310176417,-22.884617940199348
2.6392903418718228,-16.884617940199348
2.640287052726004,7.115382059800652
2.6412837635801854,1.1153820598006519
2.6422804744343664,-7.884617940199348
2.6432771852885475,-8.884617940199348
2.6442738961427286,3.115382059800652
2.64527060699691,20.115382059800652
2.646267317851091,29.115382059800652
2.647264028705272,40.11538205980065
2.6482607395594537,34.11538205980065
2.649257450413635,18.115382059800652
2.650254161267816,3.115382059800652
2.651250872121997,-7.884617940199348
2.6522475829761785,-21.884617940199348
2.6532442938303595,-21.884617940199348
2.6542410046845406,-0.8846179401993481
2.655237715538722,2.115382059800652
2.656234426392903,-11.884617940199348
2.6572311372470843,-11.884617940199348
2.6582278481012658,-9.884617940199348
2.659224558955447,-14.884617940199348
2.660221269809628,-19.884617940199348
2.661217980663809,-22.884617940199348
2.6622146915179905,0.11538205980065186
2.6632114023721716,10.115382059800652
2.6642081132263526,-6.884617940199348
2.665204824080534,-0.8846179401993481
2.6662015349347152,22.115382059800652
2.6671982457888963,34.11538205980065
2.668194956643078,29.115382059800652
2.669191667497259,24.115382059800652
2.67018837835144,24.115382059800652
2.671185089205621,15.115382059800652
2.6721818000598025,2.115382059800652
2.6731785109139836,-11.884617940199348
2.6741752217681647,-29.884617940199348
2.675171932622346,-39.88461794019935
2.6761686434765273,-37.88461794019935
2.6771653543307083,-20.884617940199348
2.6781620651848894,3.115382059800652
2.679158776039071,16.115382059800652
2.680155486893252,-4.884617940199348
2.681152197747433,-0.8846179401993481
2.6821489086016146,7.115382059800652
2.6831456194557957,5.115382059800652
2.6841423303099767,14.115382059800652
2.6851390411641582,5.115382059800652
2.6861357520183393,-11.884617940199348
2.6871324628725204,-2.884617940199348
2.6881291737267015,14.115382059800652
2.689125884580883,28.115382059800652
2.690122595435064,22.115382059800652
2.691119306289245,18.115382059800652
2.6921160171434266,6.115382059800652
2.6931127279976077,-2.884617940199348
2.6941094388517888,0.11538205980065186
2.69510614970597,-11.884617940199348
2.6961028605601514,-23.884617940199348
2.6970995714143324,-35.88461794019935
2.6980962822685135,-26.884617940199348
2.699092993122695,-18.884617940199348
2.700089703976876,-27.884617940199348
2.701086414831057,-12.884617940199348
2.7020831256852387,-7.884617940199348
2.7030798365394197,-11.884617940199348
2.704076547393601,4.115382059800652
2.705073258247782,36.11538205980065
2.7060699691019634,31.115382059800652
2.7070666799561445,50.11538205980065
2.7080633908103255,25.115382059800652
2.709060101664507,-4.884617940199348
2.710056812518688,4.115382059800652
2.711053523372869,15.115382059800652
2.7120502342270503,9.115382059800652
2.713046945081232,0.11538205980065186
2.714043655935413,3.115382059800652
2.715040366789594,8.115382059800652
2.7160370776437754,-14.884617940199348
2.7170337884979565,-41.88461794019935
2.7180304993521376,-46.88461794019935
2.719027210206319,-16.884617940199348
2.7200239210605,1.1153820598006519
2.7210206319146812,-3.884617940199348
2.7220173427688623,-12.884617940199348
2.723014053623044,9.115382059800652
2.724010764477225,10.115382059800652
2.725007475331406,12.115382059800652
2.7260041861855875,15.115382059800652
2.7270008970397686,19.115382059800652
2.7279976078939496,26.115382059800652
2.7289943187481307,13.115382059800652
2.729991029602312,11.115382059800652
2.7309877404564933,9.115382059800652
2.7319844513106744,-3.884617940199348
2.732981162164856,-9.884617940199348
2.733977873019037,-10.884617940199348
2.734974583873218,-11.884617940199348
2.7359712947273995,-7.884617940199348
2.7369680055815806,-18.884617940199348
2.7379647164357617,-23.884617940199348
2.7389614272899427,-14.884617940199348
2.7399581381441243,-10.884617940199348
2.7409548489983053,-10.884617940199348
2.7419515598524864,-12.884617940199348
2.742948270706668,-2.884617940199348
2.743944981560849,5.115382059800652
2.74494169241503,17.115382059800652
2.7459384032692116,29.115382059800652
2.7469351141233926,22.115382059800652
2.7479318249775737,21.115382059800652
2.748928535831755,17.115382059800652
2.7499252466859363,22.115382059800652
2.7509219575401174,6.115382059800652
2.7519186683942984,-6.884617940199348
2.75291537924848,-5.884617940199348
2.753912090102661,3.115382059800652
2.754908800956842,-8.884617940199348
2.755905511811023,-24.884617940199348
2.7569022226652047,-25.884617940199348
2.7578989335193858,-28.884617940199348
2.758895644373567,-23.884617940199348
2.7598923552277483,-10.884617940199348
2.7608890660819294,5.115382059800652
2.7618857769361105,13.115382059800652
2.762882487790292,-1.8846179401993481
2.763879198644473,4.115382059800652
2.764875909498654,9.115382059800652
2.765872620352835,13.115382059800652
2.7668693312070167,19.115382059800652
2.767866042061198,14.115382059800652
2.768862752915379,16.115382059800652
2.7698594637695604,22.115382059800652
2.7708561746237415,11.115382059800652
2.7718528854779225,14.115382059800652
2.7728495963321036,2.115382059800652
2.773846307186285,-11.884617940199348
2.774843018040466,-12.884617940199348
2.7758397288946473,-8.884617940199348
2.7768364397488288,-26.884617940199348
2.77783315060301,-29.884617940199348
2.778829861457191,-33.88461794019935
2.7798265723113724,-38.88461794019935
2.7808232831655535,-17.884617940199348
2.7818199940197346,14.115382059800652
2.7828167048739156,27.115382059800652
2.783813415728097,17.115382059800652
2.7848101265822782,1.1153820598006519
2.7858068374364593,8.115382059800652
2.786803548290641,1.1153820598006519
2.787800259144822,9.115382059800652
2.788796969999003,45.11538205980065
2.789793680853184,36.11538205980065
2.7907903917073655,17.115382059800652
2.7917871025615466,8.115382059800652
2.7927838134157277,-1.8846179401993481
2.793780524269909,-15.884617940199348
2.7947772351240903,-15.884617940199348
2.7957739459782713,-7.884617940199348
2.796770656832453,-18.884617940199348
2.797767367686634,-34.88461794019935
2.798764078540815,-25.884617940199348
2.799760789394996,-36.88461794019935
2.8007575002491776,-11.884617940199348
2.8017542111033586,12.115382059800652
2.8027509219575397,-1.8846179401993481
2.8037476328117212,3.115382059800652
2.8047443436659023,30.115382059800652
2.8057410545200834,44.11538205980065
2.8067377653742644,17.115382059800652
2.807734476228446,19.115382059800652
2.808731187082627,22.115382059800652
2.809727897936808,16.115382059800652
2.8107246087909896,11.115382059800652
2.8117213196451707,-2.884617940199348
2.8127180304993518,-6.884617940199348
2.8137147413535333,-27.884617940199348
2.8147114522077143,-24.884617940199348
2.8157081630618954,-14.884617940199348
2.8167048739160765,-19.884617940199348
2.817701584770258,-26.884617940199348
2.818698295624439,-14.884617940199348
2.81969500647862,-8.884617940199348
2.8206917173328017,-9.884617940199348
2.8216884281869827,-1.8846179401993481
2.822685139041164,8.115382059800652
2.8236818498953453,21.115382059800652
2.8246785607495264,26.115382059800652
2.8256752716037075,17.115382059800652
2.8266719824578885,12.115382059800652
2.82766869331207,11.115382059800652
2.828665404166251,15.115382059800652
2.829662115020432,8.115382059800652
2.8306588258746137,5.115382059800652
2.8316555367287948,0.11538205980065186
2.832652247582976,-5.884617940199348
2.833648958437157,-6.884617940199348
2.8346456692913384,-27.884617940199348
2.8356423801455195,-19.884617940199348
2.8366390909997006,-5.884617940199348
2.837635801853882,-5.884617940199348
2.838632512708063,21.115382059800652
2.8396292235622442,-1.8846179401993481
2.8406259344164257,-15.884617940199348
2.841622645270607,-19.884617940199348
2.842619356124788,-8.884617940199348
2.843616066978969,-7.884617940199348
2.8446127778331505,-3.884617940199348
2.8456094886873315,14.115382059800652
2.8466061995415126,19.115382059800652
2.847602910395694,7.115382059800652
2.848599621249875,9.115382059800652
2.8495963321040563,33.11538205980065
2.8505930429582373,37.11538205980065
2.851589753812419,21.115382059800652
2.8525864646666,5.115382059800652
2.853583175520781,-14.884617940199348
2.8545798863749625,-22.884617940199348
2.8555765972291436,-19.884617940199348
2.8565733080833247,-17.884617940199348
2.857570018937506,-23.884617940199348
2.8585667297916872,-19.884617940199348
2.8595634406458683,-15.884617940199348
2.8605601515000494,-9.884617940199348
2.861556862354231,-10.884617940199348
2.862553573208412,-2.884617940199348
2.863550284062593,5.115382059800652
2.8645469949167746,11.115382059800652
2.8655437057709556,19.115382059800652
2.8665404166251367,19.115382059800652
2.8675371274793178,24.115382059800652
2.8685338383334993,20.115382059800652
2.8695305491876804,1.1153820598006519
2.8705272600418614,-2.884617940199348
2.871523970896043,19.115382059800652
2.872520681750224,2.115382059800652
2.873517392604405,-5.884617940199348
2.8745141034585866,-9.884617940199348
2.8755108143127677,-8.884617940199348
2.8765075251669487,-7.884617940199348
2.87750423602113,-15.884617940199348
2.8785009468753113,-18.884617940199348
2.8794976577294924,-18.884617940199348
2.8804943685836735,-12.884617940199348
2.881491079437855,-4.884617940199348
2.882487790292036,1.1153820598006519
2.883484501146217,-2.884617940199348
2.8844812120003986,-3.884617940199348
2.8854779228545797,15.115382059800652
2.886474633708761,17.115382059800652
2.887471344562942,31.115382059800652
2.8884680554171234,35.11538205980065
2.8894647662713044,28.115382059800652
2.8904614771254855,4.115382059800652
2.891458187979667,-3.884617940199348
2.892454898833848,-6.884617940199348
2.893451609688029,-9.884617940199348
2.8944483205422102,-15.884617940199348
2.8954450313963918,-8.884617940199348
2.896441742250573,-19.884617940199348
2.897438453104754,-24.884617940199348
2.8984351639589354,-24.884617940199348
2.8994318748131165,-25.884617940199348
2.9004285856672976,-19.884617940199348
2.901425296521479,-0.8846179401993481
2.90242200737566,10.115382059800652
2.903418718229841,12.115382059800652
2.9044154290840223,17.115382059800652
2.905412139938204,17.115382059800652
2.906408850792385,6.115382059800652
2.907405561646566,7.115382059800652
2.9084022725007475,13.115382059800652
2.9093989833549285,15.115382059800652
2.9103956942091096,27.115382059800652
2.9113924050632907,22.115382059800652
2.912389115917472,0.11538205980065186
2.9133858267716533,-13.884617940199348
2.9143825376258343,-12.884617940199348
2.915379248480016,-13.884617940199348
2.916375959334197,-7.884617940199348
2.917372670188378,-11.884617940199348
2.9183693810425595,-19.884617940199348
2.9193660918967406,-19.884617940199348
2.9203628027509216,-13.884617940199348
2.9213595136051027,-13.884617940199348
2.9223562244592842,-12.884617940199348
2.9233529353134653,-4.884617940199348
2.9243496461676464,16.115382059800652
2.925346357021828,21.115382059800652
2.926343067876009,16.115382059800652
2.92733977873019,16.115382059800652
2.928336489584371,19.115382059800652
2.9293332004385526,5.115382059800652
2.9303299112927337,5.115382059800652
2.9313266221469148,1.1153820598006519
2.9323233330010963,17.115382059800652
2.9333200438552773,21.115382059800652
2.9343167547094584,27.115382059800652
2.93531346556364,0.11538205980065186
2.936310176417821,-23.884617940199348
2.937306887272002,-27.884617940199348
2.938303598126183,-26.884617940199348
2.9393003089803647,-25.884617940199348
2.9402970198345457,-28.884617940199348
2.941293730688727,-6.884617940199348
2.9422904415429083,4.115382059800652
2.9432871523970894,3.115382059800652
2.9442838632512704,1.1153820598006519
2.9452805741054515,11.115382059800652
2.946277284959633,24.115382059800652
2.947273995813814,37.11538205980065
2.948270706667995,24.115382059800652
2.9492674175221767,19.115382059800652
2.9502641283763578,14.115382059800652
2.951260839230539,4.115382059800652
2.9522575500847204,-11.884617940199348
2.9532542609389014,-8.884617940199348
2.9542509717930825,-4.884617940199348
2.9552476826472636,-17.884617940199348
2.956244393501445,-29.884617940199348
2.957241104355626,-26.884617940199348
2.958237815209807,-20.884617940199348
2.9592345260639887,-10.884617940199348
2.96023123691817,-4.884617940199348
2.961227947772351,-19.884617940199348
2.9622246586265324,-8.884617940199348
2.9632213694807135,13.115382059800652
2.9642180803348945,24.115382059800652
2.9652147911890756,16.115382059800652
2.966211502043257,7.115382059800652
2.967208212897438,17.115382059800652
2.9682049237516193,25.115382059800652
2.9692016346058008,18.115382059800652
2.970198345459982,1.1153820598006519
2.971195056314163,-6.884617940199348
2.972191767168344,-9.884617940199348
2.9731884780225255,5.115382059800652
2.9741851888767066,11.115382059800652
2.9751818997308876,4.115382059800652
2.976178610585069,-3.884617940199348
2.9771753214392502,-14.884617940199348
2.9781720322934313,-16.884617940199348
2.979168743147613,-14.884617940199348
2.980165454001794,-20.884617940199348
2.981162164855975,-20.884617940199348
2.982158875710156,-2.884617940199348
2.9831555865643375,4.115382059800652
2.9841522974185186,1.1153820598006519
2.9851490082726997,9.115382059800652
2.986145719126881,12.115382059800652
2.9871424299810623,20.115382059800652
2.9881391408352433,20.115382059800652
2.9891358516894244,12.115382059800652
2.990132562543606,17.115382059800652
2.991129273397787,19.115382059800652
2.992125984251968,11.115382059800652
2.9931226951061496,-3.884617940199348
2.9941194059603307,-24.884617940199348
2.9951161168145117,-35.88461794019935
2.9961128276686932,-33.88461794019935
2.9971095385228743,-19.884617940199348
2.9981062493770554,-9.884617940199348
2.9991029602312365,-3.884617940199348
3.000099671085418,1.1153820598006519
3.001096381939599,-1.8846179401993481
3.00209309279378,6.115382059800652
3.0030898036479616,5.115382059800652
3.0040865145021427,18.115382059800652
3.0050832253563238,22.115382059800652
3.006079936210505,6.115382059800652
3.0070766470646864,3.115382059800652
3.0080733579188674,12.115382059800652
3.0090700687730485,17.115382059800652
3.01006677962723,20.115382059800652
3.011063490481411,16.115382059800652
3.012060201335592,22.115382059800652
3.0130569121897737,8.115382059800652
3.0140536230439547,-16.884617940199348
3.015050333898136,-19.884617940199348
3.016047044752317,-27.884617940199348
3.0170437556064984,-27.884617940199348
3.0180404664606795,-22.884617940199348
3.0190371773148605,-13.884617940199348
3.020033888169042,-12.884617940199348
3.021030599023223,-4.884617940199348
3.022027309877404,-5.884617940199348
3.0230240207315853,-1.8846179401993481
3.024020731585767,6.115382059800652
3.025017442439948,12.115382059800652
3.026014153294129,10.115382059800652
3.0270108641483104,9.115382059800652
3.0280075750024915,19.115382059800652
3.0290042858566726,12.115382059800652
3.030000996710854,4.115382059800652
3.030997707565035,5.115382059800652
3.0319944184192162,10.115382059800652
3.0329911292733973,-2.884617940199348
3.033987840127579,-8.884617940199348
3.03498455098176,-6.884617940199348
3.035981261835941,-9.884617940199348
3.0369779726901225,-17.884617940199348
3.0379746835443036,-15.884617940199348
3.0389713943984846,-16.884617940199348
3.039968105252666,-17.884617940199348
3.040964816106847,-2.884617940199348
3.0419615269610283,3.115382059800652
3.0429582378152094,9.115382059800652
3.043954948669391,5.115382059800652
3.044951659523572,6.115382059800652
3.045948370377753,7.115382059800652
3.0469450812319345,20.115382059800652
3.0479417920861156,44.11538205980065
3.0489385029402967,59.11538205980065
3.0499352137944777,23.115382059800652
3.0509319246486593,-3.884617940199348
3.0519286355028403,-11.884617940199348
3.0529253463570214,-15.884617940199348
3.053922057211203,-20.884617940199348
3.054918768065384,-34.88461794019935
3.055915478919565,-26.884617940199348
3.0569121897737466,-12.884617940199348
3.0579089006279276,-16.884617940199348
3.0589056114821087,-17.884617940199348
3.05990232233629,-5.884617940199348
3.0608990331904713,2.115382059800652
3.0618957440446524,-5.884617940199348
3.0628924548988334,-2.884617940199348
3.063889165753015,8.115382059800652
3.064885876607196,20.115382059800652
3.065882587461377,16.115382059800652
3.066879298315558,24.115382059800652
3.0678760091697397,27.115382059800652
3.0688727200239208,16.115382059800652
3.069869430878102,10.115382059800652
3.0708661417322833,-3.884617940199348
3.0718628525864644,-8.884617940199348
3.0728595634406455,-2.884617940199348
3.073856274294827,-6.884617940199348
3.074852985149008,-1.8846179401993481
3.075849696003189,-16.884617940199348
3.07684640685737,-22.884617940199348
3.0778431177115517,-25.884617940199348
3.078839828565733,-18.884617940199348
3.079836539419914,-6.884617940199348
3.0808332502740954,-2.884617940199348
3.0818299611282765,8.115382059800652
3.0828266719824575,15.115382059800652
3.0838233828366386,7.115382059800652
3.08482009369082,9.115382059800652
3.085816804545001,15.115382059800652
3.0868135153991823,12.115382059800652
3.0878102262533638,17.115382059800652
3.088806937107545,12.115382059800652
3.089803647961726,-1.8846179401993481
3.0908003588159074,-4.884617940199348
3.0917970696700885,0.11538205980065186
3.0927937805242696,8.115382059800652
3.0937904913784506,-6.884617940199348
3.094787202232632,-8.884617940199348
3.095783913086813,-11.884617940199348
3.0967806239409943,-23.884617940199348
3.097777334795176,-37.88461794019935
3.098774045649357,-28.884617940199348
3.099770756503538,-8.884617940199348
3.1007674673577195,4.115382059800652
3.1017641782119005,33.11538205980065
3.1027608890660816,40.11538205980065
3.1037575999202627,17.115382059800652
3.104754310774444,3.115382059800652
3.1057510216286253,16.115382059800652
3.1067477324828063,20.115382059800652
3.107744443336988,6.115382059800652
3.108741154191169,3.115382059800652
3.10973786504535,0.11538205980065186
3.110734575899531,8.115382059800652
3.1117312867537126,-10.884617940199348
3.1127279976078936,-20.884617940199348
3.1137247084620747,-17.884617940199348
3.1147214193162562,-2.884617940199348
3.1157181301704373,-11.884617940199348
3.1167148410246184,-15.884617940199348
3.1177115518788,-12.884617940199348
3.118708262732981,-10.884617940199348
3.119704973587162,-9.884617940199348
3.120701684441343,-4.884617940199348
3.1216983952955246,-2.884617940199348
3.1226951061497057,-3.884617940199348
3.1236918170038868,9.115382059800652
3.1246885278580683,11.115382059800652
3.1256852387122493,18.115382059800652
3.1266819495664304,18.115382059800652
3.1276786604206115,25.115382059800652
3.128675371274793,27.115382059800652
3.129672082128974,9.115382059800652
3.130668792983155,-1.8846179401993481
3.1316655038373367,-5.884617940199348
3.1326622146915177,-10.884617940199348
3.133658925545699,-13.884617940199348
3.1346556363998803,-15.884617940199348
3.1356523472540614,-21.884617940199348
3.1366490581082425,-21.884617940199348
3.1376457689624235,-19.884617940199348
3.138642479816605,-9.884617940199348
3.139639190670786,-7.884617940199348
3.140635901524967,-1.8846179401993481
3.1416326123791487,4.115382059800652
3.1426293232333298,11.115382059800652
3.143626034087511,17.115382059800652
3.144622744941692,12.115382059800652
3.1456194557958734,14.115382059800652
3.1466161666500545,16.115382059800652
