Time,EMG
0.0,12.0
0.0009973570039395602,8.0
0.0019947140078791204,8.0
0.0029920710118186804,4.0
0.003989428015758241,2.0
0.004986785019697801,-2.0
0.005984142023637361,-5.0
0.006981499027576921,-8.0
0.007978856031516482,-8.0
0.008976213035456041,-10.0
0.009973570039395602,-11.0
0.010970927043335162,-7.0
0.011968284047274722,-8.0
0.012965641051214283,-7.0
0.013962998055153842,-7.0
0.014960355059093404,0.0
0.015957712063032963,6.0
0.016955069066972524,7.0
0.017952426070912082,5.0
0.018949783074851644,11.0
0.019947140078791205,13.0
0.020944497082730763,8.0
0.021941854086670324,8.0
0.022939211090609885,4.0
0.023936568094549443,3.0
0.024933925098489004,0.0
0.025931282102428566,-6.0
0.026928639106368127,-9.0
0.027925996110307685,-9.0
0.028923353114247246,-12.0
0.029920710118186807,-10.0
0.030918067122126365,-6.0
0.031915424126065926,-7.0
0.03291278113000549,-8.0
0.03391013813394505,-3.0
0.03490749513788461,3.0
0.035904852141824165,5.0
0.036902209145763726,5.0
0.03789956614970329,5.0
0.03889692315364285,11.0
0.03989428015758241,13.0
0.04089163716152197,8.0
0.041888994165461525,1.0
0.04288635116940109,-3.0
0.04388370817334065,13.0
0.04488106517728021,6.0
0.04587842218121977,-2.0
0.04687577918515933,-8.0
0.047873136189098886,-11.0
0.04887049319303845,-10.0
0.04986785019697801,-9.0
0.05086520720091757,-7.0
0.05186256420485713,-10.0
0.05285992120879669,-7.0
0.053857278212736254,-4.0
0.05485463521667581,-2.0
0.05585199222061537,4.0
0.05684934922455493,6.0
0.05784670622849449,14.0
0.05884406323243405,13.0
0.059841420236373614,12.0
0.06083877724031317,6.0
0.06183613424425273,6.0
0.06283349124819229,6.0
0.06383084825213185,5.0
0.06482820525607141,0.0
0.06582556226001098,-5.0
0.06682291926395054,-8.0
0.0678202762678901,-10.0
0.06881763327182966,-12.0
0.06981499027576922,-15.0
0.07081234727970877,-7.0
0.07180970428364833,-6.0
0.07280706128758789,-3.0
0.07380441829152745,-5.0
0.07480177529546701,-1.0
0.07579913229940657,5.0
0.07679648930334614,7.0
0.0777938463072857,10.0
0.07879120331122526,12.0
0.07978856031516482,10.0
0.08078591731910438,7.0
0.08178327432304394,6.0
0.0827806313269835,7.0
0.08377798833092305,1.0
0.08477534533486261,0.0
0.08577270233880217,-3.0
0.08677005934274173,-7.0
0.0877674163466813,-8.0
0.08876477335062086,-10.0
0.08976213035456042,-11.0
0.09075948735849998,-8.0
0.09175684436243954,-8.0
0.0927542013663791,-3.0
0.09375155837031866,-3.0
0.09474891537425822,-3.0
0.09574627237819777,2.0
0.09674362938213733,7.0
0.0977409863860769,10.0
0.09873834339001646,10.0
0.09973570039395602,13.0
0.10073305739789558,7.0
0.10173041440183514,7.0
0.1027277714057747,7.0
0.10372512840971426,4.0
0.10472248541365382,-3.0
0.10571984241759338,-8.0
0.10671719942153295,-7.0
0.10771455642547251,-8.0
0.10871191342941205,-11.0
0.10970927043335162,-10.0
0.11070662743729118,-6.0
0.11170398444123074,-12.0
0.1127013414451703,-8.0
0.11369869844910986,-1.0
0.11469605545304942,1.0
0.11569341245698898,5.0
0.11669076946092855,8.0
0.1176881264648681,9.0
0.11868548346880767,12.0
0.11968284047274723,12.0
0.12068019747668679,6.0
0.12167755448062634,8.0
0.1226749114845659,5.0
0.12367226848850546,4.0
0.12466962549244502,0.0
0.12566698249638458,-4.0
0.12666433950032416,-7.0
0.1276616965042637,-11.0
0.12865905350820325,-10.0
0.12965641051214283,-12.0
0.13065376751608238,-7.0
0.13165112452002195,-7.0
0.1326484815239615,-7.0
0.13364583852790107,-5.0
0.13464319553184062,-3.0
0.1356405525357802,7.0
0.13663790953971974,12.0
0.13763526654365932,13.0
0.13863262354759887,12.0
0.13962998055153844,9.0
0.140627337555478,2.0
0.14162469455941754,3.0
0.1426220515633571,4.0
0.14361940856729666,5.0
0.14461676557123623,3.0
0.14561412257517578,-2.0
0.14661147957911536,-9.0
0.1476088365830549,-11.0
0.14860619358699448,-13.0
0.14960355059093403,-7.0
0.1506009075948736,-6.0
0.15159826459881315,-10.0
0.15259562160275272,-6.0
0.15359297860669227,-4.0
0.15459033561063182,-2.0
0.1555876926145714,5.0
0.15658504961851094,8.0
0.15758240662245052,10.0
0.15857976362639006,14.0
0.15957712063032964,12.0
0.16057447763426919,6.0
0.16157183463820876,6.0
0.1625691916421483,5.0
0.16356654864608788,3.0
0.16456390565002743,2.0
0.165561262653967,-5.0
0.16655861965790655,-10.0
0.1675559766618461,-10.0
0.16855333366578568,-11.0
0.16955069066972522,-11.0
0.1705480476736648,-5.0
0.17154540467760435,-7.0
0.17254276168154392,-7.0
0.17354011868548347,-3.0
0.17453747568942304,0.0
0.1755348326933626,2.0
0.17653218969730217,9.0
0.17752954670124171,10.0
0.1785269037051813,12.0
0.17952426070912084,12.0
0.18052161771306038,8.0
0.18151897471699996,5.0
0.1825163317209395,4.0
0.18351368872487908,3.0
0.18451104572881863,1.0
0.1855084027327582,-3.0
0.18650575973669775,-6.0
0.18750311674063733,-9.0
0.18850047374457687,-11.0
0.18949783074851645,-11.0
0.190495187752456,-11.0
0.19149254475639554,-12.0
0.19248990176033512,1.0
0.19348725876427467,1.0
0.19448461576821424,-1.0
0.1954819727721538,4.0
0.19647932977609336,7.0
0.1974766867800329,9.0
0.1984740437839725,10.0
0.19947140078791203,9.0
0.2004687577918516,8.0
0.20146611479579116,5.0
0.20246347179973073,5.0
0.20346082880367028,5.0
0.20445818580760983,1.0
0.2054555428115494,-5.0
0.20645289981548895,-6.0
0.20745025681942852,-10.0
0.20844761382336807,-14.0
0.20944497082730765,-9.0
0.2104423278312472,-5.0
0.21143968483518677,-7.0
0.21243704183912632,-6.0
0.2134343988430659,-5.0
0.21443175584700544,-1.0
0.21542911285094501,6.0
0.21642646985488456,12.0
0.2174238268588241,10.0
0.21842118386276368,10.0
0.21941854086670323,12.0
0.2204158978706428,8.0
0.22141325487458235,4.0
0.22241061187852193,3.0
0.22340796888246148,1.0
0.22440532588640105,-3.0
0.2254026828903406,-5.0
0.22640003989428018,-7.0
0.22739739689821972,-10.0
0.2283947539021593,-10.0
0.22939211090609885,-8.0
0.2303894679100384,-5.0
0.23138682491397797,-4.0
0.23238418191791751,-3.0
0.2333815389218571,-4.0
0.23437889592579664,0.0
0.2353762529297362,5.0
0.23637360993367576,4.0
0.23737096693761534,8.0
0.23836832394155488,16.0
0.23936568094549446,12.0
0.240363037949434,8.0
0.24136039495337358,5.0
0.24235775195731313,6.0
0.24335510896125268,3.0
0.24435246596519225,1.0
0.2453498229691318,-4.0
0.24634717997307137,-8.0
0.24734453697701092,-9.0
0.2483418939809505,-11.0
0.24933925098489004,-10.0
0.2503366079888296,-5.0
0.25133396499276917,-4.0
0.2523313219967087,-7.0
0.2533286790006483,-9.0
0.25432603600458786,-5.0
0.2553233930085274,4.0
0.25632075001246696,9.0
0.2573181070164065,11.0
0.2583154640203461,11.0
0.25931282102428566,10.0
0.2603101780282252,6.0
0.26130753503216475,7.0
0.26230489203610435,4.0
0.2633022490400439,6.0
0.26429960604398345,0.0
0.265296963047923,-10.0
0.2662943200518626,-8.0
0.26729167705580215,-6.0
0.2682890340597417,-11.0
0.26928639106368124,-11.0
0.2702837480676208,-5.0
0.2712811050715604,-8.0
0.27227846207549994,-5.0
0.2732758190794395,-5.0
0.27427317608337903,-1.0
0.27527053308731864,4.0
0.2762678900912582,9.0
0.27726524709519773,10.0
0.2782626040991373,12.0
0.2792599611030769,11.0
0.28025731810701643,7.0
0.281254675110956,4.0
0.2822520321148955,4.0
0.28324938911883507,4.0
0.2842467461227747,2.0
0.2852441031267142,-3.0
0.28624146013065377,-9.0
0.2872388171345933,-13.0
0.2882361741385329,-11.0
0.28923353114247247,-9.0
0.290230888146412,-4.0
0.29122824515035156,-8.0
0.29222560215429116,-6.0
0.2932229591582307,-7.0
0.29422031616217026,-1.0
0.2952176731661098,3.0
0.29621503017004935,8.0
0.29721238717398896,10.0
0.2982097441779285,8.0
0.29920710118186805,16.0
0.3002044581858076,10.0
0.3012018151897472,9.0
0.30219917219368675,4.0
0.3031965291976263,3.0
0.30419388620156584,-2.0
0.30519124320550545,-5.0
0.306188600209445,-9.0
0.30718595721338454,-11.0
0.3081833142173241,-10.0
0.30918067122126364,-9.0
0.31017802822520324,-6.0
0.3111753852291428,-9.0
0.31217274223308233,-6.0
0.3131700992370219,-5.0
0.3141674562409615,0.0
0.31516481324490103,5.0
0.3161621702488406,8.0
0.3171595272527801,9.0
0.31815688425671973,8.0
0.3191542412606593,13.0
0.3201515982645988,12.0
0.32114895526853837,7.0
0.3221463122724779,5.0
0.3231436692764175,2.0
0.32414102628035707,0.0
0.3251383832842966,-6.0
0.32613574028823616,-10.0
0.32713309729217577,-9.0
0.3281304542961153,-11.0
0.32912781130005486,-12.0
0.3301251683039944,-10.0
0.331122525307934,-9.0
0.33211988231187356,-7.0
0.3331172393158131,-4.0
0.33411459631975265,1.0
0.3351119533236922,6.0
0.3361093103276318,11.0
0.33710666733157135,10.0
0.3381040243355109,11.0
0.33910138133945045,11.0
0.34009873834339005,10.0
0.3410960953473296,9.0
0.34209345235126914,8.0
0.3430908093552087,4.0
0.3440881663591483,1.0
0.34508552336308784,-11.0
0.3460828803670274,-16.0
0.34708023737096694,-6.0
0.3480775943749065,-8.0
0.3490749513788461,-13.0
0.35007230838278564,-4.0
0.3510696653867252,-3.0
0.35206702239066473,-7.0
0.35306437939460433,-7.0
0.3540617363985439,-1.0
0.35505909340248343,5.0
0.356056450406423,11.0
0.3570538074103626,10.0
0.3580511644143021,12.0
0.3590485214182417,10.0
0.3600458784221812,5.0
0.36104323542612077,4.0
0.36204059243006037,5.0
0.3630379494339999,3.0
0.36403530643793947,1.0
0.365032663441879,-4.0
0.3660300204458186,-12.0
0.36702737744975816,-10.0
0.3680247344536977,-9.0
0.36902209145763726,-8.0
0.37001944846157686,-6.0
0.3710168054655164,-7.0
0.37201416246945596,-8.0
0.3730115194733955,-5.0
0.37400887647733505,0.0
0.37500623348127465,4.0
0.3760035904852142,8.0
0.37700094748915375,9.0
0.3779983044930933,12.0
0.3789956614970329,11.0
0.37999301850097245,4.0
0.380990375504912,5.0
0.38198773250885154,10.0
0.3829850895127911,7.0
0.3839824465167307,0.0
0.38497980352067024,-7.0
0.3859771605246098,-8.0
0.38697451752854933,-10.0
0.38797187453248894,-11.0
0.3889692315364285,-9.0
0.38996658854036803,-7.0
0.3909639455443076,-10.0
0.3919613025482472,-7.0
0.39295865955218673,-6.0
0.3939560165561263,-1.0
0.3949533735600658,6.0
0.39595073056400537,8.0
0.396948087567945,11.0
0.3979454445718845,14.0
0.39894280157582407,11.0
0.3999401585797636,6.0
0.4009375155837032,5.0
0.40193487258764277,4.0
0.4029322295915823,4.0
0.40392958659552186,1.0
0.40492694359946146,-5.0
0.405924300603401,-8.0
0.40692165760734056,-13.0
0.4079190146112801,-11.0
0.40891637161521965,-6.0
0.40991372861915926,-7.0
0.4109110856230988,-10.0
0.41190844262703835,-5.0
0.4129057996309779,-3.0
0.4139031566349175,1.0
0.41490051363885705,3.0
0.4158978706427966,5.0
0.41689522764673614,12.0
0.41789258465067575,13.0
0.4188899416546153,9.0
0.41988729865855484,6.0
0.4208846556624944,9.0
0.42188201266643394,5.0
0.42287936967037354,2.0
0.4238767266743131,-2.0
0.42487408367825263,-4.0
0.4258714406821922,-8.0
0.4268687976861318,-9.0
0.42786615469007133,-11.0
0.4288635116940109,-10.0
0.4298608686979504,-7.0
0.43085822570189003,-8.0
0.4318555827058296,-7.0
0.4328529397097691,-6.0
0.43385029671370867,0.0
0.4348476537176482,6.0
0.4358450107215878,9.0
0.43684236772552737,12.0
0.4378397247294669,14.0
0.43883708173340646,14.0
0.43983443873734607,4.0
0.4408317957412856,-2.0
0.44182915274522516,-3.0
0.4428265097491647,4.0
0.4438238667531043,2.0
0.44482122375704386,-4.0
0.4458185807609834,-9.0
0.44681593776492295,-9.0
0.4478132947688625,-11.0
0.4488106517728021,-9.0
0.44980800877674165,-5.0
0.4508053657806812,-7.0
0.45180272278462075,-6.0
0.45280007978856035,-7.0
0.4537974367924999,-1.0
0.45479479379643944,4.0
0.455792150800379,6.0
0.4567895078043186,10.0
0.45778686480825814,12.0
0.4587842218121977,12.0
0.45978157881613724,4.0
0.4607789358200768,8.0
0.4617762928240164,6.0
0.46277364982795594,3.0
0.4637710068318955,0.0
0.46476836383583503,-3.0
0.46576572083977463,-9.0
0.4667630778437142,-7.0
0.4677604348476537,-11.0
0.4687577918515933,-11.0
0.4697551488555329,-13.0
0.4707525058594724,-5.0
0.471749862863412,-3.0
0.4727472198673515,-3.0
0.47374457687129107,-2.0
0.47474193387523067,4.0
0.4757392908791702,7.0
0.47673664788310977,12.0
0.4777340048870493,14.0
0.4787313618909889,11.0
0.47972871889492846,8.0
0.480726075898868,5.0
0.48172343290280756,4.0
0.48272078990674716,3.0
0.4837181469106867,-1.0
0.48471550391462626,-1.0
0.4857128609185658,-7.0
0.48671021792250535,-10.0
0.48770757492644495,-12.0
0.4887049319303845,-13.0
0.48970228893432405,-8.0
0.4906996459382636,-3.0
0.4916970029422032,-2.0
0.49269435994614275,-10.0
0.4936917169500823,-8.0
0.49468907395402184,8.0
0.49568643095796144,15.0
0.496683787961901,11.0
0.49768114496584054,9.0
0.4986785019697801,9.0
0.49967585897371963,6.0
0.5006732159776592,6.0
0.5016705729815988,4.0
0.5026679299855383,3.0
0.5036652869894779,-3.0
0.5046626439934174,-7.0
0.505660000997357,-5.0
0.5066573580012966,-5.0
0.5076547150052362,-8.0
0.5086520720091757,-8.0
0.5096494290131153,-4.0
0.5106467860170548,-6.0
0.5116441430209944,-9.0
0.5126415000249339,-5.0
0.5136388570288735,-4.0
0.514636214032813,0.0
0.5156335710367527,7.0
0.5166309280406922,12.0
0.5176282850446318,11.0
0.5186256420485713,11.0
0.5196229990525109,8.0
0.5206203560564504,9.0
0.52161771306039,5.0
0.5226150700643295,6.0
0.523612427068269,1.0
0.5246097840722087,-6.0
0.5256071410761483,-9.0
0.5266044980800878,-12.0
0.5276018550840273,-10.0
0.5285992120879669,-9.0
0.5295965690919064,-8.0
0.530593926095846,-8.0
0.5315912830997855,-3.0
0.5325886401037252,-3.0
0.5335859971076647,2.0
0.5345833541116043,6.0
0.5355807111155438,9.0
0.5365780681194834,9.0
0.5375754251234229,7.0
0.5385727821273625,8.0
0.539570139131302,7.0
0.5405674961352416,6.0
0.5415648531391812,6.0
0.5425622101431208,4.0
0.5435595671470603,1.0
0.5445569241509999,-5.0
0.5455542811549394,-10.0
0.546551638158879,-11.0
0.5475489951628185,-12.0
0.5485463521667581,-9.0
0.5495437091706976,-3.0
0.5505410661746373,-6.0
0.5515384231785768,-8.0
0.5525357801825164,-5.0
0.5535331371864559,1.0
0.5545304941903955,3.0
0.555527851194335,9.0
0.5565252081982746,9.0
0.5575225652022141,12.0
0.5585199222061538,11.0
0.5595172792100933,5.0
0.5605146362140329,8.0
0.5615119932179724,5.0
0.562509350221912,4.0
0.5635067072258515,2.0
0.564504064229791,-6.0
0.5655014212337306,-11.0
0.5664987782376701,-10.0
0.5674961352416098,-12.0
0.5684934922455493,-11.0
0.5694908492494889,-7.0
0.5704882062534284,-4.0
0.571485563257368,-5.0
0.5724829202613075,-5.0
0.5734802772652471,-1.0
0.5744776342691866,5.0
0.5754749912731262,7.0
0.5764723482770658,9.0
0.5774697052810054,14.0
0.5784670622849449,10.0
0.5794644192888845,7.0
0.580461776292824,5.0
0.5814591332967636,6.0
0.5824564903007031,3.0
0.5834538473046427,2.0
0.5844512043085823,-4.0
0.5854485613125219,-11.0
0.5864459183164614,-11.0
0.587443275320401,-12.0
0.5884406323243405,-3.0
0.5894379893282801,-8.0
0.5904353463322196,-10.0
0.5914327033361592,-8.0
0.5924300603400987,-8.0
0.5934274173440384,-8.0
0.5944247743479779,8.0
0.5954221313519175,14.0
0.596419488355857,13.0
0.5974168453597966,12.0
0.5984142023637361,11.0
0.5994115593676757,8.0
0.6004089163716152,4.0
0.6014062733755547,5.0
0.6024036303794944,1.0
0.603400987383434,-3.0
0.6043983443873735,-6.0
0.605395701391313,-8.0
0.6063930583952526,-11.0
0.6073904153991921,-12.0
0.6083877724031317,-7.0
0.6093851294070712,-3.0
0.6103824864110109,-5.0
0.6113798434149504,-8.0
0.61237720041889,-7.0
0.6133745574228295,0.0
0.6143719144267691,7.0
0.6153692714307086,6.0
0.6163666284346482,9.0
0.6173639854385877,17.0
0.6183613424425273,15.0
0.6193586994464669,3.0
0.6203560564504065,1.0
0.621353413454346,3.0
0.6223507704582856,4.0
0.6233481274622251,1.0
0.6243454844661647,-3.0
0.6253428414701042,-5.0
0.6263401984740438,-9.0
0.6273375554779833,-12.0
0.628334912481923,-18.0
0.6293322694858625,-4.0
0.6303296264898021,2.0
0.6313269834937416,-5.0
0.6323243404976812,-4.0
0.6333216975016207,-3.0
0.6343190545055603,4.0
0.6353164115094998,7.0
0.6363137685134395,11.0
0.637311125517379,12.0
0.6383084825213186,12.0
0.6393058395252581,9.0
0.6403031965291976,5.0
0.6413005535331372,1.0
0.6422979105370767,2.0
0.6432952675410163,-1.0
0.6442926245449558,-7.0
0.6452899815488955,-8.0
0.646287338552835,-9.0
0.6472846955567746,-10.0
0.6482820525607141,-9.0
0.6492794095646537,-5.0
0.6502767665685932,-7.0
0.6512741235725328,-5.0
0.6522714805764723,-5.0
0.6532688375804119,-2.0
0.6542661945843515,4.0
0.6552635515882911,9.0
0.6562609085922306,10.0
0.6572582655961702,11.0
0.6582556226001097,12.0
0.6592529796040493,4.0
0.6602503366079888,6.0
0.6612476936119284,7.0
0.662245050615868,6.0
0.6632424076198076,0.0
0.6642397646237471,-6.0
0.6652371216276867,-9.0
0.6662344786316262,-11.0
0.6672318356355658,-13.0
0.6682291926395053,-8.0
0.6692265496434449,-6.0
0.6702239066473844,-5.0
0.6712212636513241,-5.0
0.6722186206552636,-4.0
0.6732159776592032,-2.0
0.6742133346631427,5.0
0.6752106916670823,9.0
0.6762080486710218,9.0
0.6772054056749613,8.0
0.6782027626789009,9.0
0.6792001196828404,4.0
0.6801974766867801,8.0
0.6811948336907196,5.0
0.6821921906946592,2.0
0.6831895476985987,2.0
0.6841869047025383,-3.0
0.6851842617064778,-8.0
0.6861816187104174,-7.0
0.6871789757143569,-10.0
0.6881763327182966,-10.0
0.6891736897222361,-7.0
0.6901710467261757,-6.0
0.6911684037301152,-7.0
0.6921657607340548,-6.0
0.6931631177379943,0.0
0.6941604747419339,4.0
0.6951578317458734,9.0
0.696155188749813,12.0
0.6971525457537526,13.0
0.6981499027576922,10.0
0.6991472597616317,4.0
0.7001446167655713,7.0
0.7011419737695108,5.0
0.7021393307734504,6.0
0.7031366877773899,0.0
0.7041340447813295,-8.0
0.705131401785269,-5.0
0.7061287587892087,-9.0
0.7071261157931482,-13.0
0.7081234727970878,-13.0
0.7091208298010273,-8.0
0.7101181868049669,-8.0
0.7111155438089064,-4.0
0.712112900812846,-3.0
0.7131102578167855,1.0
0.7141076148207252,8.0
0.7151049718246647,11.0
0.7161023288286043,8.0
0.7170996858325438,9.0
0.7180970428364833,8.0
0.7190943998404229,4.0
0.7200917568443624,3.0
0.721089113848302,3.0
0.7220864708522415,8.0
0.7230838278561812,3.0
0.7240811848601207,-3.0
0.7250785418640603,-7.0
0.7260758988679998,-11.0
0.7270732558719394,-11.0
0.7280706128758789,-9.0
0.7290679698798185,-4.0
0.730065326883758,-6.0
0.7310626838876976,-7.0
0.7320600408916372,-5.0
0.7330573978955768,-2.0
0.7340547548995163,4.0
0.7350521119034559,7.0
0.7360494689073954,9.0
0.737046825911335,10.0
0.7380441829152745,13.0
0.7390415399192141,11.0
0.7400388969231537,7.0
0.7410362539270933,3.0
0.7420336109310328,4.0
0.7430309679349724,-1.0
0.7440283249389119,-5.0
0.7450256819428515,-9.0
0.746023038946791,-10.0
0.7470203959507306,-13.0
0.7480177529546701,-11.0
0.7490151099586098,-5.0
0.7500124669625493,-7.0
0.7510098239664889,-6.0
0.7520071809704284,-5.0
0.753004537974368,1.0
0.7540018949783075,6.0
0.754999251982247,9.0
0.7559966089861866,12.0
0.7569939659901261,13.0
0.7579913229940658,11.0
0.7589886799980053,6.0
0.7599860370019449,5.0
0.7609833940058844,1.0
0.761980751009824,3.0
0.7629781080137635,1.0
0.7639754650177031,-8.0
0.7649728220216426,-13.0
0.7659701790255822,-5.0
0.7669675360295218,-4.0
0.7679648930334614,-11.0
0.7689622500374009,-10.0
0.7699596070413405,-8.0
0.77095696404528,-4.0
0.7719543210492196,-5.0
0.7729516780531591,-2.0
0.7739490350570987,3.0
0.7749463920610383,6.0
0.7759437490649779,13.0
0.7769411060689174,14.0
0.777938463072857,11.0
0.7789358200767965,7.0
0.7799331770807361,4.0
0.7809305340846756,4.0
0.7819278910886152,3.0
0.7829252480925547,-1.0
0.7839226050964944,-3.0
0.7849199621004339,-7.0
0.7859173191043735,-8.0
0.786914676108313,-13.0
0.7879120331122526,-10.0
0.7889093901161921,-4.0
0.7899067471201316,-6.0
0.7909041041240712,-5.0
0.7919014611280107,-3.0
0.7928988181319504,1.0
0.79389617513589,3.0
0.7948935321398295,6.0
0.795890889143769,10.0
0.7968882461477086,9.0
0.7978856031516481,9.0
0.7988829601555877,7.0
0.7998803171595272,5.0
0.8008776741634669,5.0
0.8018750311674064,4.0
0.802872388171346,-1.0
0.8038697451752855,-4.0
0.8048671021792251,-8.0
0.8058644591831646,-8.0
0.8068618161871042,-10.0
0.8078591731910437,-9.0
0.8088565301949833,-7.0
0.8098538871989229,-8.0
0.8108512442028625,-8.0
0.811848601206802,-5.0
0.8128459582107416,2.0
0.8138433152146811,5.0
0.8148406722186207,8.0
0.8158380292225602,11.0
0.8168353862264998,12.0
0.8178327432304393,8.0
0.818830100234379,5.0
0.8198274572383185,8.0
0.8208248142422581,6.0
0.8218221712461976,4.0
0.8228195282501372,1.0
0.8238168852540767,-4.0
0.8248142422580163,-10.0
0.8258115992619558,-12.0
0.8268089562658955,-13.0
0.827806313269835,-12.0
0.8288036702737746,-4.0
0.8298010272777141,-7.0
0.8307983842816536,-5.0
0.8317957412855932,-11.0
0.8327930982895327,-2.0
0.8337904552934723,7.0
0.8347878122974118,12.0
0.8357851693013515,12.0
0.836782526305291,11.0
0.8377798833092306,8.0
0.8387772403131701,8.0
0.8397745973171097,6.0
0.8407719543210492,4.0
0.8417693113249888,2.0
0.8427666683289283,0.0
0.8437640253328679,-7.0
0.8447613823368075,-8.0
0.8457587393407471,-12.0
0.8467560963446866,-11.0
0.8477534533486262,-10.0
0.8487508103525657,-6.0
0.8497481673565053,-8.0
0.8507455243604448,-10.0
0.8517428813643844,0.0
0.852740238368324,0.0
0.8537375953722636,-1.0
0.8547349523762031,5.0
0.8557323093801427,15.0
0.8567296663840822,14.0
0.8577270233880218,12.0
0.8587243803919613,6.0
0.8597217373959009,7.0
0.8607190943998404,6.0
0.8617164514037801,1.0
0.8627138084077196,-2.0
0.8637111654116592,-6.0
0.8647085224155987,-9.0
0.8657058794195382,-10.0
0.8667032364234778,-14.0
0.8677005934274173,-10.0
0.8686979504313569,-6.0
0.8696953074352964,-7.0
0.8706926644392361,-7.0
0.8716900214431756,-7.0
0.8726873784471152,1.0
0.8736847354510547,4.0
0.8746820924549943,8.0
0.8756794494589338,10.0
0.8766768064628734,11.0
0.8776741634668129,11.0
0.8786715204707526,6.0
0.8796688774746921,7.0
0.8806662344786317,4.0
0.8816635914825712,5.0
0.8826609484865108,2.0
0.8836583054904503,-4.0
0.8846556624943899,-7.0
0.8856530194983294,-8.0
0.886650376502269,-12.0
0.8876477335062086,-12.0
0.8886450905101482,-7.0
0.8896424475140877,-10.0
0.8906398045180273,-10.0
0.8916371615219668,-12.0
0.8926345185259064,3.0
0.8936318755298459,12.0
0.8946292325337855,13.0
0.895626589537725,9.0
0.8966239465416647,11.0
0.8976213035456042,11.0
0.8986186605495438,7.0
0.8996160175534833,8.0
0.9006133745574229,2.0
0.9016107315613624,2.0
0.902608088565302,-3.0
0.9036054455692415,-3.0
0.9046028025731812,-7.0
0.9056001595771207,-8.0
0.9065975165810602,-11.0
0.9075948735849998,-9.0
0.9085922305889393,-7.0
0.9095895875928789,-8.0
0.9105869445968184,-9.0
0.911584301600758,-6.0
0.9125816586046975,1.0
0.9135790156086372,7.0
0.9145763726125767,10.0
0.9155737296165163,10.0
0.9165710866204558,11.0
0.9175684436243954,9.0
0.9185658006283349,4.0
0.9195631576322745,6.0
0.920560514636214,8.0
0.9215578716401536,3.0
0.9225552286440932,-3.0
0.9235525856480328,-9.0
0.9245499426519723,-3.0
0.9255472996559119,-5.0
0.9265446566598514,-12.0
0.927542013663791,-10.0
0.9285393706677305,-5.0
0.9295367276716701,-5.0
0.9305340846756097,-9.0
0.9315314416795493,-6.0
0.9325287986834888,-2.0
0.9335261556874284,2.0
0.9345235126913679,7.0
0.9355208696953075,14.0
0.936518226699247,15.0
0.9375155837031866,12.0
0.9385129407071261,3.0
0.9395102977110658,7.0
0.9405076547150053,6.0
0.9415050117189449,2.0
0.9425023687228844,-1.0
0.943499725726824,-5.0
0.9444970827307635,-7.0
0.945494439734703,-9.0
0.9464917967386426,-13.0
0.9474891537425821,-8.0
0.9484865107465218,-7.0
0.9494838677504613,-6.0
0.9504812247544009,-5.0
0.9514785817583404,-4.0
0.95247593876228,0.0
0.9534732957662195,4.0
0.9544706527701591,7.0
0.9554680097740986,12.0
0.9564653667780383,11.0
0.9574627237819778,10.0
0.9584600807859174,7.0
0.9594574377898569,5.0
0.9604547947937965,8.0
0.961452151797736,4.0
0.9624495088016756,2.0
0.9634468658056151,-4.0
0.9644442228095547,-7.0
0.9654415798134943,-12.0
0.9664389368174339,-14.0
0.9674362938213734,-11.0
0.968433650825313,-7.0
0.9694310078292525,-7.0
0.9704283648331921,-5.0
0.9714257218371316,-4.0
0.9724230788410712,-1.0
0.9734204358450107,5.0
0.9744177928489504,10.0
0.9754151498528899,10.0
0.9764125068568295,12.0
0.977409863860769,11.0
0.9784072208647085,8.0
0.9794045778686481,9.0
0.9804019348725876,6.0
0.9813992918765272,4.0
0.9823966488804668,0.0
0.9833940058844064,-4.0
0.9843913628883459,-9.0
0.9853887198922855,-10.0
0.986386076896225,-11.0
0.9873834339001646,-10.0
0.9883807909041041,-5.0
0.9893781479080437,-6.0
0.9903755049119832,-7.0
0.9913728619159229,-5.0
0.9923702189198624,1.0
0.993367575923802,5.0
0.9943649329277415,4.0
0.9953622899316811,7.0
0.9963596469356206,9.0
0.9973570039395602,11.0
0.9983543609434997,8.0
0.9993517179474393,7.0
1.0003490749513788,5.0
1.0013464319553185,4.0
1.002343788959258,2.0
1.0033411459631976,-4.0
1.0043385029671372,-8.0
1.0053358599710767,-9.0
1.0063332169750163,-12.0
1.0073305739789558,-8.0
1.0083279309828954,-5.0
1.0093252879868349,-9.0
1.0103226449907745,-7.0
1.011320001994714,-7.0
1.0123173589986536,5.0
1.0133147160025933,8.0
1.0143120730065327,10.0
1.0153094300104724,8.0
1.0163067870144118,11.0
1.0173041440183515,11.0
1.018301501022291,7.0
1.0192988580262305,4.0
1.02029621503017,4.0
1.0212935720341096,5.0
1.0222909290380493,0.0
1.0232882860419887,-6.0
1.0242856430459284,-9.0
1.0252830000498678,-9.0
1.0262803570538075,-8.0
1.027277714057747,-8.0
1.0282750710616866,-8.0
1.029272428065626,-11.0
1.0302697850695657,-6.0
1.0312671420735053,-6.0
1.0322644990774448,-2.0
1.0332618560813844,6.0
1.0342592130853239,8.0
1.0352565700892635,11.0
1.036253927093203,11.0
1.0372512840971426,9.0
1.038248641101082,5.0
1.0392459981050217,6.0
1.0402433551089614,8.0
1.0412407121129008,4.0
1.0422380691168405,-4.0
1.04323542612078,-9.0
1.0442327831247196,-8.0
1.045230140128659,0.0
1.0462274971325987,-9.0
1.047224854136538,-14.0
1.0482222111404778,-8.0
1.0492195681444174,-5.0
1.0502169251483569,-5.0
1.0512142821522965,-6.0
1.052211639156236,-2.0
1.0532089961601756,4.0
1.054206353164115,8.0
1.0552037101680547,11.0
1.0562010671719944,11.0
1.0571984241759338,11.0
1.0581957811798735,6.0
1.0591931381838129,6.0
1.0601904951877525,4.0
1.061187852191692,6.0
1.0621852091956316,1.0
1.063182566199571,-5.0
1.0641799232035107,-5.0
1.0651772802074504,-6.0
1.0661746372113898,-11.0
1.0671719942153295,-8.0
1.068169351219269,-6.0
1.0691667082232086,-8.0
1.070164065227148,-11.0
1.0711614222310877,-11.0
1.0721587792350271,-3.0
1.0731561362389668,5.0
1.0741534932429064,8.0
1.0751508502468459,11.0
1.0761482072507855,14.0
1.077145564254725,9.0
1.0781429212586646,7.0
1.079140278262604,8.0
1.0801376352665437,6.0
1.0811349922704832,5.0
1.0821323492744228,-1.0
1.0831297062783625,-5.0
1.084127063282302,-8.0
1.0851244202862416,-10.0
1.086121777290181,-16.0
1.0871191342941207,-11.0
1.08811649129806,-6.0
1.0891138483019998,-4.0
1.0901112053059392,-7.0
1.0911085623098788,-8.0
1.0921059193138185,-2.0
1.093103276317758,7.0
1.0941006333216976,10.0
1.095097990325637,11.0
1.0960953473295767,11.0
1.0970927043335161,13.0
1.0980900613374558,6.0
1.0990874183413952,6.0
1.1000847753453349,6.0
1.1010821323492745,4.0
1.102079489353214,3.0
1.1030768463571536,-3.0
1.104074203361093,-9.0
1.1050715603650327,-9.0
1.1060689173689722,-12.0
1.1070662743729118,-10.0
1.1080636313768515,-7.0
1.109060988380791,-6.0
1.1100583453847306,-11.0
1.11105570238867,-8.0
1.1120530593926097,2.0
1.1130504163965491,9.0
1.1140477734004888,9.0
1.1150451304044282,9.0
1.1160424874083679,11.0
1.1170398444123075,8.0
1.118037201416247,7.0
1.1190345584201866,7.0
1.120031915424126,4.0
1.1210292724280657,4.0
1.1220266294320052,-2.0
1.1230239864359448,-5.0
1.1240213434398842,-5.0
1.125018700443824,-7.0
1.1260160574477636,-10.0
1.127013414451703,-13.0
1.1280107714556427,-8.0
1.129008128459582,-7.0
1.1300054854635218,-5.0
1.1310028424674612,-5.0
1.1320001994714008,-4.0
1.1329975564753403,1.0
1.13399491347928,5.0
1.1349922704832196,14.0
1.135989627487159,16.0
1.1369869844910987,13.0
1.1379843414950381,4.0
1.1389816984989778,4.0
1.1399790555029172,6.0
1.1409764125068569,2.0
1.1419737695107963,-3.0
1.142971126514736,-4.0
1.1439684835186756,-5.0
1.144965840522615,-6.0
1.1459631975265547,-11.0
1.1469605545304942,-9.0
1.1479579115344338,-7.0
1.1489552685383733,-9.0
1.149952625542313,-8.0
1.1509499825462524,-4.0
1.151947339550192,-2.0
1.1529446965541317,7.0
1.1539420535580711,9.0
1.1549394105620108,9.0
1.1559367675659502,12.0
1.1569341245698899,12.0
1.1579314815738293,8.0
1.158928838577769,8.0
1.1599261955817086,4.0
1.160923552585648,2.0
1.1619209095895877,0.0
1.1629182665935272,-3.0
1.1639156235974668,-7.0
1.1649129806014062,-9.0
1.165910337605346,-13.0
1.1669076946092853,-10.0
1.167905051613225,-6.0
1.1689024086171647,-7.0
1.169899765621104,-7.0
1.1708971226250438,-7.0
1.1718944796289832,-2.0
1.1728918366329228,4.0
1.1738891936368623,10.0
1.174886550640802,16.0
1.1758839076447414,15.0
1.176881264648681,6.0
1.1778786216526207,0.0
1.1788759786565601,2.0
1.1798733356604998,6.0
1.1808706926644392,8.0
1.1818680496683789,1.0
1.1828654066723183,-5.0
1.183862763676258,-9.0
1.1848601206801974,-11.0
1.185857477684137,-12.0
1.1868548346880767,-9.0
1.1878521916920162,-5.0
1.1888495486959558,-8.0
1.1898469056998953,-8.0
1.190844262703835,-5.0
1.1918416197077744,1.0
1.192838976711714,6.0
1.1938363337156535,9.0
1.1948336907195931,11.0
1.1958310477235328,13.0
1.1968284047274722,10.0
1.1978257617314119,8.0
1.1988231187353513,6.0
1.199820475739291,5.0
1.2008178327432304,5.0
1.20181518974717,-3.0
1.2028125467511095,-4.0
1.2038099037550491,-6.0
1.2048072607589888,-8.0
1.2058046177629282,-11.0
1.206801974766868,-11.0
1.2077993317708073,-6.0
1.208796688774747,-8.0
1.2097940457786864,-8.0
1.210791402782626,-6.0
1.2117887597865658,0.0
1.2127861167905052,6.0
1.2137834737944448,9.0
1.2147808307983843,11.0
1.215778187802324,12.0
1.2167755448062634,12.0
1.217772901810203,5.0
1.2187702588141425,6.0
1.2197676158180821,5.0
1.2207649728220218,3.0
1.2217623298259612,-1.0
1.2227596868299009,-7.0
1.2237570438338403,-10.0
1.22475440083778,-10.0
1.2257517578417194,-11.0
1.226749114845659,-9.0
1.2277464718495985,-5.0
1.2287438288535382,-4.0
1.2297411858574778,-7.0
1.2307385428614173,-6.0
1.231735899865357,0.0
1.2327332568692964,4.0
1.233730613873236,7.0
1.2347279708771755,12.0
1.235725327881115,11.0
1.2367226848850545,11.0
1.2377200418889942,5.0
1.2387173988929339,8.0
1.2397147558968733,5.0
1.240712112900813,2.0
1.2417094699047524,-2.0
1.242706826908692,-2.0
1.2437041839126315,-6.0
1.2447015409165711,-10.0
1.2456988979205106,-15.0
1.2466962549244502,-16.0
1.24769361192839,-3.0
1.2486909689323293,-5.0
1.249688325936269,-6.0
1.2506856829402084,-5.0
1.251683039944148,2.0
1.2526803969480875,4.0
1.2536777539520272,7.0
1.2546751109559666,14.0
1.2556724679599063,16.0
1.256669824963846,11.0
1.2576671819677854,4.0
1.258664538971725,3.0
1.2596618959756645,2.0
1.2606592529796041,4.0
1.2616566099835436,-2.0
1.2626539669874832,-5.0
1.2636513239914229,-9.0
1.2646486809953623,-8.0
1.265646037999302,-11.0
1.2666433950032414,-9.0
1.267640752007181,-5.0
1.2686381090111205,-7.0
1.2696354660150602,-6.0
1.2706328230189996,-3.0
1.2716301800229393,2.0
1.272627537026879,4.0
1.2736248940308184,9.0
1.274622251034758,12.0
1.2756196080386975,12.0
1.276616965042637,10.0
1.2776143220465765,7.0
1.2786116790505162,9.0
1.2796090360544556,6.0
1.2806063930583953,4.0
1.281603750062335,-7.0
1.2826011070662744,-8.0
1.283598464070214,-8.0
1.2845958210741535,-10.0
1.2855931780780931,-10.0
1.2865905350820326,-8.0
1.2875878920859722,-5.0
1.2885852490899117,-8.0
1.2895826060938513,-7.0
1.290579963097791,-5.0
1.2915773201017304,3.0
1.29257467710567,4.0
1.2935720341096095,11.0
1.2945693911135492,10.0
1.2955667481174886,10.0
1.2965641051214283,5.0
1.2975614621253677,4.0
1.2985588191293074,6.0
1.299556176133247,4.0
1.3005535331371865,4.0
1.3015508901411261,-2.0
1.3025482471450656,-5.0
1.3035456041490052,-7.0
1.3045429611529447,-10.0
1.3055403181568843,-11.0
1.3065376751608238,-10.0
1.3075350321647634,-5.0
1.308532389168703,-6.0
1.3095297461726425,-7.0
1.3105271031765822,-7.0
1.3115244601805216,-3.0
1.3125218171844613,6.0
1.3135191741884007,7.0
1.3145165311923404,12.0
1.3155138881962798,13.0
1.3165112452002194,9.0
1.317508602204159,9.0
1.3185059592080985,7.0
1.3195033162120382,3.0
1.3205006732159776,6.0
1.3214980302199173,3.0
1.3224953872238567,-8.0
1.3234927442277964,-11.0
1.324490101231736,-9.0
1.3254874582356755,-10.0
1.3264848152396151,-11.0
1.3274821722435546,-7.0
1.3284795292474942,-8.0
1.3294768862514337,-6.0
1.3304742432553733,-5.0
1.3314716002593128,0.0
1.3324689572632524,5.0
1.333466314267192,9.0
1.3344636712711315,11.0
1.3354610282750712,13.0
1.3364583852790106,12.0
1.3374557422829503,7.0
1.3384530992868897,4.0
1.3394504562908294,2.0
1.3404478132947688,4.0
1.3414451702987085,2.0
1.3424425273026481,-4.0
1.3434398843065876,-10.0
1.3444372413105272,-11.0
1.3454345983144667,-10.0
1.3464319553184063,-11.0
1.3474293123223458,-5.0
1.3484266693262854,-4.0
1.3494240263302248,-6.0
1.3504213833341645,-11.0
1.3514187403381042,-3.0
1.3524160973420436,7.0
1.3534134543459833,9.0
1.3544108113499227,10.0
1.3554081683538624,11.0
1.3564055253578018,11.0
1.3574028823617414,4.0
1.3584002393656809,5.0
1.3593975963696205,4.0
1.3603949533735602,3.0
1.3613923103774996,0.0
1.3623896673814393,-3.0
1.3633870243853787,-6.0
1.3643843813893184,-10.0
1.3653817383932578,-11.0
1.3663790953971975,-8.0
1.367376452401137,-8.0
1.3683738094050766,-7.0
1.3693711664090162,-8.0
1.3703685234129557,-5.0
1.3713658804168953,1.0
1.3723632374208348,4.0
1.3733605944247744,8.0
1.3743579514287139,12.0
1.3753553084326535,18.0
1.3763526654365932,13.0
1.3773500224405326,5.0
1.3783473794444723,0.0
1.3793447364484117,1.0
1.3803420934523514,1.0
1.3813394504562908,2.0
1.3823368074602305,-2.0
1.38333416446417,-5.0
1.3843315214681096,-7.0
1.3853288784720492,-16.0
1.3863262354759887,-14.0
1.3873235924799283,-2.0
1.3883209494838678,-5.0
1.3893183064878074,-2.0
1.3903156634917468,-6.0
1.3913130204956865,-3.0
1.392310377499626,2.0
1.3933077345035656,9.0
1.3943050915075053,11.0
1.3953024485114447,12.0
1.3962998055153844,8.0
1.3972971625193238,6.0
1.3982945195232634,6.0
1.3992918765272029,-1.0
1.4002892335311425,1.0
1.401286590535082,0.0
1.4022839475390216,-3.0
1.4032813045429613,-7.0
1.4042786615469007,-10.0
1.4052760185508404,-10.0
1.4062733755547798,-10.0
1.4072707325587195,-3.0
1.408268089562659,-7.0
1.4092654465665986,-7.0
1.410262803570538,-4.0
1.4112601605744777,0.0
1.4122575175784173,5.0
1.4132548745823568,6.0
1.4142522315862964,9.0
1.4152495885902359,12.0
1.4162469455941755,10.0
1.417244302598115,6.0
1.4182416596020546,7.0
1.419239016605994,4.0
1.4202363736099337,4.0
1.4212337306138734,0.0
1.4222310876178128,-4.0
1.4232284446217525,-9.0
1.424225801625692,-8.0
1.4252231586296316,-12.0
1.426220515633571,-9.0
1.4272178726375107,-6.0
1.4282152296414503,-9.0
1.4292125866453897,-9.0
1.4302099436493294,-5.0
1.4312073006532688,0.0
1.4322046576572085,3.0
1.433202014661148,9.0
1.4341993716650876,14.0
1.435196728669027,12.0
1.4361940856729667,11.0
1.4371914426769063,6.0
1.4381887996808458,6.0
1.4391861566847854,5.0
1.4401835136887249,3.0
1.4411808706926645,1.0
1.442178227696604,-5.0
1.4431755847005436,-9.0
1.444172941704483,-11.0
1.4451702987084227,-11.0
1.4461676557123624,-10.0
1.4471650127163018,-5.0
1.4481623697202415,-7.0
1.449159726724181,-7.0
1.4501570837281206,-4.0
1.45115444073206,3.0
1.4521517977359997,5.0
1.453149154739939,8.0
1.4541465117438788,8.0
1.4551438687478184,12.0
1.4561412257517579,12.0
1.4571385827556975,7.0
1.458135939759637,7.0
1.4591332967635766,6.0
1.460130653767516,3.0
1.4611280107714557,-3.0
1.4621253677753951,-7.0
1.4631227247793348,-8.0
1.4641200817832745,-10.0
1.465117438787214,-18.0
1.4661147957911536,-8.0
1.467112152795093,-2.0
1.4681095097990327,-4.0
1.469106866802972,-6.0
1.4701042238069117,-9.0
1.4711015808108512,-4.0
1.4720989378147908,4.0
1.4730962948187305,10.0
1.47409365182267,11.0
1.4750910088266096,14.0
1.476088365830549,11.0
1.4770857228344887,5.0
1.4780830798384281,6.0
1.4790804368423678,4.0
1.4800777938463074,1.0
1.4810751508502469,0.0
1.4820725078541865,-4.0
1.483069864858126,-6.0
1.4840672218620656,-9.0
1.485064578866005,-11.0
1.4860619358699447,-10.0
1.4870592928738842,-7.0
1.4880566498778238,-8.0
1.4890540068817635,-6.0
1.490051363885703,-4.0
1.4910487208896426,4.0
1.492046077893582,6.0
1.4930434348975217,6.0
1.494040791901461,10.0
1.4950381489054008,14.0
1.4960355059093402,9.0
1.4970328629132799,3.0
1.4980302199172195,8.0
1.499027576921159,9.0
1.5000249339250986,3.0
1.501022290929038,0.0
1.5020196479329777,-4.0
1.5030170049369171,-11.0
1.5040143619408568,-14.0
1.5050117189447962,-14.0
1.506009075948736,-9.0
1.5070064329526756,-3.0
1.508003789956615,-5.0
1.5090011469605547,-5.0
1.509998503964494,-6.0
1.5109958609684337,-1.0
1.5119932179723732,6.0
1.5129905749763128,8.0
1.5139879319802523,10.0
1.514985288984192,14.0
1.5159826459881316,11.0
1.516980002992071,1.0
1.5179773599960107,1.0
1.5189747169999501,9.0
1.5199720740038898,8.0
1.5209694310078292,0.0
1.5219667880117689,-5.0
1.5229641450157083,-8.0
1.523961502019648,-12.0
1.5249588590235876,-11.0
1.525956216027527,-11.0
1.5269535730314667,-9.0
1.5279509300354062,-10.0
1.5289482870393458,-5.0
1.5299456440432853,-3.0
1.530943001047225,2.0
1.5319403580511644,4.0
1.532937715055104,8.0
1.5339350720590437,10.0
1.534932429062983,11.0
1.5359297860669228,12.0
1.5369271430708622,6.0
1.5379245000748019,8.0
1.5389218570787413,8.0
1.539919214082681,3.0
1.5409165710866206,-1.0
1.54191392809056,-6.0
1.5429112850944997,-8.0
1.5439086420984391,-10.0
1.5449059991023788,-10.0
1.5459033561063182,-13.0
1.546900713110258,-8.0
1.5478980701141973,-3.0
1.548895427118137,-7.0
1.5498927841220766,-8.0
1.550890141126016,-2.0
1.5518874981299557,5.0
1.5528848551338952,9.0
1.5538822121378348,11.0
1.5548795691417743,13.0
1.555876926145714,10.0
1.5568742831496534,6.0
1.557871640153593,8.0
1.5588689971575327,5.0
1.5598663541614721,4.0
1.5608637111654118,-3.0
1.5618610681693512,-5.0
1.5628584251732909,-6.0
1.5638557821772303,-7.0
1.56485313918117,-12.0
1.5658504961851094,-12.0
1.566847853189049,-10.0
1.5678452101929887,-9.0
1.5688425671969282,-7.0
1.5698399242008678,-4.0
1.5708372812048073,0.0
1.571834638208747,8.0
1.5728319952126864,8.0
1.573829352216626,10.0
1.5748267092205654,12.0
1.575824066224505,11.0
1.5768214232284448,3.0
1.5778187802323842,7.0
1.5788161372363239,4.0
1.5798134942402633,3.0
1.580810851244203,0.0
1.5818082082481424,-4.0
1.582805565252082,-7.0
1.5838029222560215,-12.0
1.5848002792599611,-11.0
1.5857976362639008,-9.0
1.5867949932678402,-6.0
1.58779235027178,-8.0
1.5887897072757193,-8.0
1.589787064279659,-3.0
1.5907844212835984,1.0
1.591781778287538,7.0
1.5927791352914777,9.0
1.5937764922954172,12.0
1.5947738492993568,14.0
1.5957712063032963,9.0
1.596768563307236,4.0
1.5977659203111754,5.0
1.598763277315115,6.0
1.5997606343190545,3.0
1.6007579913229941,0.0
1.6017553483269338,-5.0
1.6027527053308732,-8.0
1.6037500623348129,-11.0
1.6047474193387523,-11.0
1.605744776342692,-10.0
1.6067421333466314,-8.0
1.607739490350571,-7.0
1.6087368473545105,-6.0
1.6097342043584502,-7.0
1.6107315613623898,-2.0
1.6117289183663293,4.0
1.612726275370269,13.0
1.6137236323742083,15.0
1.614720989378148,12.0
1.6157183463820874,5.0
1.616715703386027,3.0
1.6177130603899665,5.0
1.6187104173939062,4.0
1.6197077743978459,2.0
1.6207051314017853,3.0
1.621702488405725,-2.0
1.6226998454096644,-8.0
1.623697202413604,-9.0
1.6246945594175435,-14.0
1.6256919164214831,-10.0
1.6266892734254226,-7.0
1.6276866304293622,-6.0
1.628683987433302,-8.0
1.6296813444372413,-3.0
1.630678701441181,0.0
1.6316760584451204,4.0
1.63267341544906,8.0
1.6336707724529995,12.0
1.6346681294569392,11.0
1.6356654864608786,8.0
1.6366628434648183,5.0
1.637660200468758,8.0
1.6386575574726974,9.0
1.639654914476637,4.0
1.6406522714805765,-1.0
1.6416496284845161,-4.0
1.6426469854884556,-9.0
1.6436443424923952,-10.0
1.6446416994963349,-13.0
1.6456390565002743,-11.0
1.646636413504214,-4.0
1.6476337705081534,-8.0
1.648631127512093,-5.0
1.6496284845160325,-5.0
1.6506258415199722,-3.0
1.6516231985239116,6.0
1.6526205555278513,9.0
1.653617912531791,11.0
1.6546152695357303,11.0
1.65561262653967,8.0
1.6566099835436094,6.0
1.657607340547549,7.0
1.6586046975514885,4.0
1.6596020545554282,4.0
1.6605994115593676,0.0
1.6615967685633073,-5.0
1.662594125567247,-10.0
1.6635914825711864,-9.0
1.664588839575126,-11.0
1.6655861965790655,-8.0
1.6665835535830051,-3.0
1.6675809105869446,-5.0
1.6685782675908842,-5.0
1.6695756245948237,-5.0
1.6705729815987633,0.0
1.671570338602703,4.0
1.6725676956066424,4.0
1.673565052610582,6.0
1.6745624096145215,13.0
1.6755597666184612,13.0
1.6765571236224006,7.0
1.6775544806263403,6.0
1.6785518376302797,6.0
1.6795491946342194,6.0
1.680546551638159,2.0
1.6815439086420985,-4.0
1.6825412656460381,-12.0
1.6835386226499776,-12.0
1.6845359796539172,-7.0
1.6855333366578567,-5.0
1.6865306936617963,-7.0
1.6875280506657357,-12.0
1.6885254076696754,-9.0
1.689522764673615,-2.0
1.6905201216775545,1.0
1.6915174786814942,5.0
1.6925148356854336,9.0
1.6935121926893733,11.0
1.6945095496933127,12.0
1.6955069066972523,8.0
1.696504263701192,6.0
1.6975016207051314,7.0
1.698498977709071,6.0
1.6994963347130105,4.0
1.7004936917169502,-1.0
1.7014910487208896,-4.0
1.7024884057248293,-11.0
1.7034857627287687,-10.0
1.7044831197327084,-11.0
1.705480476736648,-11.0
1.7064778337405875,-7.0
1.7074751907445271,-7.0
1.7084725477484666,-5.0
1.7094699047524062,-5.0
1.7104672617563457,-2.0
1.7114646187602853,6.0
1.7124619757642248,10.0
1.7134593327681644,12.0
1.714456689772104,12.0
1.7154540467760435,12.0
1.7164514037799832,5.0
1.7174487607839226,3.0
1.7184461177878623,8.0
1.7194434747918017,8.0
1.7204408317957414,-4.0
1.7214381887996808,-10.0
1.7224355458036205,-11.0
1.7234329028075601,-5.0
1.7244302598114996,-11.0
1.7254276168154392,-11.0
1.7264249738193786,-3.0
1.7274223308233183,-5.0
1.7284196878272577,-4.0
1.7294170448311974,-5.0
1.7304144018351368,-7.0
1.7314117588390765,0.0
1.7324091158430162,13.0
1.7334064728469556,16.0
1.7344038298508953,15.0
1.7354011868548347,9.0
1.7363985438587743,5.0
1.7373959008627138,9.0
1.7383932578666534,7.0
1.7393906148705929,4.0
1.7403879718745325,-3.0
1.7413853288784722,-3.0
1.7423826858824116,-8.0
1.7433800428863513,-9.0
1.7443773998902907,-13.0
1.7453747568942304,-13.0
1.7463721138981698,-5.0
1.7473694709021095,-3.0
1.7483668279060491,-8.0
1.7493641849099886,-7.0
1.7503615419139282,3.0
1.7513588989178677,8.0
1.7523562559218073,6.0
1.7533536129257468,8.0
1.7543509699296864,15.0
1.7553483269336259,10.0
1.7563456839375655,5.0
1.7573430409415052,4.0
1.7583403979454446,5.0
1.7593377549493843,5.0
1.7603351119533237,-1.0
1.7613324689572634,-4.0
1.7623298259612028,-9.0
1.7633271829651425,-8.0
1.764324539969082,-13.0
1.7653218969730216,-7.0
1.7663192539769612,-6.0
1.7673166109809006,-9.0
1.7683139679848403,-7.0
1.7693113249887797,-7.0
1.7703086819927194,1.0
1.7713060389966588,6.0
1.7723033960005985,10.0
1.773300753004538,12.0
1.7742981100084776,14.0
1.7752954670124172,8.0
1.7762928240163567,7.0
1.7772901810202963,6.0
1.7782875380242358,5.0
1.7792848950281754,5.0
1.7802822520321149,-2.0
1.7812796090360545,-6.0
1.782276966039994,-10.0
1.7832743230439336,-9.0
1.7842716800478733,-9.0
1.7852690370518127,-11.0
1.7862663940557524,-12.0
1.7872637510596918,-7.0
1.7882611080636315,-5.0
1.789258465067571,-3.0
1.7902558220715106,1.0
1.79125317907545,7.0
1.7922505360793897,9.0
1.7932478930833293,10.0
1.7942452500872688,13.0
1.7952426070912084,11.0
1.7962399640951479,4.0
1.7972373210990875,8.0
1.798234678103027,6.0
1.7992320351069666,3.0
1.800229392110906,-1.0
1.8012267491148457,-5.0
1.8022241061187854,-10.0
1.8032214631227248,-10.0
1.8042188201266645,-11.0
1.805216177130604,-11.0
1.8062135341345436,-5.0
1.807210891138483,-9.0
1.8082082481424226,-8.0
1.8092056051463623,-2.0
1.8102029621503017,2.0
1.8112003191542414,7.0
1.8121976761581808,7.0
1.8131950331621205,9.0
1.81419239016606,12.0
1.8151897471699996,13.0
1.816187104173939,8.0
1.8171844611778787,8.0
1.8181818181818183,4.0
1.8191791751857578,1.0
1.8201765321896974,-3.0
1.8211738891936369,-7.0
1.8221712461975765,-10.0
1.823168603201516,-9.0
1.8241659602054556,-10.0
1.825163317209395,-7.0
1.8261606742133347,-4.0
1.8271580312172744,-6.0
1.8281553882212138,-7.0
1.8291527452251535,-5.0
1.830150102229093,-5.0
1.8311474592330326,3.0
1.832144816236972,9.0
1.8331421732409117,9.0
1.834139530244851,14.0
1.8351368872487908,12.0
1.8361342442527304,5.0
1.8371316012566699,7.0
1.8381289582606095,8.0
1.839126315264549,4.0
1.8401236722684886,0.0
1.841121029272428,-7.0
1.8421183862763677,-8.0
1.8431157432803071,-9.0
1.8441131002842468,-12.0
1.8451104572881865,-10.0
1.846107814292126,-5.0
1.8471051712960656,-10.0
1.848102528300005,-8.0
1.8490998853039446,-4.0
1.850097242307884,1.0
1.8510945993118237,6.0
1.8520919563157632,8.0
1.8530893133197028,10.0
1.8540866703236425,12.0
1.855084027327582,11.0
1.8560813843315216,8.0
1.857078741335461,5.0
1.8580760983394007,3.0
1.8590734553433401,5.0
1.8600708123472798,1.0
1.8610681693512194,-7.0
1.8620655263551589,-8.0
1.8630628833590985,-7.0
1.864060240363038,-10.0
1.8650575973669776,-9.0
1.866054954370917,-8.0
1.8670523113748567,-11.0
1.8680496683787962,-10.0
1.8690470253827358,-6.0
1.8700443823866755,4.0
1.871041739390615,6.0
1.8720390963945546,10.0
1.873036453398494,14.0
1.8740338104024337,11.0
1.875031167406373,7.0
1.8760285244103128,1.0
1.8770258814142522,7.0
1.8780232384181919,11.0
1.8790205954221315,10.0
1.880017952426071,1.0
1.8810153094300106,-4.0
1.88201266643395,-13.0
1.8830100234378897,-17.0
1.8840073804418291,-14.0
1.8850047374457688,-5.0
1.8860020944497082,2.0
1.886999451453648,-7.0
1.8879968084575875,-10.0
1.888994165461527,-10.0
1.8899915224654666,1.0
1.890988879469406,5.0
1.8919862364733457,12.0
1.8929835934772852,11.0
1.8939809504812248,12.0
1.8949783074851643,11.0
1.895975664489104,4.0
1.8969730214930436,3.0
1.897970378496983,4.0
1.8989677355009227,4.0
1.8999650925048621,0.0
1.9009624495088018,-3.0
1.9019598065127412,-8.0
1.9029571635166809,-10.0
1.9039545205206203,-11.0
1.90495187752456,-10.0
1.9059492345284996,-5.0
1.906946591532439,-7.0
1.9079439485363787,-7.0
1.9089413055403182,-4.0
1.9099386625442578,-1.0
1.9109360195481973,6.0
1.911933376552137,8.0
1.9129307335560766,9.0
1.913928090560016,12.0
1.9149254475639557,10.0
1.915922804567895,5.0
1.9169201615718348,6.0
1.9179175185757742,5.0
1.9189148755797139,4.0
1.9199122325836533,-1.0
1.920909589587593,-6.0
1.9219069465915326,-8.0
1.922904303595472,-10.0
1.9239016605994117,-11.0
1.9248990176033511,-8.0
1.9258963746072908,-3.0
1.9268937316112302,-7.0
1.92789108861517,-10.0
1.9288884456191093,-8.0
1.929885802623049,1.0
1.9308831596269886,8.0
1.931880516630928,10.0
1.9328778736348677,11.0
1.9338752306388072,11.0
1.9348725876427468,9.0
1.9358699446466863,5.0
1.936867301650626,7.0
1.9378646586545654,7.0
1.938862015658505,4.0
1.9398593726624447,0.0
1.9408567296663841,-9.0
1.9418540866703238,-12.0
1.9428514436742632,-10.0
1.9438488006782029,-10.0
1.9448461576821423,-7.0
1.945843514686082,-8.0
1.9468408716900214,-9.0
1.947838228693961,-5.0
1.9488355856979007,-5.0
1.9498329427018402,-1.0
1.9508302997057798,5.0
1.9518276567097192,9.0
1.952825013713659,8.0
1.9538223707175983,13.0
1.954819727721538,13.0
1.9558170847254774,5.0
1.956814441729417,4.0
1.9578117987333568,4.0
1.9588091557372962,3.0
1.9598065127412359,-1.0
1.9608038697451753,-5.0
1.961801226749115,-8.0
1.9627985837530544,-10.0
1.963795940756994,-11.0
1.9647932977609337,-9.0
1.9657906547648731,-7.0
1.9667880117688128,-7.0
1.9677853687727522,-8.0
1.9687827257766919,-6.0
1.9697800827806313,-2.0
1.970777439784571,7.0
1.9717747967885104,7.0
1.97277215379245,12.0
1.9737695107963897,16.0
1.9747668678003292,11.0
1.9757642248042688,5.0
1.9767615818082083,5.0
1.977758938812148,4.0
1.9787562958160874,4.0
1.979753652820027,1.0
1.9807510098239665,-7.0
1.9817483668279061,-8.0
1.9827457238318458,-10.0
1.9837430808357852,-11.0
1.9847404378397249,-11.0
1.9857377948436643,-3.0
1.986735151847604,-5.0
1.9877325088515434,-6.0
1.988729865855483,-5.0
1.9897272228594225,0.0
1.9907245798633622,3.0
1.9917219368673018,7.0
1.9927192938712412,9.0
1.993716650875181,8.0
1.9947140078791203,13.0
1.99571136488306,10.0
1.9967087218869994,10.0
1.997706078890939,5.0
1.9987034358948785,2.0
1.9997007928988182,-5.0
2.0006981499027576,-7.0
2.0016955069066973,-7.0
2.002692863910637,-8.0
2.0036902209145766,-10.0
2.004687577918516,-10.0
2.0056849349224555,-7.0
2.006682291926395,-8.0
2.007679648930335,-6.0
2.0086770059342745,-3.0
2.0096743629382137,-1.0
2.0106717199421533,3.0
2.011669076946093,9.0
2.0126664339500326,11.0
2.013663790953972,12.0
2.0146611479579115,11.0
2.015658504961851,3.0
2.016655861965791,6.0
2.0176532189697305,4.0
2.0186505759736697,5.0
2.0196479329776094,0.0
2.020645289981549,-5.0
2.0216426469854887,-12.0
2.022640003989428,-11.0
2.0236373609933676,-8.0
2.024634717997307,-8.0
2.025632075001247,-6.0
2.0266294320051865,-9.0
2.0276267890091257,-4.0
2.0286241460130654,-3.0
2.029621503017005,-3.0
2.0306188600209447,4.0
2.031616217024884,8.0
2.0326135740288236,4.0
2.0336109310327632,13.0
2.034608288036703,20.0
2.0356056450406426,10.0
2.036603002044582,7.0
2.0376003590485214,1.0
2.038597716052461,-1.0
2.0395950730564008,-4.0
2.04059243006034,-5.0
2.0415897870642796,-7.0
2.0425871440682193,-10.0
2.043584501072159,-10.0
2.0445818580760986,-12.0
2.045579215080038,-4.0
2.0465765720839775,-3.0
2.047573929087917,-6.0
2.048571286091857,-6.0
2.049568643095796,-3.0
2.0505660000997357,4.0
2.0515633571036753,10.0
2.052560714107615,13.0
2.0535580711115546,12.0
2.054555428115494,12.0
2.0555527851194335,5.0
2.056550142123373,7.0
2.057547499127313,4.0
2.058544856131252,4.0
2.0595422131351917,0.0
2.0605395701391314,-8.0
2.061536927143071,-8.0
2.0625342841470107,-8.0
2.06353164115095,-11.0
2.0645289981548895,-10.0
2.065526355158829,-7.0
2.066523712162769,-7.0
2.067521069166708,-9.0
2.0685184261706477,-5.0
2.0695157831745874,-1.0
2.070513140178527,4.0
2.0715104971824667,6.0
2.072507854186406,11.0
2.0735052111903456,15.0
2.0745025681942852,12.0
2.075499925198225,9.0
2.076497282202164,6.0
2.0774946392061038,3.0
2.0784919962100434,5.0
2.079489353213983,3.0
2.0804867102179228,-6.0
2.081484067221862,-11.0
2.0824814242258016,-12.0
2.0834787812297413,-13.0
2.084476138233681,-8.0
2.08547349523762,-5.0
2.08647085224156,-8.0
2.0874682092454995,-7.0
2.088465566249439,-5.0
2.089462923253379,1.0
2.090460280257318,6.0
2.0914576372612577,10.0
2.0924549942651973,9.0
2.093452351269137,8.0
2.094449708273076,9.0
2.095447065277016,8.0
2.0964444222809555,12.0
2.097441779284895,5.0
2.098439136288835,3.0
2.099436493292774,-3.0
2.1004338502967137,-5.0
2.1014312073006534,-8.0
2.102428564304593,-10.0
2.1034259213085327,-11.0
2.104423278312472,-10.0
2.1054206353164115,-4.0
2.106417992320351,-5.0
2.107415349324291,-6.0
2.10841270632823,-6.0
2.1094100633321697,-4.0
2.1104074203361094,1.0
2.111404777340049,10.0
2.1124021343439887,14.0
2.113399491347928,14.0
2.1143968483518676,12.0
2.1153942053558072,5.0
2.116391562359747,6.0
2.117388919363686,7.0
2.1183862763676258,3.0
2.1193836333715654,0.0
2.120380990375505,-3.0
2.1213783473794448,-10.0
2.122375704383384,-15.0
2.1233730613873236,-15.0
2.1243704183912633,-8.0
2.125367775395203,-4.0
2.126365132399142,-8.0
2.127362489403082,-7.0
2.1283598464070215,-3.0
2.129357203410961,1.0
2.130354560414901,6.0
2.13135191741884,9.0
2.1323492744227797,11.0
2.1333466314267193,11.0
2.134343988430659,12.0
2.135341345434598,8.0
2.136338702438538,7.0
2.1373360594424775,5.0
2.138333416446417,5.0
2.139330773450357,-2.0
2.140328130454296,-7.0
2.1413254874582357,-8.0
2.1423228444621754,-11.0
2.143320201466115,-11.0
2.1443175584700542,-10.0
2.145314915473994,-7.0
2.1463122724779335,-7.0
2.147309629481873,-9.0
2.148306986485813,-8.0
2.149304343489752,4.0
2.1503017004936917,5.0
2.1512990574976314,7.0
2.152296414501571,9.0
2.1532937715055103,15.0
2.15429112850945,14.0
2.1552884855133896,7.0
2.1562858425173292,6.0
2.157283199521269,4.0
2.158280556525208,-2.0
2.1592779135291478,1.0
2.1602752705330874,-4.0
2.161272627537027,-8.0
2.1622699845409663,-10.0
2.163267341544906,-11.0
2.1642646985488456,-10.0
2.1652620555527853,-9.0
2.166259412556725,-9.0
2.167256769560664,-16.0
2.168254126564604,-6.0
2.1692514835685435,6.0
2.170248840572483,9.0
2.1712461975764223,12.0
2.172243554580362,11.0
2.1732409115843017,13.0
2.1742382685882413,11.0
2.175235625592181,5.0
2.17623298259612,5.0
2.17723033960006,3.0
2.1782276966039995,0.0
2.179225053607939,2.0
2.1802224106118784,-5.0
2.181219767615818,-7.0
2.1822171246197577,-10.0
2.1832144816236974,-10.0
2.184211838627637,-11.0
2.1852091956315762,-5.0
2.186206552635516,-8.0
2.1872039096394555,-9.0
2.188201266643395,-7.0
2.1891986236473344,1.0
2.190195980651274,8.0
2.1911933376552137,10.0
2.1921906946591534,10.0
2.193188051663093,12.0
2.1941854086670323,11.0
2.195182765670972,6.0
2.1961801226749116,5.0
2.1971774796788512,5.0
2.1981748366827905,4.0
2.19917219368673,-1.0
2.2001695506906698,-4.0
2.2011669076946094,-8.0
2.202164264698549,-10.0
2.2031616217024883,-13.0
2.204158978706428,-12.0
2.2051563357103676,-8.0
2.2061536927143073,-10.0
2.207151049718247,-8.0
2.208148406722186,-3.0
2.209145763726126,4.0
2.2101431207300655,9.0
2.211140477734005,10.0
2.2121378347379443,6.0
2.213135191741884,9.0
2.2141325487458237,10.0
2.2151299057497633,5.0
2.216127262753703,8.0
2.217124619757642,4.0
2.218121976761582,3.0
2.2191193337655215,-2.0
2.220116690769461,-6.0
2.2211140477734004,-8.0
2.22211140477734,-10.0
2.2231087617812797,-11.0
2.2241061187852194,-8.0
2.225103475789159,-6.0
2.2261008327930982,-7.0
2.227098189797038,-7.0
2.2280955468009775,-6.0
2.229092903804917,0.0
2.2300902608088564,5.0
2.231087617812796,8.0
2.2320849748167357,11.0
2.2330823318206754,14.0
2.234079688824615,9.0
2.2350770458285543,5.0
2.236074402832494,6.0
2.2370717598364336,8.0
2.2380691168403732,5.0
2.2390664738443125,1.0
2.240063830848252,-4.0
2.2410611878521918,-11.0
2.2420585448561314,-17.0
2.243055901860071,-15.0
2.2440532588640103,-10.0
2.24505061586795,-4.0
2.2460479728718896,-11.0
2.2470453298758293,-6.0
2.2480426868797685,-3.0
2.249040043883708,4.0
2.250037400887648,4.0
2.2510347578915875,8.0
2.252032114895527,15.0
2.2530294718994663,16.0
2.254026828903406,10.0
2.2550241859073457,5.0
2.2560215429112853,6.0
2.2570188999152245,5.0
2.258016256919164,2.0
2.259013613923104,-1.0
2.2600109709270435,-7.0
2.261008327930983,-11.0
2.2620056849349224,-6.0
2.263003041938862,-11.0
2.2640003989428017,-6.0
2.2649977559467414,-5.0
2.2659951129506806,-7.0
2.2669924699546202,-8.0
2.26798982695856,-5.0
2.2689871839624995,-3.0
2.269984540966439,5.0
2.2709818979703784,10.0
2.271979254974318,12.0
2.2729766119782577,16.0
2.2739739689821974,13.0
2.2749713259861366,5.0
2.2759686829900763,4.0
2.276966039994016,4.0
2.2779633969979556,1.0
2.2789607540018952,-2.0
2.2799581110058345,-7.0
2.280955468009774,-10.0
2.2819528250137138,-13.0
2.2829501820176534,-13.0
2.2839475390215926,-4.0
2.2849448960255323,-3.0
2.285942253029472,-7.0
2.2869396100334116,-5.0
2.2879369670373513,-7.0
2.2889343240412905,0.0
2.28993168104523,7.0
2.29092903804917,9.0
2.2919263950531095,10.0
2.2929237520570487,10.0
2.2939211090609883,6.0
2.294918466064928,5.0
2.2959158230688677,13.0
2.2969131800728073,5.0
2.2979105370767465,3.0
2.298907894080686,-1.0
2.299905251084626,-6.0
2.3009026080885655,-7.0
2.3018999650925047,-12.0
2.3028973220964444,-14.0
2.303894679100384,-10.0
2.3048920361043237,-7.0
2.3058893931082634,-7.0
2.3068867501122026,-6.0
2.3078841071161422,-3.0
2.308881464120082,1.0
2.3098788211240215,5.0
2.3108761781279608,8.0
2.3118735351319004,12.0
2.31287089213584,12.0
2.3138682491397797,11.0
2.3148656061437194,8.0
2.3158629631476586,7.0
2.3168603201515983,3.0
2.317857677155538,3.0
2.3188550341594776,-4.0
2.3198523911634172,-8.0
2.3208497481673565,-8.0
2.321847105171296,-9.0
2.3228444621752358,-10.0
2.3238418191791754,-10.0
2.3248391761831146,-5.0
2.3258365331870543,-8.0
2.326833890190994,-7.0
2.3278312471949336,-6.0
2.3288286041988733,1.0
2.3298259612028125,6.0
2.330823318206752,10.0
2.331820675210692,11.0
2.3328180322146315,13.0
2.3338153892185707,10.0
2.3348127462225103,5.0
2.33581010322645,5.0
2.3368074602303897,6.0
2.3378048172343293,3.0
2.3388021742382685,-2.0
2.339799531242208,-3.0
2.340796888246148,-8.0
2.3417942452500875,-9.0
2.3427916022540267,-13.0
2.3437889592579664,-9.0
2.344786316261906,-6.0
2.3457836732658457,-8.0
2.3467810302697854,-8.0
2.3477783872737246,-5.0
2.3487757442776642,0.0
2.349773101281604,6.0
2.3507704582855435,10.0
2.3517678152894828,11.0
2.3527651722934224,16.0
2.353762529297362,12.0
2.3547598863013017,3.0
2.3557572433052414,0.0
2.3567546003091806,5.0
2.3577519573131203,4.0
2.35874931431706,-1.0
2.3597466713209996,-8.0
2.360744028324939,-8.0
2.3617413853288785,-9.0
2.362738742332818,-11.0
2.3637360993367578,-8.0
2.3647334563406974,-4.0
2.3657308133446366,-8.0
2.3667281703485763,-4.0
2.367725527352516,-7.0
2.3687228843564556,-8.0
2.369720241360395,6.0
2.3707175983643345,17.0
2.371714955368274,17.0
2.372712312372214,15.0
2.3737096693761535,10.0
2.3747070263800927,2.0
2.3757043833840323,1.0
2.376701740387972,1.0
2.3776990973919117,3.0
2.378696454395851,0.0
2.3796938113997905,-2.0
2.38069116840373,-5.0
2.38168852540767,-12.0
2.3826858824116095,-13.0
2.3836832394155487,-11.0
2.3846805964194884,-6.0
2.385677953423428,-8.0
2.3866753104273677,-8.0
2.387672667431307,-7.0
2.3886700244352466,2.0
2.3896673814391862,5.0
2.390664738443126,6.0
2.3916620954470655,11.0
2.3926594524510048,15.0
2.3936568094549444,12.0
2.394654166458884,5.0
2.3956515234628237,7.0
2.396648880466763,5.0
2.3976462374707026,4.0
2.3986435944746423,0.0
2.399640951478582,-4.0
2.4006383084825216,-8.0
2.401635665486461,-9.0
2.4026330224904004,-12.0
2.40363037949434,-12.0
2.4046277364982798,-7.0
2.405625093502219,-7.0
2.4066224505061586,-8.0
2.4076198075100983,-4.0
2.408617164514038,0.0
2.4096145215179776,5.0
2.410611878521917,8.0
2.4116092355258565,10.0
2.412606592529796,11.0
2.413603949533736,11.0
2.414601306537675,6.0
2.4155986635416147,8.0
2.4165960205455543,6.0
2.417593377549494,4.0
2.4185907345534337,1.0
2.419588091557373,-3.0
2.4205854485613125,-9.0
2.421582805565252,-12.0
2.422580162569192,-14.0
2.4235775195731315,-8.0
2.4245748765770707,-5.0
2.4255722335810104,-6.0
2.42656959058495,-10.0
2.4275669475888897,-7.0
2.428564304592829,-1.0
2.4295616615967686,8.0
2.430559018600708,8.0
2.431556375604648,12.0
2.4325537326085875,12.0
2.4335510896125268,11.0
2.4345484466164664,6.0
2.435545803620406,5.0
2.4365431606243457,5.0
2.437540517628285,2.0
2.4385378746322246,-1.0
2.4395352316361643,-6.0
2.440532588640104,-7.0
2.4415299456440436,-10.0
2.442527302647983,-11.0
2.4435246596519224,-9.0
2.444522016655862,-3.0
2.4455193736598018,-7.0
2.446516730663741,-8.0
2.4475140876676806,-5.0
2.4485114446716203,2.0
2.44950880167556,6.0
2.4505061586794996,8.0
2.451503515683439,12.0
2.4525008726873785,13.0
2.453498229691318,8.0
2.454495586695258,5.0
2.455492943699197,9.0
2.4564903007031367,5.0
2.4574876577070763,2.0
2.458485014711016,0.0
2.4594823717149557,-5.0
2.460479728718895,-8.0
2.4614770857228345,-8.0
2.462474442726774,-9.0
2.463471799730714,-10.0
2.464469156734653,-11.0
2.4654665137385927,-12.0
2.4664638707425324,-14.0
2.467461227746472,-3.0
2.4684585847504117,6.0
2.469455941754351,6.0
2.4704532987582906,8.0
2.47145065576223,9.0
2.47244801276617,13.0
2.473445369770109,12.0
2.4744427267740488,6.0
2.4754400837779884,5.0
2.476437440781928,4.0
2.4774347977858677,5.0
2.478432154789807,-2.0
2.4794295117937466,-5.0
2.4804268687976863,-11.0
2.481424225801626,-9.0
2.482421582805565,-8.0
2.483418939809505,-7.0
2.4844162968134444,-7.0
2.485413653817384,-8.0
2.4864110108213238,-6.0
2.487408367825263,-7.0
2.4884057248292026,-2.0
2.4894030818331423,3.0
2.490400438837082,9.0
2.491397795841021,13.0
2.492395152844961,14.0
2.4933925098489005,7.0
2.49438986685284,8.0
2.49538722385678,7.0
2.496384580860719,4.0
2.4973819378646587,3.0
2.4983792948685983,-1.0
2.499376651872538,-6.0
2.500374008876477,-7.0
2.501371365880417,-10.0
2.5023687228843565,-11.0
2.503366079888296,-9.0
2.504363436892236,-7.0
2.505360793896175,-6.0
2.5063581509001147,-7.0
2.5073555079040544,-4.0
2.508352864907994,1.0
2.5093502219119332,8.0
2.510347578915873,12.0
2.5113449359198126,12.0
2.512342292923752,12.0
2.513339649927692,4.0
2.514337006931631,3.0
2.5153343639355707,8.0
2.5163317209395104,6.0
2.51732907794345,1.0
2.5183264349473893,-2.0
2.519323791951329,-5.0
2.5203211489552686,-8.0
2.5213185059592083,-10.0
2.522315862963148,-10.0
2.523313219967087,-11.0
2.524310576971027,-8.0
2.5253079339749664,-8.0
2.526305290978906,-7.0
2.5273026479828458,0.0
2.528300004986785,3.0
2.5292973619907246,5.0
2.5302947189946643,3.0
2.531292075998604,11.0
2.532289433002543,20.0
2.533286790006483,12.0
2.5342841470104225,2.0
2.535281504014362,1.0
2.536278861018302,6.0
2.537276218022241,4.0
2.5382735750261807,-2.0
2.5392709320301203,-8.0
2.54026828903406,-8.0
2.541265646037999,-9.0
2.542263003041939,-10.0
2.5432603600458785,-8.0
2.544257717049818,-5.0
2.545255074053758,-8.0
2.546252431057697,-5.0
2.5472497880616367,-5.0
2.5482471450655764,1.0
2.549244502069516,7.0
2.5502418590734552,8.0
2.551239216077395,11.0
2.5522365730813346,12.0
2.553233930085274,10.0
2.554231287089214,3.0
2.555228644093153,4.0
2.5562260010970927,4.0
2.5572233581010324,6.0
2.558220715104972,1.0
2.5592180721089113,-4.0
2.560215429112851,-7.0
2.5612127861167906,-15.0
2.5622101431207303,-19.0
2.56320750012467,-13.0
2.564204857128609,-4.0
2.565202214132549,-6.0
2.5661995711364884,-6.0
2.567196928140428,-2.0
2.5681942851443673,2.0
2.569191642148307,6.0
2.5701889991522466,8.0
2.5711863561561863,12.0
2.572183713160126,13.0
2.573181070164065,10.0
2.574178427168005,8.0
2.5751757841719445,4.0
2.576173141175884,1.0
2.5771704981798234,5.0
2.578167855183763,2.0
2.5791652121877027,-4.0
2.5801625691916423,-9.0
2.581159926195582,-11.0
2.582157283199521,-11.0
2.583154640203461,-9.0
2.5841519972074005,-6.0
2.58514935421134,-7.0
2.5861467112152794,-11.0
2.587144068219219,-4.0
2.5881414252231587,1.0
2.5891387822270984,6.0
2.590136139231038,10.0
2.5911334962349772,12.0
2.592130853238917,12.0
2.5931282102428566,9.0
2.594125567246796,5.0
2.5951229242507354,7.0
2.596120281254675,5.0
2.5971176382586147,4.0
2.5981149952625544,-4.0
2.599112352266494,-6.0
2.6001097092704333,-8.0
2.601107066274373,-11.0
2.6021044232783126,-12.0
2.6031017802822523,-8.0
2.6040991372861915,-3.0
2.605096494290131,-6.0
2.606093851294071,-7.0
2.6070912082980104,-6.0
2.60808856530195,1.0
2.6090859223058893,8.0
2.610083279309829,12.0
2.6110806363137686,10.0
2.6120779933177083,9.0
2.6130753503216475,7.0
2.614072707325587,4.0
2.615070064329527,6.0
2.6160674213334665,4.0
2.617064778337406,3.0
2.6180621353413454,0.0
2.619059492345285,-4.0
2.6200568493492247,-7.0
2.6210542063531643,-10.0
2.6220515633571035,-11.0
2.623048920361043,-8.0
2.624046277364983,-3.0
2.6250436343689225,-10.0
2.626040991372862,-10.0
2.6270383483768014,-8.0
2.628035705380741,5.0
2.6290330623846807,7.0
2.6300304193886204,11.0
2.6310277763925596,10.0
2.6320251333964992,12.0
2.633022490400439,11.0
2.6340198474043786,8.0
2.635017204408318,9.0
2.6360145614122574,3.0
2.637011918416197,-4.0
2.6380092754201367,-4.0
2.6390066324240764,-3.0
2.640003989428016,-7.0
2.6410013464319553,-10.0
2.641998703435895,-10.0
2.6429960604398346,-10.0
2.6439934174437743,-8.0
2.6449907744477135,-10.0
2.645988131451653,-8.0
2.646985488455593,-7.0
2.6479828454595324,5.0
2.648980202463472,6.0
2.6499775594674113,11.0
2.650974916471351,13.0
2.6519722734752906,14.0
2.6529696304792303,10.0
2.6539669874831695,3.0
2.654964344487109,2.0
2.655961701491049,5.0
2.6569590584949885,5.0
2.657956415498928,1.0
2.6589537725028674,-6.0
2.659951129506807,-10.0
2.6609484865107467,-11.0
2.6619458435146863,-11.0
2.6629432005186255,-11.0
2.663940557522565,-10.0
2.664937914526505,-16.0
2.6659352715304445,0.0
2.666932628534384,4.0
2.6679299855383234,4.0
2.668927342542263,7.0
2.6699246995462027,8.0
2.6709220565501424,8.0
2.6719194135540816,12.0
2.6729167705580212,10.0
2.673914127561961,6.0
2.6749114845659006,9.0
2.67590884156984,7.0
2.6769061985737794,3.0
2.677903555577719,-3.0
2.6789009125816587,-10.0
2.6798982695855984,-10.0
2.6808956265895376,-9.0
2.6818929835934773,-11.0
2.682890340597417,-13.0
2.6838876976013566,-5.0
2.6848850546052963,-4.0
2.6858824116092355,-5.0
2.686879768613175,-5.0
2.687877125617115,0.0
2.6888744826210544,8.0
2.6898718396249937,13.0
2.6908691966289333,10.0
2.691866553632873,9.0
2.6928639106368126,9.0
2.6938612676407523,5.0
2.6948586246446915,7.0
2.695855981648631,6.0
2.696853338652571,3.0
2.6978506956565105,-2.0
2.6988480526604497,-8.0
2.6998454096643894,-7.0
2.700842766668329,-7.0
2.7018401236722687,-9.0
2.7028374806762083,-10.0
2.7038348376801475,-7.0
2.704832194684087,-8.0
2.705829551688027,-10.0
2.7068269086919665,-7.0
2.7078242656959057,1.0
2.7088216226998454,7.0
2.709818979703785,11.0
2.7108163367077247,12.0
2.7118136937116644,13.0
2.7128110507156036,7.0
2.7138084077195432,4.0
2.714805764723483,8.0
2.7158031217274226,4.0
2.7168004787313618,3.0
2.7177978357353014,0.0
2.718795192739241,-4.0
2.7197925497431807,-6.0
2.7207899067471204,-10.0
2.7217872637510596,-12.0
2.7227846207549993,-12.0
2.723781977758939,-6.0
2.7247793347628786,-7.0
2.725776691766818,-8.0
2.7267740487707575,-4.0
2.727771405774697,1.0
2.728768762778637,4.0
2.7297661197825764,9.0
2.7307634767865157,11.0
2.7317608337904553,12.0
2.732758190794395,12.0
2.7337555477983346,7.0
2.734752904802274,4.0
2.7357502618062135,3.0
2.736747618810153,1.0
2.737744975814093,-2.0
2.7387423328180325,-4.0
2.7397396898219717,-7.0
2.7407370468259113,-11.0
2.741734403829851,-12.0
2.7427317608337907,-5.0
2.7437291178377303,-3.0
2.7447264748416695,-9.0
2.745723831845609,-8.0
2.746721188849549,-4.0
2.7477185458534885,1.0
2.7487159028574277,4.0
2.7497132598613674,8.0
2.750710616865307,11.0
2.7517079738692467,12.0
2.7527053308731864,11.0
2.7537026878771256,6.0
2.7547000448810652,6.0
2.755697401885005,5.0
2.7566947588889446,4.0
2.7576921158928838,-2.0
2.7586894728968234,-7.0
2.759686829900763,-8.0
2.7606841869047027,-10.0
2.7616815439086424,-12.0
2.7626789009125816,-8.0
2.7636762579165213,-4.0
2.764673614920461,-5.0
2.7656709719244006,-5.0
2.76666832892834,-5.0
2.7676656859322795,-5.0
2.768663042936219,3.0
2.769660399940159,9.0
2.7706577569440984,9.0
2.7716551139480377,11.0
2.7726524709519773,13.0
2.773649827955917,8.0
2.7746471849598566,3.0
2.775644541963796,5.0
2.7766418989677355,4.0
2.777639255971675,0.0
2.778636612975615,-11.0
2.7796339699795545,-13.0
2.7806313269834937,-1.0
2.7816286839874333,-7.0
2.782626040991373,-9.0
2.7836233979953127,-6.0
2.784620754999252,-13.0
2.7856181120031915,-7.0
2.786615469007131,0.0
2.787612826011071,2.0
2.7886101830150105,4.0
2.7896075400189497,9.0
2.7906048970228894,12.0
2.791602254026829,11.0
2.7925996110307687,9.0
2.793596968034708,8.0
2.7945943250386476,11.0
2.7955916820425872,7.0
2.796589039046527,-2.0
2.7975863960504666,-6.0
2.7985837530544058,-7.0
2.7995811100583454,-8.0
2.800578467062285,-9.0
2.8015758240662247,-11.0
2.802573181070164,-5.0
2.8035705380741036,-4.0
2.8045678950780433,-8.0
2.805565252081983,-8.0
2.8065626090859226,-4.0
2.807559966089862,-1.0
2.8085573230938015,6.0
2.809554680097741,9.0
2.8105520371016808,11.0
2.81154939410562,12.0
2.8125467511095597,9.0
2.8135441081134993,7.0
2.814541465117439,6.0
2.8155388221213786,6.0
2.816536179125318,1.0
2.8175335361292575,-2.0
2.818530893133197,-7.0
2.819528250137137,-10.0
2.820525607141076,-14.0
2.8215229641450157,-14.0
2.8225203211489553,-7.0
2.823517678152895,-4.0
2.8245150351568347,-7.0
2.825512392160774,-8.0
2.8265097491647135,-3.0
2.827507106168653,5.0
2.828504463172593,9.0
2.829501820176532,10.0
2.8304991771804717,6.0
2.8314965341844114,7.0
2.832493891188351,8.0
2.8334912481922907,5.0
2.83448860519623,4.0
2.8354859622001696,5.0
2.8364833192041092,4.0
2.837480676208049,-3.0
2.838478033211988,-7.0
2.8394753902159278,-6.0
2.8404727472198674,-10.0
2.841470104223807,-12.0
2.8424674612277467,-8.0
2.843464818231686,-6.0
2.8444621752356256,-9.0
2.8454595322395653,-7.0
2.846456889243505,-3.0
2.847454246247444,1.0
2.848451603251384,3.0
2.8494489602553235,8.0
2.850446317259263,11.0
2.8514436742632028,11.0
2.852441031267142,12.0
2.8534383882710816,8.0
2.8544357452750213,11.0
2.855433102278961,5.0
2.8564304592829006,0.0
2.85742781628684,-7.0
2.8584251732907795,0.0
2.859422530294719,-3.0
2.860419887298659,-10.0
2.861417244302598,-13.0
2.8624146013065377,-14.0
2.8634119583104773,-10.0
2.864409315314417,-5.0
2.8654066723183567,-8.0
2.866404029322296,-4.0
2.8674013863262355,1.0
2.868398743330175,5.0
2.869396100334115,8.0
2.870393457338054,12.0
2.8713908143419937,11.0
2.8723881713459334,8.0
2.873385528349873,8.0
2.8743828853538127,8.0
2.875380242357752,5.0
2.8763775993616916,2.0
2.8773749563656312,0.0
2.878372313369571,-5.0
2.87936967037351,-8.0
2.8803670273774498,-11.0
2.8813643843813894,-11.0
2.882361741385329,-8.0
2.8833590983892687,-5.0
2.884356455393208,-4.0
2.8853538123971476,-7.0
2.8863511694010873,-4.0
2.887348526405027,2.0
2.888345883408966,5.0
2.889343240412906,7.0
2.8903405974168455,8.0
2.891337954420785,13.0
2.8923353114247248,8.0
2.893332668428664,2.0
2.8943300254326036,8.0
2.8953273824365433,6.0
2.896324739440483,8.0
2.897322096444422,4.0
2.898319453448362,-2.0
2.8993168104523015,-10.0
2.900314167456241,-12.0
2.901311524460181,-16.0
2.90230888146412,-12.0
2.9033062384680597,-8.0
2.9043035954719993,-6.0
2.905300952475939,-3.0
2.906298309479878,-4.0
2.907295666483818,1.0
2.9082930234877575,5.0
2.909290380491697,8.0
2.910287737495637,13.0
2.911285094499576,11.0
2.9122824515035157,11.0
2.9132798085074554,7.0
2.914277165511395,7.0
2.9152745225153343,4.0
2.916271879519274,1.0
2.9172692365232136,-2.0
2.9182665935271532,-4.0
2.919263950531093,-8.0
2.920261307535032,-10.0
2.9212586645389718,-11.0
2.9222560215429114,-6.0
2.923253378546851,-7.0
2.9242507355507903,-14.0
2.92524809255473,-10.0
2.9262454495586696,-5.0
2.9272428065626093,0.0
2.928240163566549,8.0
2.929237520570488,8.0
2.930234877574428,9.0
2.9312322345783675,11.0
2.932229591582307,11.0
2.9332269485862463,11.0
2.934224305590186,10.0
2.9352216625941256,8.0
2.9362190195980653,3.0
2.937216376602005,0.0
2.938213733605944,-8.0
2.939211090609884,-10.0
2.9402084476138235,-9.0
2.941205804617763,-12.0
2.9422031616217024,-10.0
2.943200518625642,-5.0
2.9441978756295817,-8.0
2.9451952326335213,-7.0
2.946192589637461,-5.0
2.9471899466414,1.0
2.94818730364534,5.0
2.9491846606492795,5.0
2.950182017653219,12.0
2.9511793746571584,12.0
2.952176731661098,6.0
2.9531740886650377,5.0
2.9541714456689774,5.0
2.955168802672917,7.0
2.9561661596768563,3.0
2.957163516680796,0.0
2.9581608736847356,-11.0
2.9591582306886752,-12.0
2.960155587692615,-1.0
2.961152944696554,-7.0
2.9621503017004938,-9.0
2.9631476587044334,-6.0
2.964145015708373,-5.0
2.9651423727123123,-11.0
2.966139729716252,-11.0
2.9671370867201916,-3.0
2.9681344437241313,8.0
2.969131800728071,12.0
2.97012915773201,12.0
2.97112651473595,12.0
2.9721238717398895,9.0
2.973121228743829,5.0
2.9741185857477683,5.0
2.975115942751708,4.0
2.9761132997556476,4.0
2.9771106567595873,0.0
2.978108013763527,-6.0
2.979105370767466,-6.0
2.980102727771406,-9.0
2.9811000847753455,-10.0
2.982097441779285,-9.0
2.9830947987832244,-7.0
2.984092155787164,-8.0
2.9850895127911037,-6.0
2.9860868697950433,-7.0
2.987084226798983,0.0
2.988081583802922,5.0
2.989078940806862,4.0
2.9900762978108015,9.0
2.991073654814741,13.0
2.9920710118186804,11.0
2.99306836882262,6.0
2.9940657258265597,4.0
2.9950630828304994,3.0
2.996060439834439,1.0
2.9970577968383783,1.0
2.998055153842318,-2.0
2.9990525108462576,-8.0
3.0000498678501972,-10.0
3.0010472248541364,-13.0
3.002044581858076,-7.0
3.0030419388620158,-7.0
3.0040392958659554,-10.0
3.005036652869895,-9.0
3.0060340098738343,-1.0
3.007031366877774,1.0
3.0080287238817136,6.0
3.0090260808856533,9.0
3.0100234378895925,10.0
3.011020794893532,12.0
3.012018151897472,9.0
3.0130155089014115,7.0
3.014012865905351,7.0
3.0150102229092903,4.0
3.01600757991323,5.0
3.0170049369171696,0.0
3.0180022939211093,-6.0
3.0189996509250485,-10.0
3.019997007928988,-10.0
3.020994364932928,-12.0
3.0219917219368675,-9.0
3.022989078940807,-3.0
3.0239864359447464,-6.0
3.024983792948686,-6.0
3.0259811499526257,-4.0
3.0269785069565653,2.0
3.0279758639605046,-1.0
3.028973220964444,6.0
3.029970577968384,15.0
3.0309679349723235,18.0
3.031965291976263,12.0
3.0329626489802024,3.0
3.033960005984142,2.0
3.0349573629880817,7.0
3.0359547199920214,6.0
3.0369520769959606,0.0
3.0379494339999003,-8.0
3.03894679100384,-12.0
3.0399441480077796,-11.0
3.0409415050117192,-11.0
3.0419388620156584,-8.0
3.042936219019598,-3.0
3.0439335760235378,-5.0
3.0449309330274774,-6.0
3.0459282900314166,-5.0
3.0469256470353563,2.0
3.047923004039296,6.0
3.0489203610432356,9.0
3.0499177180471753,11.0
3.0509150750511145,12.0
3.051912432055054,9.0
3.052909789058994,6.0
3.0539071460629335,5.0
3.0549045030668727,5.0
3.0559018600708123,3.0
3.056899217074752,-1.0
3.0578965740786916,-5.0
3.0588939310826313,-9.0
3.0598912880865705,-8.0
3.06088864509051,-11.0
3.06188600209445,-11.0
3.0628833590983895,-6.0
3.0638807161023287,-6.0
3.0648780731062684,-7.0
3.065875430110208,-5.0
3.0668727871141477,1.0
3.0678701441180873,6.0
3.0688675011220266,9.0
3.069864858125966,7.0
3.070862215129906,13.0
3.0718595721338455,12.0
3.072856929137785,7.0
3.0738542861417244,5.0
3.074851643145664,6.0
3.0758490001496037,0.0
3.0768463571535434,-7.0
3.0778437141574826,-5.0
3.0788410711614222,-6.0
3.079838428165362,-8.0
3.0808357851693016,-11.0
3.0818331421732412,-9.0
3.0828304991771804,-1.0
3.08382785618112,-8.0
3.0848252131850598,-12.0
3.0858225701889994,-7.0
3.0868199271929386,-3.0
3.0878172841968783,-4.0
3.088814641200818,12.0
3.0898119982047576,19.0
3.0908093552086973,17.0
3.0918067122126365,12.0
3.092804069216576,4.0
3.093801426220516,4.0
3.0947987832244555,5.0
3.0957961402283947,3.0
3.0967934972323343,1.0
3.097790854236274,-5.0
3.0987882112402136,-8.0
3.0997855682441533,-11.0
3.1007829252480925,-11.0
3.101780282252032,-9.0
3.102777639255972,-6.0
3.1037749962599115,-7.0
3.1047723532638507,-6.0
3.1057697102677904,-3.0
3.10676706727173,1.0
3.1077644242756697,6.0
3.1087617812796093,8.0
3.1097591382835486,7.0
3.110756495287488,13.0
3.111753852291428,8.0
3.1127512092953675,6.0
3.1137485662993067,10.0
3.1147459233032464,9.0
3.115743280307186,1.0
3.1167406373111257,-3.0
3.1177379943150654,-6.0
3.1187353513190046,-12.0
3.1197327083229442,-10.0
3.120730065326884,-12.0
3.1217274223308236,-11.0
3.122724779334763,-9.0
3.1237221363387024,-8.0
3.124719493342642,-6.0
3.1257168503465818,-3.0
3.1267142073505214,2.0
3.1277115643544606,4.0
3.1287089213584003,11.0
3.12970627836234,13.0
3.1307036353662796,13.0
3.131700992370219,7.0
3.1326983493741585,6.0
3.133695706378098,9.0
3.134693063382038,4.0
3.1356904203859775,3.0
3.1366877773899167,-3.0
3.1376851343938563,-5.0
3.138682491397796,-6.0
3.1396798484017356,-9.0
3.140677205405675,-11.0
3.1416745624096145,-9.0
3.142671919413554,-5.0
3.143669276417494,-9.0
3.1446666334214335,-7.0
3.1456639904253727,-3.0
3.1466613474293124,2.0
3.147658704433252,6.0
3.1486560614371917,9.0
3.149653418441131,12.0
3.1506507754450706,10.0
3.15164813244901,11.0
3.15264548945295,6.0
3.1536428464568895,5.0
3.1546402034608287,3.0
3.1556375604647684,7.0
3.156634917468708,2.0
3.1576322744726477,-4.0
3.158629631476587,-7.0
3.1596269884805266,-13.0
3.1606243454844662,-15.0
3.161621702488406,-9.0
3.1626190594923456,-4.0
3.1636164164962848,-6.0
3.1646137735002244,-9.0
3.165611130504164,-4.0
3.1666084875081038,3.0
3.167605844512043,6.0
3.1686032015159826,8.0
3.1696005585199223,12.0
3.170597915523862,14.0
3.1715952725278016,12.0
3.172592629531741,6.0
3.1735899865356805,5.0
3.17458734353962,2.0
3.17558470054356,1.0
3.1765820575474994,1.0
3.1775794145514387,-6.0
3.1785767715553783,-7.0
3.179574128559318,-11.0
3.1805714855632576,-11.0
3.181568842567197,-10.0
3.1825661995711365,-6.0
3.183563556575076,-8.0
3.184560913579016,-5.0
3.1855582705829555,-3.0
3.1865556275868947,1.0
3.1875529845908344,8.0
3.188550341594774,8.0
3.1895476985987137,11.0
3.190545055602653,12.0
3.1915424126065925,10.0
3.192539769610532,4.0
3.193537126614472,9.0
3.1945344836184115,5.0
3.1955318406223507,4.0
3.1965291976262904,-1.0
3.19752655463023,-5.0
3.1985239116341697,-9.0
3.199521268638109,-8.0
3.2005186256420486,-12.0
3.2015159826459882,-14.0
3.202513339649928,-7.0
3.2035106966538676,-3.0
3.2045080536578068,-3.0
3.2055054106617464,-8.0
3.206502767665686,-4.0
3.2075001246696258,5.0
3.208497481673565,13.0
3.2094948386775046,14.0
3.2104921956814443,8.0
3.211489552685384,6.0
3.2124869096893236,4.0
3.213484266693263,0.0
3.2144816236972025,3.0
3.215478980701142,12.0
3.216476337705082,3.0
3.217473694709021,-4.0
3.2184710517129607,-9.0
3.2194684087169003,-10.0
3.22046576572084,-12.0
3.2214631227247796,-10.0
3.222460479728719,-6.0
3.2234578367326585,-7.0
3.224455193736598,-7.0
3.225452550740538,-4.0
3.226449907744477,0.0
3.2274472647484167,5.0
3.2284446217523564,9.0
3.229441978756296,10.0
3.2304393357602357,12.0
3.231436692764175,9.0
3.2324340497681145,7.0
3.233431406772054,7.0
3.234428763775994,5.0
3.235426120779933,3.0
3.2364234777838727,-2.0
3.2374208347878124,-5.0
3.238418191791752,-9.0
3.2394155487956917,-8.0
3.240412905799631,-11.0
3.2414102628035706,-8.0
3.2424076198075102,-6.0
3.24340497681145,-7.0
3.244402333815389,-5.0
3.2453996908193288,-3.0
3.2463970478232684,-1.0
3.247394404827208,4.0
3.2483917618311478,4.0
3.249389118835087,9.0
3.2503864758390266,13.0
3.2513838328429663,16.0
3.252381189846906,7.0
3.253378546850845,6.0
3.254375903854785,3.0
3.2553732608587245,2.0
3.256370617862664,-1.0
3.257367974866604,-7.0
3.258365331870543,-8.0
3.2593626888744827,-10.0
3.2603600458784223,-11.0
3.261357402882362,-8.0
3.262354759886301,-5.0
3.263352116890241,-8.0
3.2643494738941805,-6.0
3.26534683089812,-6.0
3.26634418790206,1.0
3.267341544905999,8.0
3.2683389019099387,10.0
3.2693362589138784,8.0
3.270333615917818,10.0
3.2713309729217572,7.0
3.272328329925697,8.0
3.2733256869296365,5.0
3.274323043933576,3.0
3.275320400937516,3.0
3.276317757941455,0.0
3.2773151149453947,-5.0
3.2783124719493344,-9.0
3.279309828953274,-8.0
3.2803071859572137,-11.0
3.281304542961153,-9.0
3.2823018999650926,-7.0
3.2832992569690322,-9.0
3.284296613972972,-7.0
3.285293970976911,0.0
3.2862913279808508,3.0
3.2872886849847904,4.0
3.28828604198873,9.0
3.2892833989926697,8.0
3.290280755996609,12.0
3.2912781130005486,10.0
3.2922754700044883,8.0
3.293272827008428,4.0
3.294270184012367,4.0
3.295267541016307,4.0
3.2962648980202465,0.0
3.297262255024186,-7.0
3.298259612028126,-10.0
3.299256969032065,-10.0
3.3002543260360047,-14.0
3.3012516830399443,-8.0
3.302249040043884,-3.0
3.303246397047823,-4.0
3.304243754051763,-8.0
3.3052411110557025,-7.0
3.306238468059642,4.0
3.307235825063582,10.0
3.308233182067521,11.0
3.3092305390714607,9.0
3.3102278960754004,8.0
3.31122525307934,9.0
3.3122226100832792,3.0
3.313219967087219,5.0
3.3142173240911585,4.0
3.315214681095098,1.0
3.316212038099038,0.0
3.317209395102977,-5.0
3.3182067521069167,-8.0
3.3192041091108564,-10.0
3.320201466114796,-11.0
3.3211988231187353,-9.0
3.322196180122675,-6.0
3.3231935371266146,-6.0
3.3241908941305542,-8.0
3.325188251134494,-3.0
3.326185608138433,1.0
3.3271829651423728,5.0
3.3281803221463124,5.0
3.329177679150252,13.0
3.3301750361541913,16.0
3.331172393158131,12.0
3.3321697501620706,4.0
3.3331671071660103,5.0
3.33416446416995,5.0
3.335161821173889,1.0
3.336159178177829,0.0
3.3371565351817685,-8.0
3.338153892185708,-9.0
3.3391512491896473,-15.0
3.340148606193587,-11.0
3.3411459631975267,-2.0
3.3421433202014663,-3.0
3.343140677205406,-8.0
3.344138034209345,-9.0
3.345135391213285,-4.0
3.3461327482172245,2.0
3.347130105221164,6.0
3.3481274622251034,9.0
3.349124819229043,11.0
3.3501221762329827,8.0
3.3511195332369224,8.0
3.352116890240862,5.0
3.3531142472448012,6.0
3.354111604248741,5.0
3.3551089612526805,3.0
3.35610631825662,-1.0
3.3571036752605594,-4.0
3.358101032264499,-9.0
3.3590983892684387,-9.0
3.3600957462723784,-11.0
3.361093103276318,-8.0
3.3620904602802573,-5.0
3.363087817284197,-8.0
3.3640851742881366,-8.0
3.3650825312920762,-5.0
3.3660798882960155,0.0
3.367077245299955,8.0
3.3680746023038948,9.0
3.3690719593078344,12.0
3.370069316311774,13.0
3.3710666733157133,10.0
3.372064030319653,4.0
3.3730613873235926,5.0
3.3740587443275323,6.0
3.3750561013314715,4.0
3.376053458335411,-3.0
3.377050815339351,-7.0
3.3780481723432905,-8.0
3.37904552934723,-8.0
3.3800428863511693,-11.0
3.381040243355109,-8.0
3.3820376003590487,-5.0
3.3830349573629883,-9.0
3.3840323143669275,-8.0
3.385029671370867,-6.0
3.386027028374807,-1.0
3.3870243853787465,4.0
3.388021742382686,6.0
3.3890190993866254,14.0
3.390016456390565,14.0
3.3910138133945047,12.0
3.3920111703984444,8.0
3.393008527402384,7.0
3.3940058844063232,7.0
3.395003241410263,5.0
3.3960005984142025,-3.0
3.396997955418142,-11.0
3.3979953124220814,-10.0
3.398992669426021,-15.0
3.3999900264299607,-11.0
3.4009873834339004,-6.0
3.40198474043784,-2.0
3.4029820974417793,-6.0
3.403979454445719,-5.0
3.4049768114496586,-7.0
3.4059741684535982,-3.0
3.4069715254575375,1.0
3.407968882461477,11.0
3.4089662394654168,12.0
3.4099635964693564,14.0
3.410960953473296,10.0
3.4119583104772353,6.0
3.412955667481175,7.0
3.4139530244851146,3.0
3.4149503814890543,4.0
3.4159477384929935,-3.0
3.416945095496933,-5.0
3.417942452500873,-6.0
3.4189398095048125,-10.0
3.419937166508752,-12.0
3.4209345235126913,-10.0
3.421931880516631,-4.0
3.4229292375205707,-6.0
3.4239265945245103,-5.0
3.4249239515284495,-5.0
3.425921308532389,-3.0
3.426918665536329,5.0
3.4279160225402685,6.0
3.428913379544208,8.0
3.4299107365481474,12.0
3.430908093552087,9.0
3.4319054505560267,6.0
3.4329028075599664,6.0
3.4339001645639056,6.0
3.4348975215678452,4.0
3.435894878571785,-1.0
3.4368922355757245,-5.0
3.437889592579664,-7.0
3.4388869495836034,-9.0
3.439884306587543,-11.0
3.4408816635914827,-10.0
3.4418790205954224,-8.0
3.4428763775993616,-7.0
3.4438737346033013,-8.0
3.444871091607241,-5.0
3.4458684486111806,1.0
3.4468658056151202,5.0
3.4478631626190595,7.0
3.448860519622999,9.0
3.4498578766269388,13.0
3.4508552336308784,12.0
3.4518525906348176,5.0
3.4528499476387573,6.0
3.453847304642697,6.0
3.4548446616466366,2.0
3.4558420186505763,0.0
3.4568393756545155,-5.0
3.457836732658455,-7.0
3.458834089662395,-10.0
3.4598314466663345,-13.0
3.4608288036702737,-6.0
3.4618261606742133,-5.0
3.462823517678153,-7.0
3.4638208746820927,-9.0
3.4648182316860323,-5.0
3.4658155886899715,1.0
3.466812945693911,5.0
3.467810302697851,6.0
3.4688076597017905,10.0
3.4698050167057297,12.0
3.4708023737096694,11.0
3.471799730713609,6.0
3.4727970877175487,8.0
3.4737944447214884,6.0
3.4747918017254276,4.0
3.4757891587293672,-2.0
3.476786515733307,-5.0
3.4777838727372465,-8.0
3.4787812297411858,-10.0
3.4797785867451254,-12.0
3.480775943749065,-8.0
3.4817733007530047,-3.0
3.4827706577569444,-8.0
3.4837680147608836,-8.0
3.4847653717648233,-5.0
3.485762728768763,-1.0
3.4867600857727026,5.0
3.487757442776642,9.0
3.4887547997805815,10.0
3.489752156784521,12.0
3.4907495137884608,11.0
3.4917468707924004,5.0
3.4927442277963396,6.0
3.4937415848002793,6.0
3.494738941804219,2.0
3.4957362988081586,-2.0
3.4967336558120983,-4.0
3.4977310128160375,-8.0
3.498728369819977,-10.0
3.499725726823917,-11.0
3.5007230838278565,-10.0
3.5017204408317957,-5.0
3.5027177978357353,-5.0
3.503715154839675,-8.0
3.5047125118436147,-3.0
3.5057098688475543,0.0
3.5067072258514935,5.0
3.507704582855433,7.0
3.508701939859373,11.0
3.5096992968633125,11.0
3.5106966538672517,6.0
3.5116940108711914,1.0
3.512691367875131,8.0
3.5136887248790707,9.0
3.5146860818830103,5.0
3.5156834388869496,0.0
3.516680795890889,-7.0
3.517678152894829,-9.0
3.5186755098987685,-8.0
3.5196728669027078,-11.0
3.5206702239066474,-13.0
3.521667580910587,-4.0
3.5226649379145267,-1.0
3.5236622949184664,-5.0
3.5246596519224056,-5.0
3.5256570089263453,-3.0
3.526654365930285,4.0
3.5276517229342246,11.0
3.528649079938164,12.0
3.5296464369421034,13.0
3.530643793946043,8.0
3.5316411509499828,2.0
3.5326385079539224,6.0
3.5336358649578616,7.0
3.5346332219618013,3.0
3.535630578965741,0.0
3.5366279359696806,-8.0
3.53762529297362,-9.0
3.5386226499775595,-12.0
3.539620006981499,-12.0
3.540617363985439,-10.0
3.5416147209893785,-6.0
3.5426120779933177,-6.0
3.5436094349972573,-5.0
3.544606792001197,-4.0
3.5456041490051367,0.0
3.546601506009076,6.0
3.5475988630130155,10.0
3.548596220016955,11.0
3.549593577020895,13.0
3.5505909340248345,11.0
3.5515882910287737,5.0
3.5525856480327134,8.0
3.553583005036653,6.0
3.5545803620405927,2.0
3.555577719044532,-3.0
3.5565750760484716,-6.0
3.557572433052411,-10.0
3.558569790056351,-9.0
3.5595671470602905,-11.0
3.5605645040642298,-8.0
3.5615618610681694,-5.0
3.562559218072109,-8.0
3.5635565750760487,-7.0
3.564553932079988,-3.0
3.5655512890839276,-3.0
3.5665486460878673,4.0
3.567546003091807,8.0
3.5685433600957466,12.0
3.569540717099686,14.0
3.5705380741036254,9.0
3.571535431107565,2.0
3.5725327881115048,6.0
3.573530145115444,7.0
3.5745275021193836,5.0
3.5755248591233233,-1.0
3.576522216127263,-5.0
3.5775195731312026,-7.0
3.578516930135142,-10.0
3.5795142871390815,-12.0
3.580511644143021,-11.0
3.581509001146961,-6.0
3.5825063581509,-5.0
3.5835037151548397,-9.0
3.5845010721587793,-7.0
3.585498429162719,1.0
3.5864957861666587,4.0
3.587493143170598,9.0
3.5884905001745375,12.0
3.589487857178477,12.0
3.590485214182417,11.0
3.591482571186356,6.0
3.5924799281902957,6.0
3.5934772851942354,4.0
3.594474642198175,4.0
3.5954719992021147,1.0
3.596469356206054,-6.0
3.5974667132099936,-10.0
3.598464070213933,-10.0
3.599461427217873,-11.0
3.600458784221812,-10.0
3.6014561412257518,-6.0
3.6024534982296914,-6.0
3.603450855233631,-7.0
3.6044482122375707,-5.0
3.60544556924151,-1.0
3.6064429262454496,4.0
3.6074402832493893,11.0
3.608437640253329,14.0
3.6094349972572686,14.0
3.610432354261208,10.0
3.6114297112651474,5.0
3.612427068269087,6.0
3.6134244252730268,1.0
3.614421782276966,1.0
3.6154191392809056,-2.0
3.6164164962848453,-7.0
3.617413853288785,-11.0
3.6184112102927246,-8.0
3.619408567296664,-8.0
3.6204059243006035,-8.0
3.621403281304543,-4.0
3.622400638308483,-8.0
3.623397995312422,-7.0
3.6243953523163617,-7.0
3.6253927093203013,1.0
3.626390066324241,4.0
3.6273874233281806,12.0
3.62838478033212,15.0
3.6293821373360595,11.0
3.630379494339999,9.0
3.631376851343939,5.0
3.632374208347878,7.0
3.6333715653518177,4.0
3.6343689223557574,5.0
3.635366279359697,-1.0
3.6363636363636367,-7.0
3.637360993367576,-9.0
3.6383583503715156,-11.0
3.639355707375455,-11.0
3.640353064379395,-9.0
3.641350421383334,-5.0
3.6423477783872737,-8.0
3.6433451353912134,-7.0
3.644342492395153,-4.0
3.6453398493990927,2.0
3.646337206403032,7.0
3.6473345634069716,9.0
3.6483319204109113,10.0
3.649329277414851,11.0
3.65032663441879,11.0
3.65132399142273,6.0
3.6523213484266694,8.0
3.653318705430609,5.0
3.6543160624345488,3.0
3.655313419438488,0.0
3.6563107764424276,-6.0
3.6573081334463673,-10.0
3.658305490450307,-10.0
3.659302847454246,-11.0
3.660300204458186,-10.0
3.6612975614621255,-6.0
3.662294918466065,-8.0
3.663292275470005,-7.0
3.664289632473944,-5.0
3.6652869894778837,0.0
3.6662843464818233,6.0
3.667281703485763,12.0
3.668279060489702,13.0
3.669276417493642,12.0
3.6702737744975815,8.0
3.671271131501521,6.0
3.672268488505461,8.0
3.6732658455094,4.0
3.6742632025133397,3.0
3.6752605595172794,1.0
3.676257916521219,-5.0
3.6772552735251582,-9.0
3.678252630529098,-8.0
3.6792499875330376,-14.0
3.680247344536977,-13.0
3.681244701540917,-6.0
3.682242058544856,-9.0
3.6832394155487957,-10.0
3.6842367725527354,-4.0
3.685234129556675,2.0
3.6862314865606143,8.0
3.687228843564554,8.0
3.6882262005684936,10.0
3.6892235575724333,13.0
3.690220914576373,11.0
3.691218271580312,7.0
3.692215628584252,6.0
3.6932129855881914,5.0
3.694210342592131,3.0
3.6952076995960703,-1.0
3.69620505660001,-5.0
3.6972024136039496,-7.0
3.6981997706078893,-11.0
3.699197127611829,-13.0
3.700194484615768,-9.0
3.701191841619708,-7.0
3.7021891986236475,-5.0
3.703186555627587,-7.0
3.7041839126315264,-6.0
3.705181269635466,2.0
3.7061786266394057,7.0
3.7071759836433453,9.0
3.708173340647285,11.0
3.709170697651224,11.0
3.710168054655164,11.0
3.7111654116591035,5.0
3.712162768663043,7.0
3.713160125666983,4.0
3.714157482670922,3.0
3.7151548396748617,-1.0
3.7161521966788014,-6.0
3.717149553682741,-11.0
3.7181469106866802,-9.0
3.71914426769062,-9.0
3.7201416246945596,-9.0
3.721138981698499,-6.0
3.722136338702439,-8.0
3.723133695706378,-8.0
3.7241310527103177,-5.0
3.7251284097142574,0.0
3.726125766718197,7.0
3.7271231237221363,12.0
3.728120480726076,13.0
3.7291178377300156,14.0
3.7301151947339553,10.0
3.731112551737895,5.0
3.732109908741834,5.0
3.733107265745774,5.0
3.7341046227497134,2.0
3.735101979753653,0.0
3.7360993367575923,-4.0
3.737096693761532,-9.0
3.7380940507654716,-11.0
3.7390914077694113,-11.0
3.740088764773351,-13.0
3.74108612177729,-8.0
3.74208347878123,-7.0
3.7430808357851695,-3.0
3.744078192789109,-5.0
3.7450755497930484,0.0
3.746072906796988,5.0
3.7470702638009277,9.0
3.7480676208048673,9.0
3.749064977808807,13.0
3.750062334812746,9.0
3.751059691816686,6.0
3.7520570488206255,4.0
3.753054405824565,6.0
3.7540517628285044,6.0
3.755049119832444,2.0
3.7560464768363837,-7.0
3.7570438338403234,-11.0
3.758041190844263,-12.0
3.7590385478482022,-13.0
3.760035904852142,-7.0
3.7610332618560816,-5.0
3.762030618860021,-8.0
3.7630279758639604,-9.0
3.7640253328679,-5.0
3.7650226898718397,3.0
3.7660200468757794,5.0
3.767017403879719,8.0
3.7680147608836583,11.0
3.769012117887598,13.0
3.7700094748915376,9.0
3.7710068318954773,7.0
3.7720041888994165,6.0
3.773001545903356,5.0
3.773998902907296,5.0
3.7749962599112354,-2.0
3.775993616915175,-5.0
3.7769909739191143,-9.0
3.777988330923054,-11.0
3.7789856879269936,-11.0
3.7799830449309333,-9.0
3.7809804019348725,-6.0
3.781977758938812,-6.0
3.782975115942752,-8.0
3.7839724729466915,-4.0
3.784969829950631,4.0
3.7859671869545704,7.0
3.78696454395851,6.0
3.7879619009624497,9.0
3.7889592579663893,9.0
3.7899566149703285,11.0
3.790953971974268,8.0
3.791951328978208,8.0
3.7929486859821475,4.0
3.793946042986087,3.0
3.7949433999900264,0.0
3.795940756993966,-5.0
3.7969381139979057,-6.0
3.7979354710018454,-12.0
3.7989328280057846,-16.0
3.7999301850097242,-11.0
3.800927542013664,-7.0
3.8019248990176036,-9.0
3.802922256021543,-8.0
3.8039196130254824,-3.0
3.804916970029422,5.0
3.8059143270333617,6.0
3.8069116840373014,9.0
3.8079090410412406,12.0
3.8089063980451803,12.0
3.80990375504912,8.0
3.8109011120530596,5.0
3.8118984690569993,5.0
3.8128958260609385,5.0
3.813893183064878,3.0
3.814890540068818,0.0
3.8158878970727574,-5.0
3.816885254076697,-8.0
3.8178826110806363,-10.0
3.818879968084576,-10.0
3.8198773250885156,-9.0
3.8208746820924553,-6.0
3.8218720390963945,-8.0
3.822869396100334,-8.0
3.823866753104274,-4.0
3.8248641101082135,0.0
3.825861467112153,5.0
3.8268588241160924,8.0
3.827856181120032,13.0
3.8288535381239717,13.0
3.8298508951279113,9.0
3.8308482521318505,4.0
3.83184560913579,5.0
3.83284296613973,6.0
3.8338403231436695,2.0
3.834837680147609,-1.0
3.8358350371515484,-5.0
3.836832394155488,-10.0
3.8378297511594277,-10.0
3.8388271081633674,-13.0
3.8398244651673066,-9.0
3.8408218221712462,-7.0
3.841819179175186,-5.0
3.8428165361791256,-8.0
3.843813893183065,-8.0
3.8448112501870044,0.0
3.845808607190944,6.0
3.8468059641948837,10.0
3.8478033211988234,12.0
3.8488006782027626,11.0
3.8497980352067023,11.0
3.850795392210642,8.0
3.8517927492145816,7.0
3.8527901062185212,5.0
3.8537874632224605,4.0
3.8547848202264,-1.0
3.85578217723034,-6.0
3.8567795342342794,-9.0
3.8577768912382187,-12.0
3.8587742482421583,-12.0
3.859771605246098,-10.0
3.8607689622500376,-5.0
3.8617663192539773,-6.0
3.8627636762579165,-5.0
3.863761033261856,-2.0
3.864758390265796,1.0
3.8657557472697355,4.0
3.8667531042736747,8.0
3.8677504612776143,12.0
3.868747818281554,10.0
3.8697451752854937,10.0
3.8707425322894333,6.0
3.8717398892933725,6.0
3.872737246297312,3.0
3.873734603301252,3.0
3.8747319603051915,0.0
3.8757293173091307,-3.0
3.8767266743130704,-10.0
3.87772403131701,-11.0
3.8787213883209497,-13.0
3.8797187453248894,-9.0
3.8807161023288286,-4.0
3.8817134593327682,-6.0
3.882710816336708,-6.0
3.8837081733406476,-5.0
3.8847055303445868,1.0
3.8857028873485264,5.0
3.886700244352466,7.0
3.8876976013564057,10.0
3.8886949583603454,12.0
3.8896923153642846,11.0
3.8906896723682243,4.0
3.891687029372164,4.0
3.8926843863761036,4.0
3.893681743380043,8.0
3.8946791003839825,0.0
3.895676457387922,-7.0
3.896673814391862,-8.0
3.8976711713958014,-10.0
3.8986685283997407,-10.0
3.8996658854036803,-10.0
3.90066324240762,-6.0
3.9016605994115596,-6.0
3.902657956415499,-8.0
3.9036553134194385,-7.0
3.904652670423378,1.0
3.905650027427318,5.0
3.9066473844312575,6.0
3.9076447414351967,11.0
3.9086420984391363,13.0
3.909639455443076,10.0
3.9106368124470157,6.0
3.911634169450955,8.0
3.9126315264548945,5.0
3.913628883458834,4.0
3.914626240462774,-1.0
3.9156235974667135,-5.0
3.9166209544706527,-10.0
3.9176183114745924,-11.0
3.918615668478532,-11.0
3.9196130254824717,-7.0
3.920610382486411,-6.0
3.9216077394903506,-7.0
3.9226050964942902,-9.0
3.92360245349823,-5.0
3.9245998105021696,0.0
3.9255971675061088,6.0
3.9265945245100484,10.0
3.927591881513988,11.0
3.9285892385179277,12.0
3.9295865955218674,12.0
3.9305839525258066,7.0
3.9315813095297463,6.0
3.932578666533686,6.0
3.9335760235376256,8.0
3.934573380541565,-3.0
3.9355707375455045,-11.0
3.936568094549444,-10.0
3.9375654515533838,-10.0
3.9385628085573234,-11.0
3.9395601655612627,-9.0
3.9405575225652023,-3.0
3.941554879569142,-10.0
3.9425522365730816,-11.0
3.943549593577021,-8.0
3.9445469505809605,2.0
3.9455443075849,8.0
3.94654166458884,9.0
3.9475390215927795,13.0
3.9485363785967187,13.0
3.9495337356006583,9.0
3.950531092604598,7.0
3.9515284496085377,6.0
3.952525806612477,6.0
3.9535231636164165,5.0
3.954520520620356,0.0
3.955517877624296,-7.0
3.9565152346282355,-8.0
3.9575125916321747,-11.0
3.9585099486361144,-15.0
3.959507305640054,-12.0
3.9605046626439937,-4.0
3.961502019647933,-6.0
3.9624993766518726,-7.0
3.9634967336558122,-4.0
3.964494090659752,0.0
3.9654914476636915,5.0
3.9664888046676308,10.0
3.9674861616715704,14.0
3.96848351867551,12.0
3.9694808756794497,9.0
3.970478232683389,6.0
3.9714755896873286,6.0
3.9724729466912683,5.0
3.973470303695208,5.0
3.9744676606991476,0.0
3.975465017703087,-8.0
3.9764623747070265,-10.0
3.977459731710966,-9.0
3.9784570887149058,-10.0
3.979454445718845,-9.0
3.9804518027227846,-6.0
3.9814491597267243,-8.0
3.982446516730664,-8.0
3.9834438737346036,-4.0
3.984441230738543,1.0
3.9854385877424825,6.0
3.986435944746422,8.0
3.987433301750362,13.0
3.988430658754301,12.0
3.9894280157582407,11.0
3.9904253727621803,6.0
3.99142272976612,7.0
3.9924200867700597,5.0
3.993417443773999,3.0
3.9944148007779385,-2.0
3.995412157781878,-7.0
3.996409514785818,-11.0
3.997406871789757,-11.0
3.9984042287936967,-8.0
3.9994015857976364,-5.0
4.000398942801576,-5.0
4.001396299805515,-8.0
4.002393656809455,-8.0
4.003391013813395,-7.0
4.004388370817334,-2.0
4.005385727821274,5.0
4.006383084825213,10.0
4.007380441829153,11.0
4.008377798833092,12.0
4.009375155837032,11.0
4.010372512840972,5.0
4.011369869844911,5.0
4.012367226848851,4.0
4.01336458385279,4.0
4.0143619408567295,2.0
4.01535929786067,-7.0
4.016356654864609,-10.0
4.017354011868549,-9.0
4.018351368872488,-12.0
4.019348725876427,-11.0
4.020346082880367,-4.0
4.021343439884307,-6.0
4.022340796888246,-7.0
4.023338153892186,-7.0
4.024335510896125,-2.0
4.025332867900065,5.0
4.0263302249040045,8.0
4.027327581907944,16.0
4.028324938911884,16.0
4.029322295915823,11.0
4.030319652919763,6.0
4.031317009923702,6.0
4.032314366927642,6.0
4.033311723931582,4.0
4.034309080935521,-3.0
4.035306437939461,-7.0
4.0363037949434,-8.0
4.037301151947339,-11.0
4.0382985089512795,-11.0
4.039295865955219,-10.0
4.040293222959158,-3.0
4.041290579963098,-8.0
4.042287936967037,-8.0
4.043285293970977,-3.0
4.044282650974917,3.0
4.045280007978856,6.0
4.046277364982796,8.0
4.047274721986735,9.0
4.048272078990675,12.0
4.049269435994614,11.0
4.050266792998554,5.0
4.051264150002494,6.0
4.052261507006433,4.0
4.053258864010373,3.0
4.054256221014312,-5.0
4.0552535780182515,-5.0
4.056250935022192,-8.0
4.057248292026131,-10.0
4.05824564903007,-11.0
4.05924300603401,-7.0
4.060240363037949,-7.0
4.061237720041889,-12.0
4.062235077045829,-8.0
4.063232434049768,-3.0
4.064229791053708,1.0
4.065227148057647,7.0
4.066224505061587,9.0
4.0672218620655265,9.0
4.068219219069466,12.0
4.069216576073406,10.0
4.070213933077345,4.0
4.071211290081285,8.0
4.072208647085224,7.0
4.073206004089164,1.0
4.074203361093104,0.0
4.075200718097043,-4.0
4.076198075100982,-8.0
4.077195432104922,-11.0
4.078192789108861,-11.0
4.0791901461128015,-9.0
4.080187503116741,-6.0
4.08118486012068,-9.0
4.08218221712462,-9.0
4.083179574128559,-4.0
4.084176931132499,1.0
4.085174288136439,7.0
4.086171645140378,12.0
4.087169002144318,11.0
4.088166359148257,15.0
4.089163716152197,12.0
4.090161073156136,4.0
4.091158430160076,4.0
4.092155787164016,3.0
4.093153144167955,3.0
4.094150501171895,-1.0
4.095147858175834,-6.0
4.0961452151797735,-8.0
4.097142572183714,-8.0
4.098139929187653,-12.0
4.099137286191592,-10.0
4.100134643195532,-4.0
4.101132000199471,-10.0
4.102129357203411,-6.0
4.103126714207351,-3.0
4.10412407121129,1.0
4.10512142821523,3.0
4.106118785219169,8.0
4.107116142223109,12.0
4.1081134992270485,12.0
4.109110856230988,10.0
4.110108213234928,5.0
4.111105570238867,6.0
4.112102927242807,4.0
4.113100284246746,4.0
4.1140976412506856,-1.0
4.115094998254626,-3.0
4.116092355258565,-8.0
4.117089712262504,-10.0
4.118087069266444,-13.0
4.119084426270383,-11.0
4.1200817832743235,-4.0
4.121079140278263,-5.0
4.122076497282202,-6.0
4.123073854286142,-8.0
4.124071211290081,1.0
4.125068568294021,7.0
4.126065925297961,8.0
4.1270632823019,11.0
4.12806063930584,11.0
4.129057996309779,10.0
4.130055353313719,4.0
4.131052710317658,6.0
4.132050067321598,6.0
4.133047424325538,5.0
4.134044781329477,1.0
4.135042138333416,-5.0
4.136039495337356,-8.0
4.1370368523412955,-10.0
4.138034209345236,-12.0
4.139031566349175,-11.0
4.140028923353114,-5.0
4.141026280357054,-5.0
4.142023637360993,-8.0
4.143020994364933,-7.0
4.144018351368873,0.0
4.145015708372812,4.0
4.146013065376752,10.0
4.147010422380691,10.0
4.148007779384631,14.0
4.1490051363885705,11.0
4.15000249339251,6.0
4.15099985039645,7.0
4.151997207400389,4.0
4.152994564404328,3.0
4.153991921408268,-2.0
4.1549892784122076,-5.0
4.155986635416148,-9.0
4.156983992420087,-10.0
4.157981349424026,-14.0
4.158978706427966,-9.0
4.159976063431905,-4.0
4.1609734204358455,-8.0
4.161970777439785,-8.0
4.162968134443724,-3.0
4.163965491447664,3.0
4.164962848451603,7.0
4.165960205455543,7.0
4.166957562459483,11.0
4.167954919463422,12.0
4.168952276467362,7.0
4.169949633471301,3.0
4.17094699047524,5.0
4.17194434747918,5.0
4.17294170448312,4.0
4.17393906148706,-1.0
4.174936418490999,-6.0
4.175933775494938,-6.0
4.176931132498878,-8.0
4.1779284895028175,-11.0
4.178925846506758,-8.0
4.179923203510697,-7.0
4.180920560514636,-7.0
4.181917917518576,-7.0
4.182915274522515,-5.0
4.183912631526455,-1.0
4.184909988530395,5.0
4.185907345534334,11.0
4.186904702538274,10.0
4.187902059542213,12.0
4.188899416546152,9.0
4.1898967735500925,6.0
4.190894130554032,7.0
4.191891487557972,5.0
4.192888844561911,4.0
4.19388620156585,-1.0
4.19488355856979,-7.0
4.1958809155737296,-7.0
4.19687827257767,-11.0
4.197875629581609,-12.0
4.198872986585548,-10.0
4.199870343589488,-6.0
4.200867700593427,-8.0
4.2018650575973675,-7.0
4.202862414601307,-7.0
4.203859771605246,-2.0
4.204857128609186,8.0
4.205854485613125,8.0
4.206851842617065,13.0
4.207849199621005,13.0
4.208846556624944,12.0
4.209843913628884,4.0
4.210841270632823,3.0
4.211838627636762,3.0
4.212835984640702,3.0
4.213833341644642,0.0
4.214830698648582,-6.0
4.215828055652521,-8.0
4.21682541265646,-10.0
4.2178227696604,-12.0
4.2188201266643395,-10.0
4.21981748366828,-4.0
4.220814840672219,-5.0
4.221812197676158,-7.0
4.222809554680098,-4.0
4.223806911684037,1.0
4.224804268687977,7.0
4.225801625691917,11.0
4.226798982695856,12.0
4.227796339699796,13.0
4.228793696703735,9.0
4.229791053707674,6.0
4.2307884107116145,4.0
4.231785767715554,3.0
4.232783124719494,2.0
4.233780481723433,1.0
4.234777838727372,-6.0
4.235775195731312,-8.0
4.2367725527352516,-9.0
4.237769909739192,-12.0
4.238767266743131,-10.0
4.23976462374707,-8.0
4.24076198075101,-7.0
4.241759337754949,-4.0
4.2427566947588895,-3.0
4.243754051762829,2.0
4.244751408766768,7.0
4.245748765770708,9.0
4.246746122774647,12.0
4.2477434797785865,12.0
4.248740836782527,11.0
4.249738193786466,6.0
4.250735550790406,5.0
4.251732907794345,5.0
4.252730264798284,4.0
4.253727621802224,-2.0
4.254724978806164,-8.0
4.255722335810104,-10.0
4.256719692814043,-11.0
4.257717049817982,-12.0
4.258714406821922,-9.0
4.2597117638258615,-6.0
4.260709120829802,-8.0
4.261706477833741,-6.0
4.26270383483768,-4.0
4.26370119184162,2.0
4.264698548845559,5.0
4.2656959058494985,10.0
4.266693262853439,8.0
4.267690619857378,11.0
4.268687976861318,10.0
4.269685333865257,6.0
4.270682690869196,8.0
4.2716800478731365,6.0
4.272677404877076,5.0
4.273674761881016,-2.0
4.274672118884955,-7.0
4.275669475888894,-12.0
4.276666832892834,-8.0
4.2776641898967736,-11.0
4.278661546900714,-9.0
4.279658903904653,-6.0
4.280656260908592,-5.0
4.281653617912532,-5.0
4.282650974916471,-8.0
4.283648331920411,-1.0
4.284645688924351,8.0
4.28564304592829,12.0
4.28664040293223,11.0
4.287637759936169,13.0
4.2886351169401085,12.0
4.289632473944049,4.0
4.290629830947988,5.0
4.291627187951928,3.0
4.292624544955867,4.0
4.293621901959806,1.0
4.294619258963746,-5.0
4.295616615967686,-10.0
4.296613972971626,-10.0
4.297611329975565,-12.0
4.298608686979504,-7.0
4.299606043983444,-5.0
4.3006034009873835,-8.0
4.301600757991324,-6.0
4.302598114995263,-4.0
4.303595471999202,1.0
4.304592829003142,5.0
4.305590186007081,11.0
4.3065875430110205,10.0
4.307584900014961,12.0
4.3085822570189,9.0
4.30957961402284,6.0
4.310576971026779,5.0
4.311574328030718,5.0
4.3125716850346585,3.0
4.313569042038598,-1.0
4.314566399042538,-8.0
4.315563756046477,-8.0
4.316561113050416,-10.0
4.317558470054356,-8.0
4.3185558270582955,-8.0
4.319553184062236,-5.0
4.320550541066175,-8.0
4.321547898070114,-7.0
4.322545255074054,-7.0
4.323542612077993,-1.0
4.324539969081933,5.0
4.325537326085873,11.0
4.326534683089812,12.0
4.327532040093752,12.0
4.328529397097691,9.0
4.3295267541016305,5.0
4.330524111105571,6.0
4.33152146810951,6.0
4.33251882511345,4.0
4.333516182117389,-2.0
4.334513539121328,-6.0
4.335510896125268,-8.0
4.336508253129208,-10.0
4.337505610133148,-13.0
4.338502967137087,-8.0
4.339500324141026,-5.0
4.340497681144966,-9.0
4.3414950381489055,-7.0
4.342492395152845,-3.0
4.343489752156785,2.0
4.344487109160724,5.0
4.345484466164664,11.0
4.346481823168603,13.0
4.3474791801725425,13.0
4.348476537176483,9.0
4.349473894180422,4.0
4.350471251184362,5.0
4.351468608188301,4.0
4.35246596519224,-1.0
4.3534633221961805,-3.0
4.35446067920012,-6.0
4.35545803620406,-7.0
4.356455393207999,-9.0
4.357452750211938,-11.0
4.358450107215878,-10.0
4.3594474642198175,-6.0
4.360444821223757,-9.0
4.361442178227697,-6.0
4.362439535231636,-2.0
4.363436892235576,1.0
4.364434249239515,6.0
4.365431606243455,7.0
4.366428963247395,12.0
4.367426320251334,12.0
4.368423677255274,11.0
4.369421034259213,5.0
4.3704183912631525,6.0
4.371415748267093,4.0
4.372413105271032,3.0
4.373410462274972,-2.0
4.374407819278911,-7.0
4.37540517628285,-8.0
4.37640253328679,-11.0
4.37739989029073,-11.0
4.378397247294669,-8.0
4.379394604298609,-7.0
4.380391961302548,-7.0
4.381389318306488,-7.0
4.3823866753104275,-4.0
4.383384032314367,1.0
4.384381389318307,6.0
4.385378746322246,8.0
4.386376103326186,11.0
4.387373460330125,13.0
4.3883708173340645,12.0
4.389368174338005,4.0
4.390365531341944,3.0
4.391362888345884,5.0
4.392360245349823,3.0
4.393357602353762,0.0
4.3943549593577025,-5.0
4.395352316361642,-7.0
4.396349673365581,-11.0
4.397347030369521,-11.0
4.39834438737346,-10.0
4.3993417443774,-5.0
4.4003391013813395,-8.0
4.401336458385279,-6.0
4.402333815389219,-5.0
4.403331172393158,2.0
4.404328529397098,8.0
4.405325886401037,9.0
4.406323243404977,10.0
4.407320600408917,12.0
4.408317957412856,6.0
4.409315314416796,7.0
4.410312671420735,6.0
4.4113100284246745,0.0
4.412307385428615,2.0
4.413304742432554,-1.0
4.414302099436494,-3.0
4.415299456440433,-6.0
4.416296813444372,-7.0
4.417294170448312,-13.0
4.418291527452252,-11.0
4.419288884456191,-8.0
4.420286241460131,-6.0
4.42128359846407,-7.0
4.42228095546801,-7.0
4.4232783124719495,2.0
4.424275669475889,7.0
4.425273026479829,6.0
4.426270383483768,12.0
4.427267740487708,10.0
4.428265097491647,9.0
4.4292624544955865,6.0
4.430259811499527,6.0
4.431257168503466,5.0
4.432254525507406,4.0
4.433251882511345,0.0
4.434249239515284,-7.0
4.4352465965192245,-9.0
4.436243953523164,-11.0
4.437241310527103,-13.0
4.438238667531043,-9.0
4.439236024534982,-4.0
4.440233381538922,-7.0
4.4412307385428615,-7.0
4.442228095546801,-3.0
4.443225452550741,4.0
4.44422280955468,7.0
4.44522016655862,6.0
4.446217523562559,8.0
4.447214880566499,11.0
4.448212237570439,11.0
4.449209594574378,8.0
4.450206951578318,9.0
4.451204308582257,7.0
4.4522016655861965,4.0
4.453199022590137,-2.0
4.454196379594076,-8.0
4.455193736598015,-8.0
4.456191093601955,-10.0
4.457188450605894,-10.0
4.458185807609834,-11.0
4.459183164613774,-8.0
4.460180521617713,-9.0
4.461177878621653,-7.0
4.462175235625592,-7.0
4.463172592629532,2.0
4.4641699496334715,7.0
4.465167306637411,9.0
4.466164663641351,10.0
4.46716202064529,11.0
4.46815937764923,10.0
4.469156734653169,5.0
4.4701540916571085,6.0
4.471151448661049,5.0
4.472148805664988,4.0
4.473146162668927,-2.0
4.474143519672867,-5.0
4.475140876676806,-9.0
4.4761382336807465,-10.0
4.477135590684686,-12.0
4.478132947688625,-10.0
4.479130304692565,-9.0
4.480127661696504,-7.0
4.481125018700444,-6.0
4.4821223757043835,-3.0
4.483119732708323,2.0
4.484117089712263,5.0
4.485114446716202,9.0
4.486111803720142,10.0
4.487109160724081,13.0
4.488106517728021,11.0
4.489103874731961,7.0
4.4901012317359,8.0
4.491098588739839,4.0
4.492095945743779,3.0
4.4930933027477185,-1.0
4.494090659751659,-3.0
4.495088016755598,-9.0
4.496085373759537,-11.0
4.497082730763477,-12.0
4.498080087767416,-11.0
4.499077444771356,-4.0
4.500074801775296,-8.0
4.501072158779235,-7.0
4.502069515783175,-2.0
4.503066872787114,1.0
4.504064229791054,5.0
4.5050615867949935,8.0
4.506058943798933,12.0
4.507056300802873,11.0
4.508053657806812,12.0
4.509051014810751,8.0
4.510048371814691,5.0
4.5110457288186305,0.0
4.512043085822571,0.0
4.51304044282651,-1.0
4.514037799830449,-6.0
4.515035156834389,-8.0
4.516032513838328,-10.0
4.5170298708422685,-11.0
4.518027227846208,-8.0
4.519024584850147,-4.0
4.520021941854087,-7.0
4.521019298858026,-7.0
4.522016655861966,-4.0
4.5230140128659055,1.0
4.524011369869845,6.0
4.525008726873785,9.0
4.526006083877724,11.0
4.527003440881664,15.0
4.528000797885603,10.0
4.528998154889543,5.0
4.529995511893483,5.0
4.530992868897422,3.0
4.531990225901361,1.0
4.532987582905301,0.0
4.5339849399092405,-7.0
4.5349822969131806,-7.0
4.53597965391712,-8.0
4.536977010921059,-11.0
4.537974367924999,-9.0
4.538971724928938,-5.0
4.539969081932878,-9.0
4.540966438936818,-8.0
4.541963795940757,-4.0
4.542961152944697,2.0
4.543958509948636,4.0
4.544955866952576,6.0
4.5459532239565155,12.0
4.546950580960455,11.0
4.547947937964395,10.0
4.548945294968334,7.0
4.549942651972273,6.0
4.550940008976213,4.0
4.5519373659801525,4.0
4.552934722984093,-1.0
4.553932079988032,-8.0
4.554929436991971,-5.0
4.555926793995911,-6.0
4.55692415099985,-14.0
4.5579215080037905,-16.0
4.55891886500773,-5.0
4.559916222011669,-4.0
4.560913579015609,-5.0
4.561910936019548,-6.0
4.562908293023488,-2.0
4.5639056500274275,5.0
4.564903007031367,8.0
4.565900364035307,12.0
4.566897721039246,12.0
4.567895078043185,10.0
4.568892435047125,3.0
4.569889792051065,5.0
4.570887149055005,7.0
4.571884506058944,3.0
4.572881863062883,-1.0
4.573879220066823,-5.0
4.5748765770707625,-7.0
4.5758739340747026,-8.0
4.576871291078642,-9.0
4.577868648082581,-10.0
4.578866005086521,-7.0
4.57986336209046,-9.0
4.5808607190944,-6.0
4.58185807609834,-4.0
4.582855433102279,2.0
4.583852790106219,6.0
4.584850147110158,8.0
4.585847504114097,12.0
4.5868448611180375,10.0
4.587842218121977,11.0
4.588839575125917,7.0
4.589836932129856,4.0
4.590834289133795,2.0
4.591831646137735,3.0
4.5928290031416745,2.0
4.593826360145615,-3.0
4.594823717149554,-11.0
4.595821074153493,-11.0
4.596818431157433,-10.0
4.597815788161372,-10.0
4.5988131451653125,-5.0
4.599810502169252,-6.0
4.600807859173191,-8.0
4.601805216177131,-5.0
4.60280257318107,1.0
4.603799930185009,6.0
4.6047972871889495,10.0
4.605794644192889,10.0
4.606792001196829,12.0
4.607789358200768,11.0
4.608786715204707,5.0
4.609784072208647,7.0
4.610781429212587,4.0
4.611778786216527,1.0
4.612776143220466,-1.0
4.613773500224405,-7.0
4.614770857228345,-8.0
4.6157682142322844,-10.0
4.6167655712362246,-10.0
4.617762928240164,-7.0
4.618760285244103,-5.0
4.619757642248043,-8.0
4.620754999251982,-10.0
4.6217523562559215,-4.0
4.622749713259862,2.0
4.623747070263801,3.0
4.624744427267741,7.0
4.62574178427168,10.0
4.626739141275619,12.0
4.6277364982795595,9.0
4.628733855283499,4.0
4.629731212287439,7.0
4.630728569291378,6.0
4.631725926295317,3.0
4.632723283299257,-1.0
4.6337206403031965,-5.0
4.634717997307137,-8.0
4.635715354311076,-8.0
4.636712711315015,-9.0
4.637710068318955,-8.0
4.638707425322894,-8.0
4.6397047823268345,-14.0
4.640702139330774,-10.0
4.641699496334713,-5.0
4.642696853338653,1.0
4.643694210342592,8.0
4.644691567346531,10.0
4.6456889243504715,12.0
4.646686281354411,12.0
4.647683638358351,9.0
4.64868099536229,4.0
4.649678352366229,7.0
4.650675709370169,5.0
4.651673066374109,4.0
4.652670423378049,0.0
4.653667780381988,-5.0
4.654665137385927,-9.0
4.655662494389867,-10.0
4.6566598513938064,-14.0
4.6576572083977466,-9.0
4.658654565401686,-5.0
4.659651922405625,-5.0
4.660649279409565,-7.0
4.661646636413504,-4.0
4.6626439934174435,1.0
4.663641350421384,6.0
4.664638707425323,8.0
4.665636064429263,10.0
4.666633421433202,12.0
4.667630778437141,8.0
4.6686281354410815,5.0
4.669625492445021,8.0
4.670622849448961,5.0
4.6716202064529,4.0
4.672617563456839,-2.0
4.673614920460779,-4.0
4.6746122774647185,-7.0
4.675609634468659,-9.0
4.676606991472598,-11.0
4.677604348476537,-11.0
4.678601705480477,-6.0
4.679599062484416,-5.0
4.680596419488356,-5.0
4.681593776492296,-4.0
4.682591133496235,2.0
4.683588490500175,5.0
4.684585847504114,5.0
4.685583204508053,5.0
4.6865805615119935,13.0
4.687577918515933,13.0
4.688575275519873,7.0
4.689572632523812,6.0
4.690569989527751,6.0
4.691567346531691,4.0
4.692564703535631,-3.0
4.693562060539571,-7.0
4.69455941754351,-7.0
4.695556774547449,-9.0
4.696554131551389,-10.0
4.6975514885553284,-8.0
4.698548845559268,-3.0
4.699546202563208,-6.0
4.700543559567147,-8.0
4.701540916571087,-11.0
4.702538273575026,-3.0
4.7035356305789655,5.0
4.704532987582906,9.0
4.705530344586845,12.0
4.706527701590785,12.0
4.707525058594724,11.0
4.708522415598663,6.0
4.7095197726026035,7.0
4.710517129606543,5.0
4.711514486610483,1.0
4.712511843614422,-1.0
4.713509200618361,-5.0
4.714506557622301,-10.0
4.7155039146262405,-10.0
4.71650127163018,-10.0
4.71749862863412,-8.0
4.718495985638059,-6.0
4.719493342641999,-10.0
4.720490699645938,-6.0
4.721488056649878,-5.0
4.722485413653818,-2.0
4.723482770657757,6.0
4.724480127661697,11.0
4.725477484665636,9.0
4.726474841669575,11.0
4.7274721986735155,12.0
4.728469555677455,6.0
4.729466912681395,7.0
4.730464269685334,5.0
4.731461626689273,3.0
4.732458983693213,1.0
4.733456340697153,-5.0
4.734453697701093,-8.0
4.735451054705032,-9.0
4.736448411708971,-11.0
4.737445768712911,-11.0
4.7384431257168504,-10.0
4.73944048272079,-8.0
4.74043783972473,-4.0
4.741435196728669,-2.0
4.742432553732609,1.0
4.743429910736548,5.0
4.7444272677404875,9.0
4.745424624744428,9.0
4.746421981748367,6.0
4.747419338752307,7.0
4.748416695756246,4.0
4.749414052760185,8.0
4.7504114097641255,8.0
4.751408766768065,6.0
4.752406123772005,-1.0
4.753403480775944,-6.0
4.754400837779883,-7.0
4.755398194783823,-11.0
4.7563955517877625,-12.0
4.757392908791702,-9.0
4.758390265795642,-6.0
4.759387622799581,-8.0
4.760384979803521,-8.0
4.76138233680746,-5.0
4.7623796938114,0.0
4.76337705081534,5.0
4.764374407819279,10.0
4.765371764823219,12.0
4.766369121827158,13.0
4.767366478831097,8.0
4.7683638358350375,3.0
4.769361192838977,8.0
4.770358549842917,6.0
4.771355906846856,3.0
4.772353263850795,-1.0
4.773350620854735,-4.0
4.774347977858675,-10.0
4.775345334862614,-11.0
4.776342691866554,-13.0
4.777340048870493,-10.0
4.778337405874433,-6.0
4.7793347628783724,-5.0
4.780332119882312,-6.0
4.781329476886252,-4.0
4.782326833890191,2.0
4.783324190894131,4.0
4.78432154789807,8.0
4.7853189049020095,9.0
4.78631626190595,13.0
4.787313618909889,10.0
4.788310975913829,6.0
4.789308332917768,7.0
4.790305689921707,6.0
4.7913030469256475,1.0
4.792300403929587,-3.0
4.793297760933526,-8.0
4.794295117937466,-8.0
4.795292474941405,-9.0
4.796289831945345,-11.0
4.7972871889492845,-8.0
4.798284545953224,-6.0
4.799281902957164,-8.0
4.800279259961103,-7.0
4.801276616965043,-5.0
4.802273973968982,1.0
4.803271330972922,6.0
4.804268687976862,7.0
4.805266044980801,11.0
4.806263401984741,16.0
4.80726075898868,14.0
4.808258115992619,8.0
4.8092554729965595,8.0
4.810252830000499,5.0
4.811250187004438,3.0
4.812247544008378,-2.0
4.813244901012317,-7.0
4.814242258016257,-9.0
4.815239615020197,-11.0
4.816236972024136,-11.0
4.817234329028076,-9.0
4.818231686032015,-5.0
4.819229043035955,-8.0
4.820226400039894,-7.0
4.821223757043834,-3.0
4.822221114047774,0.0
4.823218471051713,5.0
4.824215828055653,9.0
4.825213185059592,9.0
4.8262105420635315,12.0
4.827207899067472,9.0
4.828205256071411,6.0
4.82920261307535,5.0
4.83019997007929,5.0
4.831197327083229,4.0
4.8321946840871695,0.0
4.833192041091109,-7.0
4.834189398095048,-11.0
4.835186755098988,-13.0
4.836184112102927,-11.0
4.837181469106867,-6.0
4.8381788261108065,-4.0
4.839176183114746,-8.0
4.840173540118686,-8.0
4.841170897122625,-5.0
4.842168254126565,2.0
4.843165611130504,7.0
4.844162968134444,10.0
4.845160325138384,13.0
4.846157682142323,10.0
4.847155039146263,11.0
4.848152396150202,4.0
4.849149753154141,4.0
4.8501471101580815,6.0
4.851144467162021,6.0
4.85214182416596,-2.0
4.8531391811699,-7.0
4.854136538173839,-10.0
4.855133895177779,-9.0
4.856131252181719,-12.0
4.857128609185658,-8.0
4.858125966189598,-5.0
4.859123323193537,-7.0
4.860120680197477,-6.0
4.861118037201416,-4.0
4.862115394205356,2.0
4.863112751209296,6.0
4.864110108213235,10.0
4.865107465217175,8.0
4.866104822221114,12.0
4.8671021792250535,8.0
4.868099536228994,4.0
4.869096893232933,7.0
4.870094250236872,6.0
4.871091607240812,3.0
4.872088964244751,-2.0
4.8730863212486915,-6.0
4.874083678252631,-9.0
4.87508103525657,-9.0
4.87607839226051,-11.0
4.877075749264449,-9.0
4.878073106268389,-5.0
4.8790704632723285,-8.0
4.880067820276268,-6.0
4.881065177280208,-3.0
4.882062534284147,0.0
4.883059891288087,5.0
4.884057248292026,10.0
4.885054605295966,12.0
4.886051962299906,12.0
4.887049319303845,9.0
4.888046676307784,4.0
4.889044033311724,5.0
4.890041390315663,5.0
4.8910387473196035,4.0
4.892036104323543,-2.0
4.893033461327482,-5.0
4.894030818331422,-8.0
4.895028175335361,-11.0
4.896025532339301,-12.0
4.897022889343241,-10.0
4.89802024634718,-6.0
4.89901760335112,-6.0
4.900014960355059,-8.0
4.901012317358999,-4.0
4.902009674362938,-1.0
4.903007031366878,4.0
4.904004388370818,10.0
4.905001745374757,8.0
4.905999102378696,12.0
4.906996459382636,11.0
4.9079938163865755,7.0
4.908991173390516,8.0
4.909988530394455,5.0
4.910985887398394,1.0
4.911983244402334,2.0
4.912980601406273,-7.0
4.9139779584102135,-8.0
4.914975315414153,-8.0
4.915972672418092,-11.0
4.916970029422032,-10.0
4.917967386425971,-8.0
4.918964743429911,-13.0
4.9199621004338505,-9.0
4.92095945743779,-2.0
4.92195681444173,3.0
4.922954171445669,6.0
4.923951528449608,5.0
4.924948885453548,8.0
4.925946242457488,15.0
4.926943599461428,13.0
4.927940956465367,5.0
4.928938313469306,7.0
4.929935670473246,5.0
4.930933027477185,5.0
4.9319303844811255,-1.0
4.932927741485065,-5.0
4.933925098489004,-10.0
4.934922455492944,-11.0
4.935919812496883,-10.0
4.936917169500823,-8.0
4.937914526504763,-6.0
4.938911883508702,-8.0
4.939909240512642,-6.0
4.940906597516581,-5.0
4.94190395452052,-2.0
4.94290131152446,6.0
4.9438986685284,11.0
4.94489602553234,11.0
4.945893382536279,12.0
4.946890739540218,9.0
4.947888096544158,5.0
4.9488854535480975,6.0
4.949882810552038,3.0
4.950880167555977,1.0
4.951877524559916,0.0
4.952874881563856,-4.0
4.953872238567795,-8.0
4.9548695955717355,-11.0
4.955866952575675,-12.0
4.956864309579614,-7.0
4.957861666583554,-4.0
4.958859023587493,-8.0
4.959856380591433,-8.0
4.9608537375953725,-4.0
4.961851094599312,-2.0
4.962848451603252,4.0
4.963845808607191,9.0
4.96484316561113,13.0
4.96584052261507,14.0
4.96683787961901,10.0
4.96783523662295,6.0
4.968832593626889,7.0
4.969829950630828,3.0
4.970827307634768,2.0
4.971824664638707,-2.0
4.9728220216426475,-7.0
4.973819378646587,-10.0
4.974816735650526,-11.0
4.975814092654466,-12.0
4.976811449658405,-7.0
4.977808806662345,-4.0
4.978806163666285,-9.0
4.979803520670224,-5.0
4.980800877674164,-4.0
4.981798234678103,1.0
4.982795591682042,7.0
4.983792948685982,9.0
4.984790305689922,11.0
4.985787662693862,11.0
4.986785019697801,8.0
4.98778237670174,6.0
4.98877973370568,5.0
4.9897770907096195,4.0
4.99077444771356,4.0
4.991771804717499,-1.0
4.992769161721438,-8.0
4.993766518725378,-8.0
4.994763875729317,-10.0
4.9957612327332575,-11.0
4.996758589737197,-9.0
4.997755946741136,-5.0
4.998753303745076,-7.0
4.999750660749015,-7.0
5.000748017752954,-3.0
5.0017453747568945,1.0
5.002742731760834,5.0
5.003740088764774,9.0
5.004737445768713,11.0
5.005734802772652,12.0
5.006732159776592,9.0
5.007729516780532,7.0
5.008726873784472,7.0
5.009724230788411,6.0
5.01072158779235,5.0
5.01171894479629,-3.0
5.012716301800229,-7.0
5.0137136588041695,-8.0
5.014711015808109,-11.0
5.015708372812048,-11.0
5.016705729815988,-9.0
5.017703086819927,-4.0
5.0187004438238665,-8.0
5.019697800827807,-10.0
5.020695157831746,-4.0
5.021692514835686,1.0
5.022689871839625,5.0
5.023687228843564,8.0
5.024684585847504,11.0
5.025681942851444,14.0
5.026679299855384,12.0
5.027676656859323,7.0
5.028674013863262,5.0
5.029671370867202,6.0
5.0306687278711415,2.0
5.031666084875082,-1.0
5.032663441879021,-5.0
5.03366079888296,-5.0
5.0346581558869,-11.0
5.035655512890839,-11.0
5.036652869894779,-10.0
5.037650226898719,-6.0
5.038647583902658,-7.0
5.039644940906598,-8.0
5.040642297910537,-6.0
5.041639654914476,0.0
5.0426370119184165,4.0
5.043634368922356,6.0
5.044631725926296,10.0
5.045629082930235,14.0
5.046626439934174,12.0
5.047623796938114,8.0
5.048621153942054,6.0
5.049618510945994,6.0
5.050615867949933,4.0
5.051613224953872,-2.0
5.052610581957812,-7.0
5.053607938961751,-12.0
5.0546052959656915,-10.0
5.055602652969631,-11.0
5.05660000997357,-7.0
5.05759736697751,-7.0
5.058594723981449,-10.0
5.0595920809853885,-8.0
5.060589437989329,-5.0
5.061586794993268,0.0
5.062584151997208,6.0
5.063581509001147,11.0
5.064578866005086,12.0
5.065576223009026,13.0
5.066573580012966,12.0
5.067570937016906,4.0
5.068568294020845,1.0
5.069565651024784,5.0
5.070563008028724,6.0
5.0715603650326635,1.0
5.072557722036604,-6.0
5.073555079040543,-10.0
5.074552436044482,-8.0
5.075549793048422,-13.0
5.076547150052361,-11.0
5.077544507056301,-4.0
5.078541864060241,-7.0
5.07953922106418,-7.0
5.08053657806812,-4.0
5.081533935072059,2.0
5.082531292075998,8.0
5.0835286490799385,11.0
5.084526006083878,10.0
5.085523363087818,13.0
5.086520720091757,8.0
5.087518077095696,5.0
5.088515434099636,5.0
5.089512791103576,-2.0
5.090510148107516,2.0
5.091507505111455,1.0
5.092504862115394,-5.0
5.093502219119334,-8.0
5.094499576123273,-10.0
5.095496933127213,-11.0
5.096494290131153,-7.0
5.097491647135092,-5.0
5.098489004139032,-7.0
5.099486361142971,-7.0
5.1004837181469105,-5.0
5.101481075150851,1.0
5.10247843215479,4.0
5.10347578915873,10.0
5.104473146162669,14.0
5.105470503166608,12.0
5.106467860170548,8.0
5.107465217174488,5.0
5.108462574178428,6.0
5.109459931182367,4.0
5.110457288186306,1.0
5.111454645190246,1.0
5.1124520021941855,-6.0
5.113449359198125,-8.0
5.114446716202065,-12.0
5.115444073206004,-12.0
5.116441430209944,-11.0
5.117438787213883,-4.0
5.118436144217823,-6.0
5.119433501221763,-8.0
5.120430858225702,-3.0
5.121428215229642,1.0
5.122425572233581,4.0
5.12342292923752,7.0
