Time,EMG
0.0,27.17345514950165
0.000996710854181202,30.17345514950165
0.001993421708362404,25.17345514950165
0.002990132562543606,12.173455149501649
0.003986843416724808,5.173455149501649
0.00498355427090601,-0.826544850498351
0.005980265125087212,-2.826544850498351
0.006976975979268414,-8.826544850498351
0.007973686833449616,-11.826544850498351
0.008970397687630818,-16.82654485049835
0.00996710854181202,-19.82654485049835
0.01096381939599322,-22.82654485049835
0.011960530250174423,-17.82654485049835
0.012957241104355626,-10.826544850498351
0.013953951958536827,-6.826544850498351
0.014950662812718028,0.17345514950164898
0.01594737366689923,8.173455149501649
0.016944084521080434,7.173455149501649
0.017940795375261637,5.173455149501649
0.018937506229442836,3.173455149501649
0.01993421708362404,6.173455149501649
0.02093092793780524,18.17345514950165
0.02192763879198644,30.17345514950165
0.022924349646167644,25.17345514950165
0.023921060500348847,8.173455149501649
0.02491777135453005,-9.826544850498351
0.025914482208711252,-1.826544850498351
0.02691119306289245,-2.826544850498351
0.027907903917073654,-11.826544850498351
0.028904614771254857,-15.826544850498351
0.029901325625436057,-22.82654485049835
0.03089803647961726,-23.82654485049835
0.03189474733379846,-6.826544850498351
0.032891458187979665,2.173455149501649
0.03388816904216087,0.17345514950164898
0.03488487989634207,3.173455149501649
0.03588159075052327,4.173455149501649
0.03687830160470447,7.173455149501649
0.03787501245888567,6.173455149501649
0.038871723313066875,9.173455149501649
0.03986843416724808,10.173455149501649
0.04086514502142928,12.173455149501649
0.04186185587561048,16.17345514950165
0.042858566729791686,17.17345514950165
0.04385527758397288,6.173455149501649
0.044851988438154085,1.173455149501649
0.04584869929233529,-0.826544850498351
0.04684541014651649,-4.826544850498351
0.04784212100069769,-7.826544850498351
0.048838831854878896,-15.826544850498351
0.0498355427090601,-14.826544850498351
0.0508322535632413,-8.826544850498351
0.051828964417422504,-7.826544850498351
0.0528256752716037,-17.82654485049835
0.0538223861257849,-8.826544850498351
0.054819096979966106,-6.826544850498351
0.05581580783414731,-2.826544850498351
0.05681251868832851,4.173455149501649
0.057809229542509714,7.173455149501649
0.05880594039669092,13.173455149501649
0.05980265125087211,13.173455149501649
0.060799362105053316,12.173455149501649
0.06179607295923452,14.173455149501649
0.06279278381341573,19.17345514950165
0.06378949466759692,12.173455149501649
0.06478620552177812,3.173455149501649
0.06578291637595933,-4.826544850498351
0.06677962723014053,-9.826544850498351
0.06777633808432174,-15.826544850498351
0.06877304893850293,-15.826544850498351
0.06976975979268414,-22.82654485049835
0.07076647064686534,-14.826544850498351
0.07176318150104655,-0.826544850498351
0.07275989235522774,-1.826544850498351
0.07375660320940894,-12.826544850498351
0.07475331406359015,-6.826544850498351
0.07575002491777134,6.173455149501649
0.07674673577195255,8.173455149501649
0.07774344662613375,4.173455149501649
0.07874015748031496,4.173455149501649
0.07973686833449616,13.173455149501649
0.08073357918867735,12.173455149501649
0.08173029004285856,14.173455149501649
0.08272700089703976,19.17345514950165
0.08372371175122097,17.17345514950165
0.08472042260540216,14.173455149501649
0.08571713345958337,13.173455149501649
0.08671384431376457,-1.826544850498351
0.08771055516794576,-14.826544850498351
0.08870726602212697,-23.82654485049835
0.08970397687630817,-24.82654485049835
0.09070068773048938,-23.82654485049835
0.09169739858467058,-19.82654485049835
0.09269410943885178,-18.82654485049835
0.09369082029303298,-14.826544850498351
0.09468753114721419,-3.826544850498351
0.09568424200139539,12.173455149501649
0.09668095285557658,11.173455149501649
0.09767766370975779,9.173455149501649
0.09867437456393899,12.173455149501649
0.0996710854181202,15.173455149501649
0.1006677962723014,12.173455149501649
0.1016645071264826,15.173455149501649
0.1026612179806638,17.17345514950165
0.10365792883484501,18.17345514950165
0.1046546396890262,22.17345514950165
0.1056513505432074,12.173455149501649
0.10664806139738861,-7.826544850498351
0.1076447722515698,-11.826544850498351
0.10864148310575102,-19.82654485049835
0.10963819395993221,-18.82654485049835
0.11063490481411342,-11.826544850498351
0.11163161566829462,-15.826544850498351
0.11262832652247581,-18.82654485049835
0.11362503737665702,-20.82654485049835
0.11462174823083822,-12.826544850498351
0.11561845908501943,-3.826544850498351
0.11661516993920062,6.173455149501649
0.11761188079338183,12.173455149501649
0.11860859164756303,9.173455149501649
0.11960530250174423,14.173455149501649
0.12060201335592544,13.173455149501649
0.12159872421010663,14.173455149501649
0.12259543506428784,19.17345514950165
0.12359214591846904,8.173455149501649
0.12458885677265025,9.173455149501649
0.12558556762683146,4.173455149501649
0.12658227848101264,-1.826544850498351
0.12757898933519385,-4.826544850498351
0.12857570018937506,-19.82654485049835
0.12957241104355624,-15.826544850498351
0.13056912189773745,-18.82654485049835
0.13156583275191866,-15.826544850498351
0.13256254360609987,-15.826544850498351
0.13355925446028105,-15.826544850498351
0.13455596531446226,-10.826544850498351
0.13555267616864347,-1.826544850498351
0.13654938702282465,6.173455149501649
0.13754609787700586,17.17345514950165
0.13854280873118707,15.173455149501649
0.13953951958536828,28.17345514950165
0.14053623043954946,22.17345514950165
0.14153294129373067,13.173455149501649
0.14252965214791188,9.173455149501649
0.1435263630020931,10.173455149501649
0.14452307385627428,4.173455149501649
0.14551978471045549,-4.826544850498351
0.1465164955646367,-10.826544850498351
0.14751320641881788,-13.826544850498351
0.1485099172729991,-21.82654485049835
0.1495066281271803,-15.826544850498351
0.1505033389813615,-3.826544850498351
0.1515000498355427,8.173455149501649
0.1524967606897239,11.173455149501649
0.1534934715439051,-9.826544850498351
0.1544901823980863,-9.826544850498351
0.1554868932522675,-7.826544850498351
0.1564836041064487,1.173455149501649
0.15748031496062992,4.173455149501649
0.1584770258148111,7.173455149501649
0.1594737366689923,13.173455149501649
0.16047044752317352,8.173455149501649
0.1614671583773547,12.173455149501649
0.1624638692315359,15.173455149501649
0.16346058008571712,12.173455149501649
0.16445729093989833,5.173455149501649
0.1654540017940795,3.173455149501649
0.16645071264826072,-4.826544850498351
0.16744742350244193,-11.826544850498351
0.16844413435662312,-15.826544850498351
0.16944084521080433,-22.82654485049835
0.17043755606498553,-17.82654485049835
0.17143426691916674,-14.826544850498351
0.17243097777334793,-16.82654485049835
0.17342768862752914,-7.826544850498351
0.17442439948171035,4.173455149501649
0.17542111033589153,-2.826544850498351
0.17641782119007274,-6.826544850498351
0.17741453204425395,1.173455149501649
0.17841124289843516,7.173455149501649
0.17940795375261634,10.173455149501649
0.18040466460679755,12.173455149501649
0.18140137546097876,20.17345514950165
0.18239808631515997,28.17345514950165
0.18339479716934115,22.17345514950165
0.18439150802352236,17.17345514950165
0.18538821887770357,11.173455149501649
0.18638492973188475,5.173455149501649
0.18738164058606596,1.173455149501649
0.18837835144024717,-19.82654485049835
0.18937506229442838,-29.82654485049835
0.19037177314860956,-25.82654485049835
0.19136848400279077,-22.82654485049835
0.19236519485697198,-18.82654485049835
0.19336190571115316,-14.826544850498351
0.19435861656533437,1.173455149501649
0.19535532741951558,4.173455149501649
0.1963520382736968,11.173455149501649
0.19734874912787798,18.17345514950165
0.19834545998205919,20.17345514950165
0.1993421708362404,12.173455149501649
0.20033888169042158,12.173455149501649
0.2013355925446028,12.173455149501649
0.202332303398784,12.173455149501649
0.2033290142529652,11.173455149501649
0.2043257251071464,-0.826544850498351
0.2053224359613276,-14.826544850498351
0.2063191468155088,-9.826544850498351
0.20731585766969002,-8.826544850498351
0.2083125685238712,-14.826544850498351
0.2093092793780524,-10.826544850498351
0.21030599023223362,-12.826544850498351
0.2113027010864148,-11.826544850498351
0.212299411940596,-12.826544850498351
0.21329612279477722,-6.826544850498351
0.21429283364895843,3.173455149501649
0.2152895445031396,3.173455149501649
0.21628625535732082,1.173455149501649
0.21728296621150203,4.173455149501649
0.21827967706568321,12.173455149501649
0.21927638791986442,12.173455149501649
0.22027309877404563,14.173455149501649
0.22126980962822684,13.173455149501649
0.22226652048240803,14.173455149501649
0.22326323133658924,10.173455149501649
0.22425994219077044,5.173455149501649
0.22525665304495163,-1.826544850498351
0.22625336389913284,-6.826544850498351
0.22725007475331405,-9.826544850498351
0.22824678560749526,-12.826544850498351
0.22924349646167644,-16.82654485049835
0.23024020731585765,-14.826544850498351
0.23123691817003886,-1.826544850498351
0.23223362902422004,-6.826544850498351
0.23323033987840125,-12.826544850498351
0.23422705073258246,-12.826544850498351
0.23522376158676367,-6.826544850498351
0.23622047244094485,6.173455149501649
0.23721718329512606,9.173455149501649
0.23821389414930727,15.173455149501649
0.23921060500348845,26.17345514950165
0.24020731585766966,22.17345514950165
0.24120402671185087,19.17345514950165
0.24220073756603208,27.17345514950165
0.24319744842021326,15.173455149501649
0.24419415927439447,4.173455149501649
0.24519087012857568,-6.826544850498351
0.2461875809827569,-12.826544850498351
0.24718429183693807,-12.826544850498351
0.24818100269111928,-23.82654485049835
0.2491777135453005,-23.82654485049835
0.2501744243994817,-25.82654485049835
0.2511711352536629,-15.826544850498351
0.2521678461078441,-8.826544850498351
0.2531645569620253,-3.826544850498351
0.2541612678162065,-3.826544850498351
0.2551579786703877,-0.826544850498351
0.2561546895245689,5.173455149501649
0.2571514003787501,9.173455149501649
0.2581481112329313,12.173455149501649
0.2591448220871125,20.17345514950165
0.2601415329412937,15.173455149501649
0.2611382437954749,12.173455149501649
0.26213495464965614,13.173455149501649
0.2631316655038373,15.173455149501649
0.2641283763580185,12.173455149501649
0.26512508721219974,5.173455149501649
0.2661217980663809,-9.826544850498351
0.2671185089205621,-10.826544850498351
0.26811521977474334,-16.82654485049835
0.2691119306289245,-14.826544850498351
0.2701086414831057,-13.826544850498351
0.27110535233728694,-17.82654485049835
0.2721020631914681,-19.82654485049835
0.2730987740456493,-10.826544850498351
0.27409548489983054,9.173455149501649
0.2750921957540117,7.173455149501649
0.27608890660819296,-9.826544850498351
0.27708561746237415,-4.826544850498351
0.2780823283165553,21.17345514950165
0.27907903917073656,35.17345514950165
0.28007575002491775,18.17345514950165
0.28107246087909893,12.173455149501649
0.28206917173328017,9.173455149501649
0.28306588258746135,10.173455149501649
0.28406259344164253,6.173455149501649
0.28505930429582377,0.17345514950164898
0.28605601515000495,-8.826544850498351
0.2870527260041862,-3.826544850498351
0.28804943685836737,-11.826544850498351
0.28904614771254855,-11.826544850498351
0.2900428585667298,-13.826544850498351
0.29103956942091097,-16.82654485049835
0.29203628027509215,-12.826544850498351
0.2930329911292734,-17.82654485049835
0.29402970198345457,-15.826544850498351
0.29502641283763575,-9.826544850498351
0.296023123691817,3.173455149501649
0.2970198345459982,18.17345514950165
0.29801654540017936,20.17345514950165
0.2990132562543606,15.173455149501649
0.3000099671085418,11.173455149501649
0.301006677962723,13.173455149501649
0.3020033888169042,11.173455149501649
0.3030000996710854,3.173455149501649
0.3039968105252666,-4.826544850498351
0.3049935213794478,-5.826544850498351
0.305990232233629,-1.826544850498351
0.3069869430878102,-4.826544850498351
0.3079836539419914,-2.826544850498351
0.3089803647961726,-1.826544850498351
0.3099770756503538,-5.826544850498351
0.310973786504535,-9.826544850498351
0.3119704973587162,-11.826544850498351
0.3129672082128974,-12.826544850498351
0.3139639190670786,-4.826544850498351
0.31496062992125984,-6.826544850498351
0.315957340775441,1.173455149501649
0.3169540516296222,19.17345514950165
0.31795076248380344,14.173455149501649
0.3189474733379846,11.173455149501649
0.3199441841921658,20.17345514950165
0.32094089504634704,22.17345514950165
0.3219376059005282,20.17345514950165
0.3229343167547094,3.173455149501649
0.32393102760889064,2.173455149501649
0.3249277384630718,-7.826544850498351
0.32592444931725306,-17.82654485049835
0.32692116017143424,-18.82654485049835
0.3279178710256154,-24.82654485049835
0.32891458187979666,-18.82654485049835
0.32991129273397785,-1.826544850498351
0.330908003588159,0.17345514950164898
0.33190471444234027,-7.826544850498351
0.33290142529652145,-12.826544850498351
0.33389813615070263,-7.826544850498351
0.33489484700488387,-2.826544850498351
0.33589155785906505,5.173455149501649
0.33688826871324623,4.173455149501649
0.33788497956742747,13.173455149501649
0.33888169042160865,12.173455149501649
0.3398784012757899,12.173455149501649
0.34087511212997107,18.17345514950165
0.34187182298415225,15.173455149501649
0.3428685338383335,16.17345514950165
0.34386524469251467,16.17345514950165
0.34486195554669585,10.173455149501649
0.3458586664008771,-3.826544850498351
0.3468553772550583,-12.826544850498351
0.34785208810923945,-16.82654485049835
0.3488487989634207,-22.82654485049835
0.3498455098176019,-21.82654485049835
0.35084222067178306,-13.826544850498351
0.3518389315259643,-12.826544850498351
0.3528356423801455,-8.826544850498351
0.3538323532343267,-10.826544850498351
0.3548290640885079,-1.826544850498351
0.3558257749426891,-0.826544850498351
0.3568224857968703,9.173455149501649
0.3578191966510515,23.17345514950165
0.3588159075052327,29.17345514950165
0.3598126183594139,20.17345514950165
0.3608093292135951,8.173455149501649
0.3618060400677763,1.173455149501649
0.3628027509219575,0.17345514950164898
0.3637994617761387,0.17345514950164898
0.36479617263031994,-6.826544850498351
0.3657928834845011,-1.826544850498351
0.3667895943386823,-7.826544850498351
0.36778630519286354,-6.826544850498351
0.3687830160470447,-2.826544850498351
0.3697797269012259,-10.826544850498351
0.37077643775540714,-20.82654485049835
0.3717731486095883,-22.82654485049835
0.3727698594637695,-7.826544850498351
0.37376657031795074,6.173455149501649
0.3747632811721319,1.173455149501649
0.3757599920263131,12.173455149501649
0.37675670288049434,15.173455149501649
0.3777534137346755,12.173455149501649
0.37875012458885676,8.173455149501649
0.37974683544303794,13.173455149501649
0.3807435462972191,25.17345514950165
0.38174025715140036,19.17345514950165
0.38273696800558155,14.173455149501649
0.38373367885976273,3.173455149501649
0.38473038971394397,-9.826544850498351
0.38572710056812515,-13.826544850498351
0.38672381142230633,-19.82654485049835
0.38772052227648757,-22.82654485049835
0.38871723313066875,-22.82654485049835
0.38971394398485,-18.82654485049835
0.39071065483903117,-3.826544850498351
0.39170736569321235,-4.826544850498351
0.3927040765473936,-6.826544850498351
0.39370078740157477,4.173455149501649
0.39469749825575595,-0.826544850498351
0.3956942091099372,-2.826544850498351
0.39669091996411837,12.173455149501649
0.39768763081829955,16.17345514950165
0.3986843416724808,14.173455149501649
0.399681052526662,16.17345514950165
0.40067776338084315,17.17345514950165
0.4016744742350244,17.17345514950165
0.4026711850892056,4.173455149501649
0.4036678959433868,3.173455149501649
0.404664606797568,1.173455149501649
0.4056613176517492,-3.826544850498351
0.4066580285059304,-8.826544850498351
0.4076547393601116,-13.826544850498351
0.4086514502142928,-19.82654485049835
0.409648161068474,-21.82654485049835
0.4106448719226552,-15.826544850498351
0.4116415827768364,-10.826544850498351
0.4126382936310176,-7.826544850498351
0.4136350044851988,-2.826544850498351
0.41463171533938004,0.17345514950164898
0.4156284261935612,6.173455149501649
0.4166251370477424,12.173455149501649
0.41762184790192364,15.173455149501649
0.4186185587561048,14.173455149501649
0.419615269610286,13.173455149501649
0.42061198046446724,19.17345514950165
0.4216086913186484,17.17345514950165
0.4226054021728296,5.173455149501649
0.42360211302701084,-0.826544850498351
0.424598823881192,-1.826544850498351
0.4255955347353732,-3.826544850498351
0.42659224558955444,-10.826544850498351
0.4275889564437356,-13.826544850498351
0.42858566729791686,-13.826544850498351
0.42958237815209804,-4.826544850498351
0.4305790890062792,-9.826544850498351
0.43157579986046046,-12.826544850498351
0.43257251071464164,-15.826544850498351
0.4335692215688228,-11.826544850498351
0.43456593242300406,-7.826544850498351
0.43556264327718525,11.173455149501649
0.43655935413136643,14.173455149501649
0.43755606498554767,7.173455149501649
0.43855277583972885,15.173455149501649
0.43954948669391003,18.17345514950165
0.44054619754809127,17.17345514950165
0.44154290840227245,12.173455149501649
0.4425396192564537,16.17345514950165
0.44353633011063487,5.173455149501649
0.44453304096481605,0.17345514950164898
0.4455297518189973,-6.826544850498351
0.44652646267317847,-14.826544850498351
0.44752317352735965,-17.82654485049835
0.4485198843815409,-14.826544850498351
0.44951659523572207,-18.82654485049835
0.45051330608990325,-12.826544850498351
0.4515100169440845,-6.826544850498351
0.4525067277982657,-1.826544850498351
0.4535034386524469,2.173455149501649
0.4545001495066281,1.173455149501649
0.4554968603608093,7.173455149501649
0.4564935712149905,4.173455149501649
0.4574902820691717,0.17345514950164898
0.4584869929233529,11.173455149501649
0.4594837037775341,19.17345514950165
0.4604804146317153,22.17345514950165
0.4614771254858965,22.17345514950165
0.4624738363400777,17.17345514950165
0.4634705471942589,5.173455149501649
0.4644672580484401,-4.826544850498351
0.4654639689026213,-11.826544850498351
0.4664606797568025,-14.826544850498351
0.46745739061098374,-15.826544850498351
0.4684541014651649,-5.826544850498351
0.4694508123193461,-17.82654485049835
0.47044752317352734,-22.82654485049835
0.4714442340277085,-16.82654485049835
0.4724409448818897,-12.826544850498351
0.47343765573607094,-5.826544850498351
0.4744343665902521,-1.826544850498351
0.4754310774444333,9.173455149501649
0.47642778829861454,22.17345514950165
0.4774244991527957,21.17345514950165
0.4784212100069769,14.173455149501649
0.47941792086115814,6.173455149501649
0.4804146317153393,3.173455149501649
0.48141134256952056,5.173455149501649
0.48240805342370174,8.173455149501649
0.4834047642778829,-0.826544850498351
0.48440147513206416,-1.826544850498351
0.48539818598624535,5.173455149501649
0.4863948968404265,8.173455149501649
0.48739160769460776,5.173455149501649
0.48838831854878895,-11.826544850498351
0.48938502940297013,-21.82654485049835
0.49038174025715137,-19.82654485049835
0.49137845111133255,-20.82654485049835
0.4923751619655138,-13.826544850498351
0.49337187281969497,-0.826544850498351
0.49436858367387615,-4.826544850498351
0.4953652945280574,4.173455149501649
0.49636200538223857,9.173455149501649
0.49735871623641975,16.17345514950165
0.498355427090601,17.17345514950165
0.49935213794478217,12.173455149501649
0.5003488487989634,8.173455149501649
0.5013455596531445,16.17345514950165
0.5023422705073258,11.173455149501649
0.503338981361507,0.17345514950164898
0.5043356922156882,-3.826544850498351
0.5053324030698694,-2.826544850498351
0.5063291139240506,-9.826544850498351
0.5073258247782317,-13.826544850498351
0.508322535632413,-15.826544850498351
0.5093192464865942,-17.82654485049835
0.5103159573407754,-10.826544850498351
0.5113126681949566,-6.826544850498351
0.5123093790491378,-1.826544850498351
0.513306089903319,-5.826544850498351
0.5143028007575002,-2.826544850498351
0.5152995116116814,4.173455149501649
0.5162962224658626,5.173455149501649
0.5172929333200438,1.173455149501649
0.518289644174225,10.173455149501649
0.5192863550284063,20.17345514950165
0.5202830658825874,21.17345514950165
0.5212797767367686,14.173455149501649
0.5222764875909498,16.17345514950165
0.523273198445131,18.17345514950165
0.5242699092993123,6.173455149501649
0.5252666201534935,-12.826544850498351
0.5262633310076746,-13.826544850498351
0.5272600418618558,-11.826544850498351
0.528256752716037,-9.826544850498351
0.5292534635702182,-10.826544850498351
0.5302501744243995,-14.826544850498351
0.5312468852785807,-8.826544850498351
0.5322435961327618,-8.826544850498351
0.533240306986943,-12.826544850498351
0.5342370178411242,-9.826544850498351
0.5352337286953054,4.173455149501649
0.5362304395494867,14.173455149501649
0.5372271504036679,5.173455149501649
0.538223861257849,9.173455149501649
0.5392205721120302,14.173455149501649
0.5402172829662114,13.173455149501649
0.5412139938203927,17.17345514950165
0.5422107046745739,5.173455149501649
0.5432074155287551,0.17345514950164898
0.5442041263829362,5.173455149501649
0.5452008372371174,8.173455149501649
0.5461975480912986,2.173455149501649
0.5471942589454799,-13.826544850498351
0.5481909697996611,-15.826544850498351
0.5491876806538423,-21.82654485049835
0.5501843915080235,-18.82654485049835
0.5511811023622046,-13.826544850498351
0.5521778132163859,-12.826544850498351
0.5531745240705671,-3.826544850498351
0.5541712349247483,-5.826544850498351
0.5551679457789295,2.173455149501649
0.5561646566331107,7.173455149501649
0.5571613674872918,7.173455149501649
0.5581580783414731,10.173455149501649
0.5591547891956543,11.173455149501649
0.5601515000498355,20.17345514950165
0.5611482109040167,24.17345514950165
0.5621449217581979,19.17345514950165
0.5631416326123792,18.17345514950165
0.5641383434665603,6.173455149501649
0.5651350543207415,-10.826544850498351
0.5661317651749227,-10.826544850498351
0.5671284760291039,-14.826544850498351
0.5681251868832851,-21.82654485049835
0.5691218977374664,-19.82654485049835
0.5701186085916475,-12.826544850498351
0.5711153194458287,-11.826544850498351
0.5721120303000099,-14.826544850498351
0.5731087411541911,-5.826544850498351
0.5741054520083724,-1.826544850498351
0.5751021628625536,8.173455149501649
0.5760988737167347,13.173455149501649
0.5770955845709159,13.173455149501649
0.5780922954250971,12.173455149501649
0.5790890062792783,16.17345514950165
0.5800857171334596,14.173455149501649
0.5810824279876408,19.17345514950165
0.5820791388418219,17.17345514950165
0.5830758496960031,5.173455149501649
0.5840725605501843,-3.826544850498351
0.5850692714043655,-9.826544850498351
0.5860659822585468,-14.826544850498351
0.587062693112728,-21.82654485049835
0.5880594039669091,-16.82654485049835
0.5890561148210903,-16.82654485049835
0.5900528256752715,-10.826544850498351
0.5910495365294528,-17.82654485049835
0.592046247383634,-10.826544850498351
0.5930429582378152,1.173455149501649
0.5940396690919963,12.173455149501649
0.5950363799461775,15.173455149501649
0.5960330908003587,12.173455149501649
0.59702980165454,9.173455149501649
0.5980265125087212,9.173455149501649
0.5990232233629024,10.173455149501649
0.6000199342170836,14.173455149501649
0.6010166450712647,14.173455149501649
0.602013355925446,11.173455149501649
0.6030100667796272,10.173455149501649
0.6040067776338084,2.173455149501649
0.6050034884879896,-1.826544850498351
0.6060001993421708,-7.826544850498351
0.6069969101963519,-13.826544850498351
0.6079936210505332,-20.82654485049835
0.6089903319047144,-21.82654485049835
0.6099870427588956,-12.826544850498351
0.6109837536130768,-10.826544850498351
0.611980464467258,-15.826544850498351
0.6129771753214392,-14.826544850498351
0.6139738861756204,-4.826544850498351
0.6149705970298016,2.173455149501649
0.6159673078839828,10.173455149501649
0.616964018738164,20.17345514950165
0.6179607295923452,19.17345514950165
0.6189574404465265,16.17345514950165
0.6199541513007076,20.17345514950165
0.6209508621548888,19.17345514950165
0.62194757300907,20.17345514950165
0.6229442838632512,10.173455149501649
0.6239409947174324,-13.826544850498351
0.6249377055716137,-11.826544850498351
0.6259344164257948,-9.826544850498351
0.626931127279976,-5.826544850498351
0.6279278381341572,-7.826544850498351
0.6289245489883384,-24.82654485049835
0.6299212598425197,-22.82654485049835
0.6309179706967009,-13.826544850498351
0.631914681550882,-12.826544850498351
0.6329113924050632,-1.826544850498351
0.6339081032592444,11.173455149501649
0.6349048141134256,11.173455149501649
0.6359015249676069,18.17345514950165
0.6368982358217881,10.173455149501649
0.6378949466759692,10.173455149501649
0.6388916575301504,12.173455149501649
0.6398883683843316,13.173455149501649
0.6408850792385129,15.173455149501649
0.6418817900926941,8.173455149501649
0.6428785009468753,0.17345514950164898
0.6438752118010564,-2.826544850498351
0.6448719226552376,-4.826544850498351
0.6458686335094188,-8.826544850498351
0.6468653443636001,-9.826544850498351
0.6478620552177813,-8.826544850498351
0.6488587660719625,-10.826544850498351
0.6498554769261436,-10.826544850498351
0.6508521877803248,-12.826544850498351
0.6518488986345061,-10.826544850498351
0.6528456094886873,-8.826544850498351
0.6538423203428685,-6.826544850498351
0.6548390311970497,3.173455149501649
0.6558357420512309,8.173455149501649
0.656832452905412,11.173455149501649
0.6578291637595933,12.173455149501649
0.6588258746137745,17.17345514950165
0.6598225854679557,19.17345514950165
0.6608192963221369,14.173455149501649
0.661816007176318,3.173455149501649
0.6628127180304992,3.173455149501649
0.6638094288846805,-1.826544850498351
0.6648061397388617,-8.826544850498351
0.6658028505930429,-8.826544850498351
0.6667995614472241,-7.826544850498351
0.6677962723014053,-5.826544850498351
0.6687929831555866,-11.826544850498351
0.6697896940097677,-18.82654485049835
0.6707864048639489,-14.826544850498351
0.6717831157181301,-10.826544850498351
0.6727798265723113,-6.826544850498351
0.6737765374264925,-8.826544850498351
0.6747732482806738,-0.826544850498351
0.6757699591348549,8.173455149501649
0.6767666699890361,16.17345514950165
0.6777633808432173,25.17345514950165
0.6787600916973985,27.17345514950165
0.6797568025515798,25.17345514950165
0.680753513405761,12.173455149501649
0.6817502242599421,0.17345514950164898
0.6827469351141233,0.17345514950164898
0.6837436459683045,1.173455149501649
0.6847403568224857,-3.826544850498351
0.685737067676667,-10.826544850498351
0.6867337785308482,-12.826544850498351
0.6877304893850293,-15.826544850498351
0.6887272002392105,-20.82654485049835
0.6897239110933917,-19.82654485049835
0.690720621947573,-14.826544850498351
0.6917173328017542,-11.826544850498351
0.6927140436559354,-6.826544850498351
0.6937107545101165,0.17345514950164898
0.6947074653642977,18.17345514950165
0.6957041762184789,20.17345514950165
0.6967008870726602,7.173455149501649
0.6976975979268414,4.173455149501649
0.6986943087810226,13.173455149501649
0.6996910196352037,19.17345514950165
0.7006877304893849,15.173455149501649
0.7016844413435661,12.173455149501649
0.7026811521977474,8.173455149501649
0.7036778630519286,11.173455149501649
0.7046745739061098,6.173455149501649
0.705671284760291,-12.826544850498351
0.7066679956144721,-23.82654485049835
0.7076647064686534,-20.82654485049835
0.7086614173228346,-20.82654485049835
0.7096581281770158,-19.82654485049835
0.710654839031197,-20.82654485049835
0.7116515498853782,-18.82654485049835
0.7126482607395593,-6.826544850498351
0.7136449715937406,8.173455149501649
0.7146416824479218,12.173455149501649
0.715638393302103,19.17345514950165
0.7166351041562842,18.17345514950165
0.7176318150104654,14.173455149501649
0.7186285258646467,17.17345514950165
0.7196252367188278,26.17345514950165
0.720621947573009,13.173455149501649
0.7216186584271902,-2.826544850498351
0.7226153692813714,4.173455149501649
0.7236120801355526,-10.826544850498351
0.7246087909897339,-12.826544850498351
0.725605501843915,-11.826544850498351
0.7266022126980962,-15.826544850498351
0.7275989235522774,-19.82654485049835
0.7285956344064586,-23.82654485049835
0.7295923452606399,-14.826544850498351
0.7305890561148211,-8.826544850498351
0.7315857669690022,-8.826544850498351
0.7325824778231834,6.173455149501649
0.7335791886773646,22.17345514950165
0.7345758995315458,24.17345514950165
0.7355726103857271,18.17345514950165
0.7365693212399083,13.173455149501649
0.7375660320940894,12.173455149501649
0.7385627429482706,12.173455149501649
0.7395594538024518,9.173455149501649
0.7405561646566331,8.173455149501649
0.7415528755108143,-2.826544850498351
0.7425495863649955,-2.826544850498351
0.7435462972191766,-7.826544850498351
0.7445430080733578,-5.826544850498351
0.745539718927539,-10.826544850498351
0.7465364297817203,-9.826544850498351
0.7475331406359015,-7.826544850498351
0.7485298514900827,-9.826544850498351
0.7495265623442638,-10.826544850498351
0.750523273198445,-19.82654485049835
0.7515199840526262,-16.82654485049835
0.7525166949068075,-8.826544850498351
0.7535134057609887,0.17345514950164898
0.7545101166151699,1.173455149501649
0.755506827469351,13.173455149501649
0.7565035383235322,17.17345514950165
0.7575002491777135,12.173455149501649
0.7584969600318947,17.17345514950165
0.7594936708860759,12.173455149501649
0.7604903817402571,11.173455149501649
0.7614870925944383,11.173455149501649
0.7624838034486194,7.173455149501649
0.7634805143028007,0.17345514950164898
0.7644772251569819,1.173455149501649
0.7654739360111631,-3.826544850498351
0.7664706468653443,-10.826544850498351
0.7674673577195255,-27.82654485049835
0.7684640685737067,-23.82654485049835
0.7694607794278879,-11.826544850498351
0.7704574902820691,-10.826544850498351
0.7714542011362503,-8.826544850498351
0.7724509119904315,-5.826544850498351
0.7734476228446127,1.173455149501649
0.774444333698794,10.173455149501649
0.7754410445529751,8.173455149501649
0.7764377554071563,5.173455149501649
0.7774344662613375,9.173455149501649
0.7784311771155187,10.173455149501649
0.7794278879697,17.17345514950165
0.7804245988238812,16.17345514950165
0.7814213096780623,5.173455149501649
0.7824180205322435,5.173455149501649
0.7834147313864247,0.17345514950164898
0.7844114422406059,-11.826544850498351
0.7854081530947872,-7.826544850498351
0.7864048639489684,-0.826544850498351
0.7874015748031495,1.173455149501649
0.7883982856573307,-7.826544850498351
0.7893949965115119,-12.826544850498351
0.7903917073656931,-21.82654485049835
0.7913884182198744,-24.82654485049835
0.7923851290740556,-20.82654485049835
0.7933818399282367,-4.826544850498351
0.7943785507824179,14.173455149501649
0.7953752616365991,20.17345514950165
0.7963719724907804,19.17345514950165
0.7973686833449616,20.17345514950165
0.7983653941991428,15.173455149501649
0.799362105053324,17.17345514950165
0.8003588159075051,17.17345514950165
0.8013555267616863,2.173455149501649
0.8023522376158676,4.173455149501649
0.8033489484700488,9.173455149501649
0.80434565932423,5.173455149501649
0.8053423701784111,-10.826544850498351
0.8063390810325923,-40.82654485049835
0.8073357918867736,-30.82654485049835
0.8083325027409548,-26.82654485049835
0.809329213595136,-7.826544850498351
0.8103259244493172,10.173455149501649
0.8113226353034984,13.173455149501649
0.8123193461576795,-2.826544850498351
0.8133160570118608,-6.826544850498351
0.814312767866042,5.173455149501649
0.8153094787202232,10.173455149501649
0.8163061895744044,7.173455149501649
0.8173029004285856,17.17345514950165
0.8182996112827668,18.17345514950165
0.819296322136948,12.173455149501649
0.8202930329911292,-0.826544850498351
0.8212897438453104,4.173455149501649
0.8222864546994916,-2.826544850498351
0.8232831655536728,-18.82654485049835
0.824279876407854,-3.826544850498351
0.8252765872620352,11.173455149501649
0.8262732981162164,4.173455149501649
0.8272700089703976,-10.826544850498351
0.8282667198245788,-3.826544850498351
0.8292634306787601,0.17345514950164898
0.8302601415329413,-6.826544850498351
0.8312568523871224,-19.82654485049835
0.8322535632413036,-24.82654485049835
0.8332502740954848,-12.826544850498351
0.834246984949666,3.173455149501649
0.8352436958038473,5.173455149501649
0.8362404066580285,3.173455149501649
0.8372371175122096,15.173455149501649
0.8382338283663908,17.17345514950165
0.839230539220572,19.17345514950165
0.8402272500747532,28.17345514950165
0.8412239609289345,28.17345514950165
0.8422206717831157,9.173455149501649
0.8432173826372968,-7.826544850498351
0.844214093491478,-10.826544850498351
0.8452108043456592,-7.826544850498351
0.8462075151998405,-20.82654485049835
0.8472042260540217,-24.82654485049835
0.8482009369082029,-28.82654485049835
0.849197647762384,-22.82654485049835
0.8501943586165652,-18.82654485049835
0.8511910694707464,-2.826544850498351
0.8521877803249277,3.173455149501649
0.8531844911791089,-5.826544850498351
0.8541812020332901,7.173455149501649
0.8551779128874712,20.17345514950165
0.8561746237416524,17.17345514950165
0.8571713345958337,20.17345514950165
0.8581680454500149,22.17345514950165
0.8591647563041961,18.17345514950165
0.8601614671583773,10.173455149501649
0.8611581780125585,8.173455149501649
0.8621548888667396,2.173455149501649
0.8631515997209209,-8.826544850498351
0.8641483105751021,-1.826544850498351
0.8651450214292833,-4.826544850498351
0.8661417322834645,-9.826544850498351
0.8671384431376457,-14.826544850498351
0.868135153991827,-12.826544850498351
0.8691318648460081,-14.826544850498351
0.8701285757001893,-10.826544850498351
0.8711252865543705,-8.826544850498351
0.8721219974085517,-4.826544850498351
0.8731187082627329,-2.826544850498351
0.8741154191169141,3.173455149501649
0.8751121299710953,6.173455149501649
0.8761088408252765,5.173455149501649
0.8771055516794577,8.173455149501649
0.8781022625336389,12.173455149501649
0.8790989733878201,19.17345514950165
0.8800956842420014,18.17345514950165
0.8810923950961825,11.173455149501649
0.8820891059503637,4.173455149501649
0.8830858168045449,-3.826544850498351
0.8840825276587261,-10.826544850498351
0.8850792385129074,-6.826544850498351
0.8860759493670886,-9.826544850498351
0.8870726602212697,-13.826544850498351
0.8880693710754509,-15.826544850498351
0.8890660819296321,-16.82654485049835
0.8900627927838133,-11.826544850498351
0.8910595036379946,-8.826544850498351
0.8920562144921758,-4.826544850498351
0.8930529253463569,1.173455149501649
0.8940496362005381,5.173455149501649
0.8950463470547193,13.173455149501649
0.8960430579089006,15.173455149501649
0.8970397687630818,14.173455149501649
0.898036479617263,19.17345514950165
0.8990331904714441,16.17345514950165
0.9000299013256253,11.173455149501649
0.9010266121798065,11.173455149501649
0.9020233230339878,4.173455149501649
0.903020033888169,-0.826544850498351
0.9040167447423502,-7.826544850498351
0.9050134555965313,-10.826544850498351
0.9060101664507125,-17.82654485049835
0.9070068773048938,-16.82654485049835
0.908003588159075,-15.826544850498351
0.9090002990132562,-9.826544850498351
0.9099970098674374,-11.826544850498351
0.9109937207216185,-6.826544850498351
0.9119904315757997,-10.826544850498351
0.912987142429981,-7.826544850498351
0.9139838532841622,-0.826544850498351
0.9149805641383434,5.173455149501649
0.9159772749925246,16.17345514950165
0.9169739858467058,28.17345514950165
0.9179706967008869,29.17345514950165
0.9189674075550682,19.17345514950165
0.9199641184092494,11.173455149501649
0.9209608292634306,5.173455149501649
0.9219575401176118,1.173455149501649
0.922954250971793,1.173455149501649
0.9239509618259742,-6.826544850498351
0.9249476726801554,-7.826544850498351
0.9259443835343366,-11.826544850498351
0.9269410943885178,-14.826544850498351
0.927937805242699,-19.82654485049835
0.9289345160968802,-16.82654485049835
0.9299312269510615,-8.826544850498351
0.9309279378052426,-9.826544850498351
0.9319246486594238,-10.826544850498351
0.932921359513605,-4.826544850498351
0.9339180703677862,8.173455149501649
0.9349147812219675,21.17345514950165
0.9359114920761487,14.173455149501649
0.9369082029303298,11.173455149501649
0.937904913784511,3.173455149501649
0.9389016246386922,7.173455149501649
0.9398983354928734,16.17345514950165
0.9408950463470547,10.173455149501649
0.9418917572012359,5.173455149501649
0.942888468055417,1.173455149501649
0.9438851789095982,1.173455149501649
0.9448818897637794,-8.826544850498351
0.9458786006179607,-26.82654485049835
0.9468753114721419,-23.82654485049835
0.9478720223263231,-15.826544850498351
0.9488687331805042,-13.826544850498351
0.9498654440346854,-4.826544850498351
0.9508621548888666,-13.826544850498351
0.9518588657430479,3.173455149501649
0.9528555765972291,12.173455149501649
0.9538522874514103,17.17345514950165
0.9548489983055914,20.17345514950165
0.9558457091597726,14.173455149501649
0.9568424200139538,12.173455149501649
0.9578391308681351,12.173455149501649
0.9588358417223163,9.173455149501649
0.9598325525764975,12.173455149501649
0.9608292634306786,8.173455149501649
0.9618259742848598,-1.826544850498351
0.9628226851390411,-7.826544850498351
0.9638193959932223,-16.82654485049835
0.9648161068474035,-14.826544850498351
0.9658128177015847,-9.826544850498351
0.9668095285557659,-10.826544850498351
0.967806239409947,-16.82654485049835
0.9688029502641283,-12.826544850498351
0.9697996611183095,-1.826544850498351
0.9707963719724907,-8.826544850498351
0.9717930828266719,-2.826544850498351
0.972789793680853,9.173455149501649
0.9737865045350343,9.173455149501649
0.9747832153892155,5.173455149501649
0.9757799262433967,14.173455149501649
0.9767766370975779,21.17345514950165
0.9777733479517591,20.17345514950165
0.9787700588059403,14.173455149501649
0.9797667696601216,4.173455149501649
0.9807634805143027,-1.826544850498351
0.9817601913684839,4.173455149501649
0.9827569022226651,2.173455149501649
0.9837536130768463,-2.826544850498351
0.9847503239310276,-4.826544850498351
0.9857470347852088,-6.826544850498351
0.9867437456393899,-9.826544850498351
0.9877404564935711,-17.82654485049835
0.9887371673477523,-26.82654485049835
0.9897338782019335,-21.82654485049835
0.9907305890561148,-8.826544850498351
0.991727299910296,-3.826544850498351
0.9927240107644771,-7.826544850498351
0.9937207216186583,-1.826544850498351
0.9947174324728395,11.173455149501649
0.9957141433270208,14.173455149501649
0.996710854181202,17.17345514950165
0.9977075650353832,17.17345514950165
0.9987042758895643,22.17345514950165
0.9997009867437455,19.17345514950165
1.0006976975979267,6.173455149501649
1.001694408452108,-3.826544850498351
1.002691119306289,-12.826544850498351
1.0036878301604704,-10.826544850498351
1.0046845410146517,-7.826544850498351
1.0056812518688327,-9.826544850498351
1.006677962723014,-4.826544850498351
1.007674673577195,-2.826544850498351
1.0086713844313764,-1.826544850498351
1.0096680952855577,-3.826544850498351
1.0106648061397387,-14.826544850498351
1.01166151699392,-14.826544850498351
1.0126582278481011,-8.826544850498351
1.0136549387022824,5.173455149501649
1.0146516495564635,12.173455149501649
1.0156483604106448,16.17345514950165
1.016645071264826,17.17345514950165
1.0176417821190071,12.173455149501649
1.0186384929731884,3.173455149501649
1.0196352038273695,9.173455149501649
1.0206319146815508,5.173455149501649
1.021628625535732,5.173455149501649
1.0226253363899132,-1.826544850498351
1.0236220472440944,-3.826544850498351
1.0246187580982755,-6.826544850498351
1.0256154689524568,-17.82654485049835
1.026612179806638,-13.826544850498351
1.0276088906608192,-6.826544850498351
1.0286056015150005,-6.826544850498351
1.0296023123691815,-3.826544850498351
1.0305990232233628,-8.826544850498351
1.031595734077544,0.17345514950164898
1.0325924449317252,0.17345514950164898
1.0335891557859065,-1.826544850498351
1.0345858666400876,-2.826544850498351
1.0355825774942689,12.173455149501649
1.03657928834845,17.17345514950165
1.0375759992026312,6.173455149501649
1.0385727100568125,4.173455149501649
1.0395694209109936,16.17345514950165
1.0405661317651749,4.173455149501649
1.041562842619356,2.173455149501649
1.0425595534735372,13.173455149501649
1.0435562643277185,16.17345514950165
1.0445529751818996,6.173455149501649
1.045549686036081,-7.826544850498351
1.046546396890262,-15.826544850498351
1.0475431077444433,-22.82654485049835
1.0485398185986246,-23.82654485049835
1.0495365294528056,-15.826544850498351
1.050533240306987,-6.826544850498351
1.051529951161168,-3.826544850498351
1.0525266620153493,-0.826544850498351
1.0535233728695304,2.173455149501649
1.0545200837237116,-4.826544850498351
1.055516794577893,-0.826544850498351
1.056513505432074,12.173455149501649
1.0575102162862553,24.17345514950165
1.0585069271404364,24.17345514950165
1.0595036379946177,22.17345514950165
1.060500348848799,22.17345514950165
1.06149705970298,19.17345514950165
1.0624937705571613,-3.826544850498351
1.0634904814113424,-11.826544850498351
1.0644871922655237,-18.82654485049835
1.065483903119705,-25.82654485049835
1.066480613973886,-16.82654485049835
1.0674773248280673,-20.82654485049835
1.0684740356822484,-19.82654485049835
1.0694707465364297,-15.826544850498351
1.0704674573906108,-10.826544850498351
1.071464168244792,-0.826544850498351
1.0724608790989734,6.173455149501649
1.0734575899531544,16.17345514950165
1.0744543008073357,15.173455149501649
1.0754510116615168,6.173455149501649
1.076447722515698,7.173455149501649
1.0774444333698794,11.173455149501649
1.0784411442240605,14.173455149501649
1.0794378550782417,28.17345514950165
1.0804345659324228,13.173455149501649
1.0814312767866041,4.173455149501649
1.0824279876407854,-10.826544850498351
1.0834246984949665,-17.82654485049835
1.0844214093491478,-16.82654485049835
1.0854181202033288,-10.826544850498351
1.0864148310575101,-1.826544850498351
1.0874115419116914,-6.826544850498351
1.0884082527658725,-13.826544850498351
1.0894049636200538,-11.826544850498351
1.0904016744742349,-8.826544850498351
1.0913983853284162,-6.826544850498351
1.0923950961825972,-4.826544850498351
1.0933918070367785,10.173455149501649
1.0943885178909598,16.17345514950165
1.0953852287451409,15.173455149501649
1.0963819395993222,8.173455149501649
1.0973786504535032,-1.826544850498351
1.0983753613076845,5.173455149501649
1.0993720721618658,20.17345514950165
1.100368783016047,16.17345514950165
1.1013654938702282,7.173455149501649
1.1023622047244093,1.173455149501649
1.1033589155785906,-2.826544850498351
1.1043556264327719,-2.826544850498351
1.105352337286953,-8.826544850498351
1.1063490481411342,-10.826544850498351
1.1073457589953153,-14.826544850498351
1.1083424698494966,-28.82654485049835
1.1093391807036777,-22.82654485049835
1.110335891557859,-11.826544850498351
1.1113326024120402,1.173455149501649
1.1123293132662213,7.173455149501649
1.1133260241204026,7.173455149501649
1.1143227349745837,-1.826544850498351
1.115319445828765,7.173455149501649
1.1163161566829463,10.173455149501649
1.1173128675371273,29.17345514950165
1.1183095783913086,41.17345514950165
1.1193062892454897,24.17345514950165
1.120303000099671,1.173455149501649
1.1212997109538523,0.17345514950164898
1.1222964218080334,-10.826544850498351
1.1232931326622146,-2.826544850498351
1.1242898435163957,4.173455149501649
1.125286554370577,-15.826544850498351
1.1262832652247583,-27.82654485049835
1.1272799760789394,-30.82654485049835
1.1282766869331207,-28.82654485049835
1.1292733977873017,-5.826544850498351
1.130270108641483,9.173455149501649
1.131266819495664,11.173455149501649
1.1322635303498454,3.173455149501649
1.1332602412040267,4.173455149501649
1.1342569520582078,-0.826544850498351
1.135253662912389,1.173455149501649
1.1362503737665701,5.173455149501649
1.1372470846207514,12.173455149501649
1.1382437954749327,28.17345514950165
1.1392405063291138,24.17345514950165
1.140237217183295,8.173455149501649
1.1412339280374761,0.17345514950164898
1.1422306388916574,-10.826544850498351
1.1432273497458387,1.173455149501649
1.1442240606000198,-5.826544850498351
1.145220771454201,-14.826544850498351
1.1462174823083822,-11.826544850498351
1.1472141931625635,-15.826544850498351
1.1482109040167447,-14.826544850498351
1.1492076148709258,-31.82654485049835
1.1502043257251071,-24.82654485049835
1.1512010365792882,4.173455149501649
1.1521977474334695,4.173455149501649
1.1531944582876505,18.17345514950165
1.1541911691418318,10.173455149501649
1.1551878799960131,10.173455149501649
1.1561845908501942,22.17345514950165
1.1571813017043755,21.17345514950165
1.1581780125585566,17.17345514950165
1.1591747234127379,0.17345514950164898
1.1601714342669192,4.173455149501649
1.1611681451211002,12.173455149501649
1.1621648559752815,-4.826544850498351
1.1631615668294626,-14.826544850498351
1.1641582776836439,-11.826544850498351
1.1651549885378252,-8.826544850498351
1.1661516993920062,-4.826544850498351
1.1671484102461875,-4.826544850498351
1.1681451211003686,-6.826544850498351
1.16914183195455,-9.826544850498351
1.170138542808731,-14.826544850498351
1.1711352536629123,-10.826544850498351
1.1721319645170936,-9.826544850498351
1.1731286753712746,2.173455149501649
1.174125386225456,11.173455149501649
1.175122097079637,17.17345514950165
1.1761188079338183,19.17345514950165
1.1771155187879996,17.17345514950165
1.1781122296421807,20.17345514950165
1.179108940496362,16.17345514950165
1.180105651350543,3.173455149501649
1.1811023622047243,-0.826544850498351
1.1820990730589056,0.17345514950164898
1.1830957839130867,-4.826544850498351
1.184092494767268,-14.826544850498351
1.185089205621449,-17.82654485049835
1.1860859164756303,-15.826544850498351
1.1870826273298116,-19.82654485049835
1.1880793381839927,-14.826544850498351
1.189076049038174,-9.826544850498351
1.190072759892355,-7.826544850498351
1.1910694707465364,-1.826544850498351
1.1920661816007174,-0.826544850498351
1.1930628924548987,0.17345514950164898
1.19405960330908,7.173455149501649
1.195056314163261,15.173455149501649
1.1960530250174424,17.17345514950165
1.1970497358716234,17.17345514950165
1.1980464467258047,20.17345514950165
1.199043157579986,12.173455149501649
1.200039868434167,8.173455149501649
1.2010365792883484,9.173455149501649
1.2020332901425295,3.173455149501649
1.2030300009967108,-5.826544850498351
1.204026711850892,-12.826544850498351
1.2050234227050731,-15.826544850498351
1.2060201335592544,-26.82654485049835
1.2070168444134355,-25.82654485049835
1.2080135552676168,-5.826544850498351
1.2090102661217978,3.173455149501649
1.2100069769759791,4.173455149501649
1.2110036878301604,1.173455149501649
1.2120003986843415,-5.826544850498351
1.2129971095385228,-9.826544850498351
1.2139938203927039,0.17345514950164898
1.2149905312468852,23.17345514950165
1.2159872421010665,23.17345514950165
1.2169839529552475,14.173455149501649
1.2179806638094288,13.173455149501649
1.21897737466361,21.17345514950165
1.2199740855177912,16.17345514950165
1.2209707963719725,-1.826544850498351
1.2219675072261535,-12.826544850498351
1.2229642180803348,-11.826544850498351
1.223960928934516,-6.826544850498351
1.2249576397886972,-5.826544850498351
1.2259543506428785,-18.82654485049835
1.2269510614970596,-24.82654485049835
1.2279477723512409,-13.826544850498351
1.228944483205422,-10.826544850498351
1.2299411940596032,-15.826544850498351
1.2309379049137843,-12.826544850498351
1.2319346157679656,-14.826544850498351
1.2329313266221469,-9.826544850498351
1.233928037476328,8.173455149501649
1.2349247483305092,28.17345514950165
1.2359214591846903,34.17345514950165
1.2369181700388716,25.17345514950165
1.237914880893053,14.173455149501649
1.238911591747234,21.17345514950165
1.2399083026014153,20.17345514950165
1.2409050134555963,4.173455149501649
1.2419017243097776,-2.826544850498351
1.242898435163959,0.17345514950164898
1.24389514601814,-9.826544850498351
1.2448918568723213,-20.82654485049835
1.2458885677265024,-17.82654485049835
1.2468852785806837,-17.82654485049835
1.2478819894348647,-17.82654485049835
1.248878700289046,-7.826544850498351
1.2498754111432273,-3.826544850498351
1.2508721219974084,-6.826544850498351
1.2518688328515897,-5.826544850498351
1.2528655437057707,-9.826544850498351
1.253862254559952,8.173455149501649
1.2548589654141333,12.173455149501649
1.2558556762683144,12.173455149501649
1.2568523871224957,15.173455149501649
1.2578490979766768,29.17345514950165
1.258845808830858,29.17345514950165
1.2598425196850394,17.17345514950165
1.2608392305392204,-1.826544850498351
1.2618359413934017,-10.826544850498351
1.2628326522475828,-16.82654485049835
1.263829363101764,-21.82654485049835
1.2648260739559454,-11.826544850498351
1.2658227848101264,-10.826544850498351
1.2668194956643077,-16.82654485049835
1.2678162065184888,-2.826544850498351
1.26881291737267,3.173455149501649
1.2698096282268512,8.173455149501649
1.2708063390810325,-2.826544850498351
1.2718030499352138,-8.826544850498351
1.2727997607893948,1.173455149501649
1.2737964716435761,9.173455149501649
1.2747931824977572,9.173455149501649
1.2757898933519385,8.173455149501649
1.2767866042061198,19.17345514950165
1.2777833150603009,16.17345514950165
1.2787800259144821,11.173455149501649
1.2797767367686632,4.173455149501649
1.2807734476228445,0.17345514950164898
1.2817701584770258,1.173455149501649
1.2827668693312069,-7.826544850498351
1.2837635801853882,-8.826544850498351
1.2847602910395692,-7.826544850498351
1.2857570018937505,-12.826544850498351
1.2867537127479316,-19.82654485049835
1.287750423602113,-19.82654485049835
1.2887471344562942,-19.82654485049835
1.2897438453104753,-13.826544850498351
1.2907405561646565,-4.826544850498351
1.2917372670188376,1.173455149501649
1.292733977873019,2.173455149501649
1.2937306887272002,9.173455149501649
1.2947273995813813,17.17345514950165
1.2957241104355626,17.17345514950165
1.2967208212897436,16.17345514950165
1.297717532143925,25.17345514950165
1.2987142429981062,24.17345514950165
1.2997109538522873,5.173455149501649
1.3007076647064686,-2.826544850498351
1.3017043755606497,-5.826544850498351
1.302701086414831,-6.826544850498351
1.3036977972690122,-15.826544850498351
1.3046945081231933,-40.82654485049835
1.3056912189773746,-20.82654485049835
1.3066879298315557,13.173455149501649
1.307684640685737,5.173455149501649
1.308681351539918,1.173455149501649
1.3096780623940993,0.17345514950164898
1.3106747732482806,-4.826544850498351
1.3116714841024617,-2.826544850498351
1.312668194956643,11.173455149501649
1.313664905810824,13.173455149501649
1.3146616166650054,4.173455149501649
1.3156583275191867,1.173455149501649
1.3166550383733677,10.173455149501649
1.317651749227549,11.173455149501649
1.31864846008173,9.173455149501649
1.3196451709359114,13.173455149501649
1.3206418817900927,13.173455149501649
1.3216385926442737,4.173455149501649
1.322635303498455,-3.826544850498351
1.323632014352636,0.17345514950164898
1.3246287252068174,-11.826544850498351
1.3256254360609985,-19.82654485049835
1.3266221469151798,-24.82654485049835
1.327618857769361,-23.82654485049835
1.3286155686235421,-23.82654485049835
1.3296122794777234,-16.82654485049835
1.3306089903319045,-2.826544850498351
1.3316057011860858,4.173455149501649
1.332602412040267,7.173455149501649
1.3335991228944482,3.173455149501649
1.3345958337486294,11.173455149501649
1.3355925446028105,3.173455149501649
1.3365892554569918,8.173455149501649
1.337585966311173,31.17345514950165
1.3385826771653542,31.17345514950165
1.3395793880195355,18.17345514950165
1.3405760988737165,16.17345514950165
1.3415728097278978,12.173455149501649
1.3425695205820791,-3.826544850498351
1.3435662314362602,-19.82654485049835
1.3445629422904415,-14.826544850498351
1.3455596531446226,-9.826544850498351
1.3465563639988039,-19.82654485049835
1.347553074852985,-28.82654485049835
1.3485497857071662,-21.82654485049835
1.3495464965613475,-7.826544850498351
1.3505432074155286,5.173455149501649
1.3515399182697099,2.173455149501649
1.352536629123891,-1.826544850498351
1.3535333399780722,12.173455149501649
1.3545300508322535,16.17345514950165
1.3555267616864346,12.173455149501649
1.356523472540616,16.17345514950165
1.357520183394797,24.17345514950165
1.3585168942489783,12.173455149501649
1.3595136051031596,-5.826544850498351
1.3605103159573406,-2.826544850498351
1.361507026811522,2.173455149501649
1.362503737665703,-3.826544850498351
1.3635004485198843,-11.826544850498351
1.3644971593740653,-19.82654485049835
1.3654938702282466,-11.826544850498351
1.366490581082428,-6.826544850498351
1.367487291936609,-15.826544850498351
1.3684840027907903,-15.826544850498351
1.3694807136449714,-7.826544850498351
1.3704774244991527,-9.826544850498351
1.371474135353334,-11.826544850498351
1.372470846207515,-2.826544850498351
1.3734675570616963,17.17345514950165
1.3744642679158774,20.17345514950165
1.3754609787700587,22.17345514950165
1.37645768962424,19.17345514950165
1.377454400478421,23.17345514950165
1.3784511113326023,29.17345514950165
1.3794478221867834,20.17345514950165
1.3804445330409647,1.173455149501649
1.381441243895146,-7.826544850498351
1.382437954749327,-15.826544850498351
1.3834346656035084,-18.82654485049835
1.3844313764576894,-19.82654485049835
1.3854280873118707,-6.826544850498351
1.3864247981660518,-8.826544850498351
1.387421509020233,-11.826544850498351
1.3884182198744144,-16.82654485049835
1.3894149307285955,-15.826544850498351
1.3904116415827767,-4.826544850498351
1.3914083524369578,-1.826544850498351
1.3924050632911391,1.173455149501649
1.3934017741453204,6.173455149501649
1.3943984849995015,5.173455149501649
1.3953951958536828,13.173455149501649
1.3963919067078638,14.173455149501649
1.3973886175620451,14.173455149501649
1.3983853284162264,9.173455149501649
1.3993820392704075,8.173455149501649
1.4003787501245888,9.173455149501649
1.4013754609787699,6.173455149501649
1.4023721718329512,5.173455149501649
1.4033688826871322,4.173455149501649
1.4043655935413135,3.173455149501649
1.4053623043954948,-3.826544850498351
1.4063590152496759,-23.82654485049835
1.4073557261038572,-22.82654485049835
1.4083524369580382,-19.82654485049835
1.4093491478122195,-24.82654485049835
1.4103458586664008,-12.826544850498351
1.411342569520582,-12.826544850498351
1.4123392803747632,-9.826544850498351
1.4133359912289443,5.173455149501649
1.4143327020831256,16.17345514950165
1.4153294129373069,27.17345514950165
1.416326123791488,29.17345514950165
1.4173228346456692,31.17345514950165
1.4183195454998503,29.17345514950165
1.4193162563540316,20.17345514950165
1.4203129672082129,6.173455149501649
1.421309678062394,-6.826544850498351
1.4223063889165752,-14.826544850498351
1.4233030997707563,-11.826544850498351
1.4242998106249376,-18.82654485049835
1.4252965214791187,-19.82654485049835
1.4262932323333,-22.82654485049835
1.4272899431874813,-20.82654485049835
1.4282866540416623,-15.826544850498351
1.4292833648958436,-15.826544850498351
1.4302800757500247,-5.826544850498351
1.431276786604206,9.173455149501649
1.4322734974583873,18.17345514950165
1.4332702083125684,17.17345514950165
1.4342669191667496,10.173455149501649
1.4352636300209307,-1.826544850498351
1.436260340875112,-2.826544850498351
1.4372570517292933,11.173455149501649
1.4382537625834744,27.17345514950165
1.4392504734376557,22.17345514950165
1.4402471842918367,0.17345514950164898
1.441243895146018,-9.826544850498351
1.4422406060001993,5.173455149501649
1.4432373168543804,5.173455149501649
1.4442340277085617,-5.826544850498351
1.4452307385627428,-4.826544850498351
1.446227449416924,-12.826544850498351
1.4472241602711051,-23.82654485049835
1.4482208711252864,-17.82654485049835
1.4492175819794677,-21.82654485049835
1.4502142928336488,-10.826544850498351
1.45121100368783,0.17345514950164898
1.4522077145420111,4.173455149501649
1.4532044253961924,5.173455149501649
1.4542011362503737,14.173455149501649
1.4551978471045548,17.17345514950165
1.456194557958736,10.173455149501649
1.4571912688129172,20.17345514950165
1.4581879796670985,24.17345514950165
1.4591846905212797,10.173455149501649
1.4601814013754608,1.173455149501649
1.4611781122296421,-7.826544850498351
1.4621748230838232,-20.82654485049835
1.4631715339380045,-11.826544850498351
1.4641682447921855,16.17345514950165
1.4651649556463668,8.173455149501649
1.4661616665005481,-13.826544850498351
1.4671583773547292,-22.82654485049835
1.4681550882089105,-19.82654485049835
1.4691517990630916,-15.826544850498351
1.4701485099172729,-10.826544850498351
1.4711452207714542,-2.826544850498351
1.4721419316256352,2.173455149501649
1.4731386424798165,10.173455149501649
1.4741353533339976,9.173455149501649
1.4751320641881789,17.17345514950165
1.4761287750423602,18.17345514950165
1.4771254858965412,17.17345514950165
1.4781221967507225,19.17345514950165
1.4791189076049036,6.173455149501649
1.480115618459085,1.173455149501649
1.4811123293132662,8.173455149501649
1.4821090401674473,7.173455149501649
1.4831057510216286,-8.826544850498351
1.4841024618758096,-19.82654485049835
1.485099172729991,-12.826544850498351
1.486095883584172,-10.826544850498351
1.4870925944383533,-14.826544850498351
1.4880893052925346,-12.826544850498351
1.4890860161467157,-11.826544850498351
1.490082727000897,-11.826544850498351
1.491079437855078,-6.826544850498351
1.4920761487092593,2.173455149501649
1.4930728595634406,-0.826544850498351
1.4940695704176217,6.173455149501649
1.495066281271803,21.17345514950165
1.496062992125984,17.17345514950165
1.4970597029801653,16.17345514950165
1.4980564138343466,13.173455149501649
1.4990531246885277,13.173455149501649
1.500049835542709,8.173455149501649
1.50104654639689,-2.826544850498351
1.5020432572510714,-8.826544850498351
1.5030399681052524,0.17345514950164898
1.5040366789594337,0.17345514950164898
1.505033389813615,-5.826544850498351
1.506030100667796,-14.826544850498351
1.5070268115219774,-13.826544850498351
1.5080235223761584,-23.82654485049835
1.5090202332303397,-27.82654485049835
1.510016944084521,-19.82654485049835
1.511013654938702,-3.826544850498351
1.5120103657928834,3.173455149501649
1.5130070766470645,14.173455149501649
1.5140037875012458,17.17345514950165
1.515000498355427,16.17345514950165
1.5159972092096081,17.17345514950165
1.5169939200637894,18.17345514950165
1.5179906309179705,20.17345514950165
1.5189873417721518,11.173455149501649
1.519984052626333,9.173455149501649
1.5209807634805141,4.173455149501649
1.5219774743346954,2.173455149501649
1.5229741851888765,-3.826544850498351
1.5239708960430578,-15.826544850498351
1.5249676068972389,-16.82654485049835
1.5259643177514202,-19.82654485049835
1.5269610286056015,-23.82654485049835
1.5279577394597825,-15.826544850498351
1.5289544503139638,-6.826544850498351
1.529951161168145,-10.826544850498351
1.5309478720223262,-3.826544850498351
1.5319445828765075,2.173455149501649
1.5329412937306885,6.173455149501649
1.5339380045848698,5.173455149501649
1.534934715439051,20.17345514950165
1.5359314262932322,31.17345514950165
1.5369281371474135,29.17345514950165
1.5379248480015946,17.17345514950165
1.5389215588557759,11.173455149501649
1.539918269709957,1.173455149501649
1.5409149805641382,-4.826544850498351
1.5419116914183193,-14.826544850498351
1.5429084022725006,-15.826544850498351
1.5439051131266819,-6.826544850498351
1.544901823980863,-6.826544850498351
1.5458985348350442,-14.826544850498351
1.5468952456892253,-14.826544850498351
1.5478919565434066,-16.82654485049835
1.548888667397588,-19.82654485049835
1.549885378251769,-14.826544850498351
1.5508820891059503,-6.826544850498351
1.5518787999601313,4.173455149501649
1.5528755108143126,10.173455149501649
1.553872221668494,15.173455149501649
1.554868932522675,14.173455149501649
1.5558656433768563,15.173455149501649
1.5568623542310374,17.17345514950165
1.5578590650852187,24.17345514950165
1.5588557759394,26.17345514950165
1.559852486793581,11.173455149501649
1.5608491976477623,-1.826544850498351
1.5618459085019434,-4.826544850498351
1.5628426193561247,-10.826544850498351
1.5638393302103057,1.173455149501649
1.564836041064487,0.17345514950164898
1.5658327519186683,-17.82654485049835
1.5668294627728494,-26.82654485049835
1.5678261736270307,-18.82654485049835
1.5688228844812118,-23.82654485049835
1.569819595335393,-15.826544850498351
1.5708163061895744,-7.826544850498351
1.5718130170437554,0.17345514950164898
1.5728097278979367,17.17345514950165
1.5738064387521178,27.17345514950165
1.574803149606299,28.17345514950165
1.5757998604604804,17.17345514950165
1.5767965713146614,14.173455149501649
1.5777932821688427,7.173455149501649
1.5787899930230238,12.173455149501649
1.579786703877205,5.173455149501649
1.5807834147313862,-11.826544850498351
1.5817801255855675,-8.826544850498351
1.5827768364397488,-7.826544850498351
1.5837735472939298,-11.826544850498351
1.5847702581481111,-21.82654485049835
1.5857669690022922,-26.82654485049835
1.5867636798564735,-17.82654485049835
1.5877603907106548,-2.826544850498351
1.5887571015648358,-3.826544850498351
1.5897538124190171,-6.826544850498351
1.5907505232731982,-4.826544850498351
1.5917472341273795,3.173455149501649
1.5927439449815608,9.173455149501649
1.5937406558357419,21.17345514950165
1.5947373666899232,35.17345514950165
1.5957340775441042,29.17345514950165
1.5967307883982855,8.173455149501649
1.5977274992524668,2.173455149501649
1.598724210106648,0.17345514950164898
1.5997209209608292,-1.826544850498351
1.6007176318150103,0.17345514950164898
1.6017143426691915,-4.826544850498351
1.6027110535233726,-6.826544850498351
1.603707764377554,-9.826544850498351
1.6047044752317352,-10.826544850498351
1.6057011860859163,-16.82654485049835
1.6066978969400976,-22.82654485049835
1.6076946077942786,-19.82654485049835
1.60869131864846,-15.826544850498351
1.6096880295026412,-7.826544850498351
1.6106847403568223,-0.826544850498351
1.6116814512110036,10.173455149501649
1.6126781620651847,16.17345514950165
1.613674872919366,11.173455149501649
1.6146715837735472,11.173455149501649
1.6156682946277283,10.173455149501649
1.6166650054819096,14.173455149501649
1.6176617163360907,12.173455149501649
1.618658427190272,9.173455149501649
1.619655138044453,7.173455149501649
1.6206518488986343,11.173455149501649
1.6216485597528156,-1.826544850498351
1.6226452706069967,-13.826544850498351
1.623641981461178,-6.826544850498351
1.624638692315359,-3.826544850498351
1.6256354031695404,-4.826544850498351
1.6266321140237217,-8.826544850498351
1.6276288248779027,-15.826544850498351
1.628625535732084,-25.82654485049835
1.629622246586265,-15.826544850498351
1.6306189574404464,-4.826544850498351
1.6316156682946277,12.173455149501649
1.6326123791488087,13.173455149501649
1.63360909000299,14.173455149501649
1.634605800857171,23.17345514950165
1.6356025117113524,26.17345514950165
1.6365992225655337,14.173455149501649
1.6375959334197148,10.173455149501649
1.638592644273896,5.173455149501649
1.6395893551280771,-7.826544850498351
1.6405860659822584,-7.826544850498351
1.6415827768364395,-2.826544850498351
1.6425794876906208,1.173455149501649
1.643576198544802,-3.826544850498351
1.6445729093989832,-8.826544850498351
1.6455696202531644,-11.826544850498351
1.6465663311073455,-23.82654485049835
1.6475630419615268,-25.82654485049835
1.648559752815708,-30.82654485049835
1.6495564636698892,-14.826544850498351
1.6505531745240705,12.173455149501649
1.6515498853782515,13.173455149501649
1.6525465962324328,9.173455149501649
1.6535433070866141,8.173455149501649
1.6545400179407952,14.173455149501649
1.6555367287949765,16.17345514950165
1.6565334396491576,19.17345514950165
1.6575301505033389,14.173455149501649
1.6585268613575201,19.17345514950165
1.6595235722117012,14.173455149501649
1.6605202830658825,-12.826544850498351
1.6615169939200636,8.173455149501649
1.6625137047742449,2.173455149501649
1.663510415628426,-28.82654485049835
1.6645071264826072,-8.826544850498351
1.6655038373367885,2.173455149501649
1.6665005481909696,-12.826544850498351
1.667497259045151,-27.82654485049835
1.668493969899332,-25.82654485049835
1.6694906807535133,-21.82654485049835
1.6704873916076945,-12.826544850498351
1.6714841024618756,8.173455149501649
1.672480813316057,12.173455149501649
1.673477524170238,18.17345514950165
1.6744742350244193,25.17345514950165
1.6754709458786006,19.17345514950165
1.6764676567327816,30.17345514950165
1.677464367586963,29.17345514950165
1.678461078441144,14.173455149501649
1.6794577892953253,11.173455149501649
1.6804545001495064,1.173455149501649
1.6814512110036877,-14.826544850498351
1.682447921857869,-21.82654485049835
1.68344463271205,-26.82654485049835
1.6844413435662313,-26.82654485049835
1.6854380544204124,-20.82654485049835
1.6864347652745937,-15.826544850498351
1.687431476128775,-4.826544850498351
1.688428186982956,-4.826544850498351
1.6894248978371373,-7.826544850498351
1.6904216086913184,-11.826544850498351
1.6914183195454997,-1.826544850498351
1.692415030399681,7.173455149501649
1.693411741253862,12.173455149501649
1.6944084521080434,23.17345514950165
1.6954051629622244,26.17345514950165
1.6964018738164057,15.173455149501649
1.697398584670587,15.173455149501649
1.698395295524768,14.173455149501649
1.6993920063789494,12.173455149501649
1.7003887172331305,-4.826544850498351
1.7013854280873117,-11.826544850498351
1.7023821389414928,-10.826544850498351
1.703378849795674,-10.826544850498351
1.7043755606498554,-13.826544850498351
1.7053722715040365,-19.82654485049835
1.7063689823582178,-17.82654485049835
1.7073656932123988,-12.826544850498351
1.7083624040665801,-16.82654485049835
1.7093591149207614,-9.826544850498351
1.7103558257749425,-2.826544850498351
1.7113525366291238,4.173455149501649
1.7123492474833049,17.17345514950165
1.7133459583374862,20.17345514950165
1.7143426691916674,13.173455149501649
1.7153393800458485,9.173455149501649
1.7163360909000298,15.173455149501649
1.7173328017542109,16.17345514950165
1.7183295126083922,1.173455149501649
1.7193262234625732,6.173455149501649
1.7203229343167545,20.17345514950165
1.7213196451709358,13.173455149501649
1.722316356025117,-6.826544850498351
1.7233130668792982,-23.82654485049835
1.7243097777334793,-8.826544850498351
1.7253064885876606,-5.826544850498351
1.7263031994418419,-16.82654485049835
1.727299910296023,-15.826544850498351
1.7282966211502042,-20.82654485049835
1.7292933320043853,-9.826544850498351
1.7302900428585666,0.17345514950164898
1.7312867537127479,8.173455149501649
1.732283464566929,9.173455149501649
1.7332801754211102,4.173455149501649
1.7342768862752913,8.173455149501649
1.7352735971294726,17.17345514950165
1.736270307983654,25.17345514950165
1.737267018837835,28.17345514950165
1.7382637296920163,13.173455149501649
1.7392604405461973,4.173455149501649
1.7402571514003786,-3.826544850498351
1.7412538622545597,-13.826544850498351
1.742250573108741,-16.82654485049835
1.7432472839629223,-25.82654485049835
1.7442439948171033,-25.82654485049835
1.7452407056712846,-18.82654485049835
1.7462374165254657,-17.82654485049835
1.747234127379647,-12.826544850498351
1.7482308382338283,-6.826544850498351
1.7492275490880094,-9.826544850498351
1.7502242599421907,-5.826544850498351
1.7512209707963717,6.173455149501649
1.752217681650553,21.17345514950165
1.7532143925047343,24.17345514950165
1.7542111033589154,28.17345514950165
1.7552078142130967,30.17345514950165
1.7562045250672778,19.17345514950165
1.757201235921459,9.173455149501649
1.7581979467756401,4.173455149501649
1.7591946576298214,1.173455149501649
1.7601913684840027,8.173455149501649
1.7611880793381838,5.173455149501649
1.762184790192365,-4.826544850498351
1.7631815010465461,-16.82654485049835
1.7641782119007274,-28.82654485049835
1.7651749227549087,-29.82654485049835
1.7661716336090898,-36.82654485049835
1.767168344463271,-18.82654485049835
1.7681650553174522,-10.826544850498351
1.7691617661716335,1.173455149501649
1.7701584770258147,10.173455149501649
1.7711551878799958,12.173455149501649
1.7721518987341771,13.173455149501649
1.7731486095883582,6.173455149501649
1.7741453204425395,11.173455149501649
1.7751420312967208,11.173455149501649
1.7761387421509018,21.17345514950165
1.7771354530050831,28.17345514950165
1.7781321638592642,29.17345514950165
1.7791288747134455,19.17345514950165
1.7801255855676266,9.173455149501649
1.7811222964218079,-5.826544850498351
1.7821190072759892,-16.82654485049835
1.7831157181301702,-22.82654485049835
1.7841124289843515,-26.82654485049835
1.7851091398385326,-19.82654485049835
1.7861058506927139,-12.826544850498351
1.7871025615468952,-17.82654485049835
1.7880992724010762,-14.826544850498351
1.7890959832552575,-8.826544850498351
1.7900926941094386,-3.826544850498351
1.79108940496362,5.173455149501649
1.7920861158178012,7.173455149501649
1.7930828266719823,8.173455149501649
1.7940795375261636,20.17345514950165
1.7950762483803446,13.173455149501649
1.796072959234526,19.17345514950165
1.797069670088707,40.17345514950165
1.7980663809428883,27.17345514950165
1.7990630917970696,11.173455149501649
1.8000598026512507,-9.826544850498351
1.801056513505432,-19.82654485049835
1.802053224359613,-22.82654485049835
1.8030499352137943,-17.82654485049835
1.8040466460679756,-14.826544850498351
1.8050433569221567,-18.82654485049835
1.806040067776338,-22.82654485049835
1.807036778630519,-24.82654485049835
1.8080334894847003,-10.826544850498351
1.8090302003388816,-4.826544850498351
1.8100269111930627,1.173455149501649
1.811023622047244,14.173455149501649
1.812020332901425,20.17345514950165
1.8130170437556064,24.17345514950165
1.8140137546097876,21.17345514950165
1.8150104654639687,18.17345514950165
1.81600717631815,5.173455149501649
1.817003887172331,6.173455149501649
1.8180005980265124,11.173455149501649
1.8189973088806934,9.173455149501649
1.8199940197348747,1.173455149501649
1.820990730589056,-4.826544850498351
1.821987441443237,-13.826544850498351
1.8229841522974184,-19.82654485049835
1.8239808631515995,-14.826544850498351
1.8249775740057808,-14.826544850498351
1.825974284859962,-14.826544850498351
1.8269709957141431,-19.82654485049835
1.8279677065683244,-24.82654485049835
1.8289644174225055,-2.826544850498351
1.8299611282766868,16.17345514950165
1.830957839130868,18.17345514950165
1.8319545499850491,3.173455149501649
1.8329512608392304,-3.826544850498351
1.8339479716934115,7.173455149501649
1.8349446825475928,16.17345514950165
1.8359413934017739,15.173455149501649
1.8369381042559552,22.17345514950165
1.8379348151101365,14.173455149501649
1.8389315259643175,6.173455149501649
1.8399282368184988,2.173455149501649
1.84092494767268,-15.826544850498351
1.8419216585268612,-9.826544850498351
1.8429183693810425,0.17345514950164898
1.8439150802352235,-7.826544850498351
1.8449117910894048,-14.826544850498351
1.845908501943586,-14.826544850498351
1.8469052127977672,-13.826544850498351
1.8479019236519485,-15.826544850498351
1.8488986345061296,-8.826544850498351
1.8498953453603109,-7.826544850498351
1.850892056214492,-5.826544850498351
1.8518887670686732,3.173455149501649
1.8528854779228545,20.17345514950165
1.8538821887770356,28.17345514950165
1.8548788996312169,28.17345514950165
1.855875610485398,31.17345514950165
1.8568723213395792,25.17345514950165
1.8578690321937603,19.17345514950165
1.8588657430479416,5.173455149501649
1.859862453902123,-4.826544850498351
1.860859164756304,-7.826544850498351
1.8618558756104853,-10.826544850498351
1.8628525864646663,-18.82654485049835
1.8638492973188476,-34.82654485049835
1.864846008173029,-27.82654485049835
1.86584271902721,-20.82654485049835
1.8668394298813913,-7.826544850498351
1.8678361407355724,-7.826544850498351
1.8688328515897537,-6.826544850498351
1.869829562443935,-8.826544850498351
1.870826273298116,-5.826544850498351
1.8718229841522973,1.173455149501649
1.8728196950064784,7.173455149501649
1.8738164058606597,19.17345514950165
1.8748131167148407,26.17345514950165
1.875809827569022,25.17345514950165
1.8768065384232033,22.17345514950165
1.8778032492773844,16.17345514950165
1.8787999601315657,10.173455149501649
1.8797966709857468,0.17345514950164898
1.880793381839928,-12.826544850498351
1.8817900926941094,-12.826544850498351
1.8827868035482904,-13.826544850498351
1.8837835144024717,-9.826544850498351
1.8847802252566528,-7.826544850498351
1.885776936110834,-18.82654485049835
1.8867736469650154,-8.826544850498351
1.8877703578191964,0.17345514950164898
1.8887670686733777,-3.826544850498351
1.8897637795275588,-6.826544850498351
1.89076049038174,-1.826544850498351
1.8917572012359214,14.173455149501649
1.8927539120901025,12.173455149501649
1.8937506229442838,18.17345514950165
1.8947473337984648,26.17345514950165
1.8957440446526461,18.17345514950165
1.8967407555068272,14.173455149501649
1.8977374663610085,-2.826544850498351
1.8987341772151898,-5.826544850498351
1.8997308880693708,1.173455149501649
1.9007275989235521,0.17345514950164898
1.9017243097777332,-16.82654485049835
1.9027210206319145,-15.826544850498351
1.9037177314860958,-14.826544850498351
1.9047144423402769,-19.82654485049835
1.9057111531944582,-14.826544850498351
1.9067078640486392,-10.826544850498351
1.9077045749028205,-10.826544850498351
1.9087012857570018,-6.826544850498351
1.909697996611183,0.17345514950164898
1.9106947074653642,4.173455149501649
1.9116914183195453,6.173455149501649
1.9126881291737265,16.17345514950165
1.9136848400279076,14.173455149501649
1.914681550882089,20.17345514950165
1.9156782617362702,24.17345514950165
1.9166749725904513,11.173455149501649
1.9176716834446326,7.173455149501649
1.9186683942988136,6.173455149501649
1.919665105152995,2.173455149501649
1.9206618160071762,-0.826544850498351
1.9216585268613573,-7.826544850498351
1.9226552377155386,-10.826544850498351
1.9236519485697197,-21.82654485049835
1.924648659423901,-22.82654485049835
1.9256453702780822,-20.82654485049835
1.9266420811322633,-13.826544850498351
1.9276387919864446,-7.826544850498351
1.9286355028406257,-4.826544850498351
1.929632213694807,-3.826544850498351
1.9306289245489883,-4.826544850498351
1.9316256354031693,3.173455149501649
1.9326223462573506,12.173455149501649
1.9336190571115317,17.17345514950165
1.934615767965713,25.17345514950165
1.935612478819894,33.17345514950165
1.9366091896740754,32.17345514950165
1.9376059005282567,14.173455149501649
1.9386026113824377,5.173455149501649
1.939599322236619,-7.826544850498351
1.9405960330908,-14.826544850498351
1.9415927439449814,-17.82654485049835
1.9425894547991627,-9.826544850498351
1.9435861656533437,-15.826544850498351
1.944582876507525,-3.826544850498351
1.945579587361706,-7.826544850498351
1.9465762982158874,-17.82654485049835
1.9475730090700687,-19.82654485049835
1.9485697199242498,-9.826544850498351
1.949566430778431,-1.826544850498351
1.9505631416326121,4.173455149501649
1.9515598524867934,6.173455149501649
1.9525565633409747,10.173455149501649
1.9535532741951558,14.173455149501649
1.954549985049337,18.17345514950165
1.9555466959035182,21.17345514950165
1.9565434067576994,22.17345514950165
1.9575401176118805,19.17345514950165
1.9585368284660618,7.173455149501649
1.959533539320243,3.173455149501649
1.9605302501744242,1.173455149501649
1.9615269610286055,-12.826544850498351
1.9625236718827865,-26.82654485049835
1.9635203827369678,-20.82654485049835
1.9645170935911491,-18.82654485049835
1.9655138044453302,-16.82654485049835
1.9665105152995115,-18.82654485049835
1.9675072261536926,-10.826544850498351
1.9685039370078738,0.17345514950164898
1.9695006478620551,0.17345514950164898
1.9704973587162362,0.17345514950164898
1.9714940695704175,6.173455149501649
1.9724907804245986,12.173455149501649
1.9734874912787799,17.17345514950165
1.974484202132961,18.17345514950165
1.9754809129871422,28.17345514950165
1.9764776238413235,15.173455149501649
1.9774743346955046,5.173455149501649
1.978471045549686,13.173455149501649
1.979467756403867,1.173455149501649
1.9804644672580483,-7.826544850498351
1.9814611781122295,-9.826544850498351
1.9824578889664106,-12.826544850498351
1.983454599820592,-23.82654485049835
1.984451310674773,-16.82654485049835
1.9854480215289543,-9.826544850498351
1.9864447323831356,-12.826544850498351
1.9874414432373166,-24.82654485049835
1.988438154091498,-7.826544850498351
1.989434864945679,0.17345514950164898
1.9904315757998603,5.173455149501649
1.9914282866540416,16.17345514950165
1.9924249975082227,13.173455149501649
1.993421708362404,21.17345514950165
1.994418419216585,16.17345514950165
1.9954151300707663,12.173455149501649
1.9964118409249474,12.173455149501649
1.9974085517791287,21.17345514950165
1.99840526263331,8.173455149501649
1.999401973487491,-9.826544850498351
2.0003986843416723,-10.826544850498351
2.0013953951958534,-5.826544850498351
2.0023921060500345,-11.826544850498351
2.003388816904216,-8.826544850498351
2.004385527758397,-7.826544850498351
2.005382238612578,-7.826544850498351
2.0063789494667597,-11.826544850498351
2.0073756603209407,-12.826544850498351
2.008372371175122,-11.826544850498351
2.0093690820293033,-9.826544850498351
2.0103657928834844,-4.826544850498351
2.0113625037376655,6.173455149501649
2.0123592145918465,8.173455149501649
2.013355925446028,13.173455149501649
2.014352636300209,11.173455149501649
2.01534934715439,20.17345514950165
2.0163460580085717,25.17345514950165
2.0173427688627528,25.17345514950165
2.018339479716934,19.17345514950165
2.0193361905711154,6.173455149501649
2.0203329014252964,-7.826544850498351
2.0213296122794775,-15.826544850498351
2.0223263231336586,-19.82654485049835
2.02332303398784,-17.82654485049835
2.024319744842021,-12.826544850498351
2.0253164556962022,-11.826544850498351
2.0263131665503837,-9.826544850498351
2.027309877404565,-16.82654485049835
2.028306588258746,-21.82654485049835
2.029303299112927,-12.826544850498351
2.0303000099671085,-0.826544850498351
2.0312967208212895,13.173455149501649
2.0322934316754706,11.173455149501649
2.033290142529652,20.17345514950165
2.034286853383833,21.17345514950165
2.0352835642380143,22.17345514950165
2.036280275092196,24.17345514950165
2.037276985946377,9.173455149501649
2.038273696800558,-6.826544850498351
2.039270407654739,-7.826544850498351
2.0402671185089205,-6.826544850498351
2.0412638293631016,-8.826544850498351
2.0422605402172826,-7.826544850498351
2.043257251071464,-14.826544850498351
2.0442539619256452,-12.826544850498351
2.0452506727798263,-10.826544850498351
2.0462473836340074,-9.826544850498351
2.047244094488189,-13.826544850498351
2.04824080534237,-1.826544850498351
2.049237516196551,5.173455149501649
2.0502342270507325,4.173455149501649
2.0512309379049136,2.173455149501649
2.0522276487590947,0.17345514950164898
2.053224359613276,12.173455149501649
2.0542210704674573,17.17345514950165
2.0552177813216383,21.17345514950165
2.0562144921758194,16.17345514950165
2.057211203030001,6.173455149501649
2.058207913884182,6.173455149501649
2.059204624738363,9.173455149501649
2.0602013355925446,-8.826544850498351
2.0611980464467257,-0.826544850498351
2.0621947573009067,-10.826544850498351
2.063191468155088,-19.82654485049835
2.0641881790092693,-23.82654485049835
2.0651848898634504,-13.826544850498351
2.0661816007176315,-17.82654485049835
2.067178311571813,-9.826544850498351
2.068175022425994,5.173455149501649
2.069171733280175,4.173455149501649
2.0701684441343566,-3.826544850498351
2.0711651549885377,-0.826544850498351
2.0721618658427188,12.173455149501649
2.0731585766969,21.17345514950165
2.0741552875510814,18.17345514950165
2.0751519984052624,10.173455149501649
2.0761487092594435,23.17345514950165
2.077145420113625,34.17345514950165
2.078142130967806,24.17345514950165
2.079138841821987,-12.826544850498351
2.0801355526761687,-25.82654485049835
2.0811322635303497,-6.826544850498351
2.082128974384531,-7.826544850498351
2.083125685238712,-20.82654485049835
2.0841223960928934,-26.82654485049835
2.0851191069470745,-19.82654485049835
2.0861158178012555,-8.826544850498351
2.087112528655437,-6.826544850498351
2.088109239509618,-7.826544850498351
2.089105950363799,-10.826544850498351
2.0901026612179803,-0.826544850498351
2.091099372072162,10.173455149501649
2.092096082926343,13.173455149501649
2.093092793780524,19.17345514950165
2.0940895046347054,19.17345514950165
2.0950862154888865,8.173455149501649
2.0960829263430676,21.17345514950165
2.097079637197249,14.173455149501649
2.09807634805143,12.173455149501649
2.0990730589056112,10.173455149501649
2.1000697697597923,-3.826544850498351
2.101066480613974,-16.82654485049835
2.102063191468155,-26.82654485049835
2.103059902322336,-22.82654485049835
2.1040566131765175,-24.82654485049835
2.1050533240306986,-21.82654485049835
2.1060500348848796,-15.826544850498351
2.1070467457390607,-12.826544850498351
2.108043456593242,-9.826544850498351
2.1090401674474233,2.173455149501649
2.1100368783016044,13.173455149501649
2.111033589155786,17.17345514950165
2.112030300009967,19.17345514950165
2.113027010864148,23.17345514950165
2.1140237217183295,19.17345514950165
2.1150204325725106,22.17345514950165
2.1160171434266917,14.173455149501649
2.1170138542808727,17.17345514950165
2.1180105651350543,18.17345514950165
2.1190072759892353,-4.826544850498351
2.1200039868434164,-13.826544850498351
2.121000697697598,-13.826544850498351
2.121997408551779,-7.826544850498351
2.12299411940596,-6.826544850498351
2.123990830260141,-19.82654485049835
2.1249875411143226,-22.82654485049835
2.1259842519685037,-16.82654485049835
2.126980962822685,-19.82654485049835
2.1279776736768663,-17.82654485049835
2.1289743845310474,-11.826544850498351
2.1299710953852284,-4.826544850498351
2.13096780623941,3.173455149501649
2.131964517093591,21.17345514950165
2.132961227947772,36.17345514950165
2.133957938801953,38.17345514950165
2.1349546496561347,15.173455149501649
2.1359513605103158,-1.826544850498351
2.136948071364497,-2.826544850498351
2.1379447822186783,8.173455149501649
2.1389414930728594,25.17345514950165
2.1399382039270405,17.17345514950165
2.1409349147812216,-4.826544850498351
2.141931625635403,-16.82654485049835
2.142928336489584,-24.82654485049835
2.143925047343765,-22.82654485049835
2.1449217581979467,-16.82654485049835
2.145918469052128,-19.82654485049835
2.146915179906309,-23.82654485049835
2.1479118907604904,-16.82654485049835
2.1489086016146715,-10.826544850498351
2.1499053124688525,-4.826544850498351
2.1509020233230336,2.173455149501649
2.151898734177215,11.173455149501649
2.152895445031396,11.173455149501649
2.1538921558855773,10.173455149501649
2.1548888667397588,31.17345514950165
2.15588557759394,40.17345514950165
2.156882288448121,30.17345514950165
2.1578789993023024,29.17345514950165
2.1588757101564835,15.173455149501649
2.1598724210106646,-3.826544850498351
2.1608691318648456,-17.82654485049835
2.161865842719027,-30.82654485049835
2.1628625535732082,-34.82654485049835
2.1638592644273893,-25.82654485049835
2.164855975281571,-20.82654485049835
2.165852686135752,-12.826544850498351
2.166849396989933,-4.826544850498351
2.167846107844114,-6.826544850498351
2.1688428186982955,-7.826544850498351
2.1698395295524766,-4.826544850498351
2.1708362404066577,1.173455149501649
2.171832951260839,8.173455149501649
2.1728296621150203,31.17345514950165
2.1738263729692013,36.17345514950165
2.174823083823383,11.173455149501649
2.175819794677564,22.17345514950165
2.176816505531745,26.17345514950165
2.177813216385926,11.173455149501649
2.1788099272401076,-2.826544850498351
2.1798066380942887,-3.826544850498351
2.1808033489484697,3.173455149501649
2.1818000598026512,-10.826544850498351
2.1827967706568323,-15.826544850498351
2.1837934815110134,-20.82654485049835
2.1847901923651945,-31.82654485049835
2.185786903219376,-22.82654485049835
2.186783614073557,-14.826544850498351
2.187780324927738,-23.82654485049835
2.1887770357819196,-1.826544850498351
2.1897737466361007,11.173455149501649
2.1907704574902818,8.173455149501649
2.1917671683444633,5.173455149501649
2.1927638791986444,17.17345514950165
2.1937605900528254,24.17345514950165
2.1947573009070065,25.17345514950165
2.195754011761188,32.17345514950165
2.196750722615369,19.17345514950165
2.19774743346955,1.173455149501649
2.1987441443237317,-14.826544850498351
2.1997408551779127,-15.826544850498351
2.200737566032094,-23.82654485049835
2.201734276886275,-28.82654485049835
2.2027309877404564,-18.82654485049835
2.2037276985946375,-7.826544850498351
2.2047244094488185,-3.826544850498351
2.205721120303,3.173455149501649
2.206717831157181,-4.826544850498351
2.207714542011362,6.173455149501649
2.2087112528655437,8.173455149501649
2.2097079637197248,-1.826544850498351
2.210704674573906,8.173455149501649
2.211701385428087,6.173455149501649
2.2126980962822684,10.173455149501649
2.2136948071364495,22.17345514950165
2.2146915179906306,17.17345514950165
2.215688228844812,5.173455149501649
2.216684939698993,-7.826544850498351
2.2176816505531742,0.17345514950164898
2.2186783614073553,6.173455149501649
2.219675072261537,6.173455149501649
2.220671783115718,-0.826544850498351
2.221668493969899,-6.826544850498351
2.2226652048240805,-4.826544850498351
2.2236619156782615,-12.826544850498351
2.2246586265324426,-23.82654485049835
2.225655337386624,-20.82654485049835
2.226652048240805,-20.82654485049835
2.2276487590949863,-14.826544850498351
2.2286454699491673,-6.826544850498351
2.229642180803349,-3.826544850498351
2.23063889165753,-2.826544850498351
2.231635602511711,12.173455149501649
2.2326323133658925,18.17345514950165
2.2336290242200736,17.17345514950165
2.2346257350742547,8.173455149501649
2.235622445928436,19.17345514950165
2.2366191567826172,27.17345514950165
2.2376158676367983,27.17345514950165
2.2386125784909794,1.173455149501649
2.239609289345161,-3.826544850498351
2.240606000199342,-23.82654485049835
2.241602711053523,-26.82654485049835
2.2425994219077046,-19.82654485049835
2.2435961327618856,-31.82654485049835
2.2445928436160667,-19.82654485049835
2.2455895544702478,-0.826544850498351
2.2465862653244293,2.173455149501649
2.2475829761786104,8.173455149501649
2.2485796870327914,28.17345514950165
2.249576397886973,14.173455149501649
2.250573108741154,6.173455149501649
2.251569819595335,11.173455149501649
2.2525665304495166,19.17345514950165
2.2535632413036977,11.173455149501649
2.2545599521578787,1.173455149501649
2.25555666301206,-14.826544850498351
2.2565533738662413,-2.826544850498351
2.2575500847204224,-0.826544850498351
2.2585467955746035,-11.826544850498351
2.259543506428785,-6.826544850498351
2.260540217282966,8.173455149501649
2.261536928137147,13.173455149501649
2.262533638991328,-0.826544850498351
2.2635303498455097,-16.82654485049835
2.264527060699691,-34.82654485049835
2.265523771553872,-25.82654485049835
2.2665204824080534,-7.826544850498351
2.2675171932622344,1.173455149501649
2.2685139041164155,6.173455149501649
2.269510614970597,6.173455149501649
2.270507325824778,8.173455149501649
2.271504036678959,19.17345514950165
2.2725007475331402,11.173455149501649
2.2734974583873218,5.173455149501649
2.274494169241503,-7.826544850498351
2.275490880095684,9.173455149501649
2.2764875909498654,17.17345514950165
2.2774843018040465,12.173455149501649
2.2784810126582276,0.17345514950164898
2.2794777235124086,21.17345514950165
2.28047443436659,6.173455149501649
2.281471145220771,-21.82654485049835
2.2824678560749523,-30.82654485049835
2.283464566929134,-17.82654485049835
2.284461277783315,-14.826544850498351
2.285457988637496,-19.82654485049835
2.2864546994916775,-4.826544850498351
2.2874514103458585,11.173455149501649
2.2884481212000396,-7.826544850498351
2.2894448320542207,-0.826544850498351
2.290441542908402,-1.826544850498351
2.2914382537625833,8.173455149501649
2.2924349646167643,27.17345514950165
2.293431675470946,24.17345514950165
2.294428386325127,13.173455149501649
2.295425097179308,3.173455149501649
2.2964218080334895,4.173455149501649
2.2974185188876706,5.173455149501649
2.2984152297418516,0.17345514950164898
2.2994119405960327,8.173455149501649
2.3004086514502142,7.173455149501649
2.3014053623043953,-1.826544850498351
2.3024020731585764,-7.826544850498351
2.303398784012758,-26.82654485049835
2.304395494866939,-14.826544850498351
2.30539220572112,-5.826544850498351
2.306388916575301,-7.826544850498351
2.3073856274294826,-1.826544850498351
2.3083823382836637,-15.826544850498351
2.3093790491378448,-22.82654485049835
2.3103757599920263,7.173455149501649
2.3113724708462073,14.173455149501649
2.3123691817003884,16.17345514950165
2.31336589255457,20.17345514950165
2.314362603408751,1.173455149501649
2.315359314262932,0.17345514950164898
2.316356025117113,1.173455149501649
2.3173527359712947,3.173455149501649
2.3183494468254757,-3.826544850498351
2.319346157679657,20.17345514950165
2.3203428685338383,22.17345514950165
2.3213395793880194,-14.826544850498351
2.3223362902422005,-22.82654485049835
2.3233330010963815,-2.826544850498351
2.324329711950563,3.173455149501649
2.325326422804744,-9.826544850498351
2.326323133658925,-22.82654485049835
2.3273198445131067,-9.826544850498351
2.3283165553672878,6.173455149501649
2.329313266221469,3.173455149501649
2.3303099770756504,-0.826544850498351
2.3313066879298314,0.17345514950164898
2.3323033987840125,5.173455149501649
2.3333001096381936,21.17345514950165
2.334296820492375,39.17345514950165
2.335293531346556,28.17345514950165
2.336290242200737,-3.826544850498351
2.3372869530549187,-23.82654485049835
2.3382836639091,-6.826544850498351
2.339280374763281,0.17345514950164898
2.340277085617462,20.17345514950165
2.3412737964716435,10.173455149501649
2.3422705073258245,-17.82654485049835
2.3432672181800056,-35.82654485049835
2.344263929034187,-23.82654485049835
2.345260639888368,-3.826544850498351
2.3462573507425493,-14.826544850498351
2.347254061596731,-9.826544850498351
2.348250772450912,-7.826544850498351
2.349247483305093,-3.826544850498351
2.350244194159274,12.173455149501649
2.3512409050134555,14.173455149501649
2.3522376158676366,17.17345514950165
2.3532343267218176,12.173455149501649
2.354231037575999,15.173455149501649
2.3552277484301802,21.17345514950165
2.3562244592843613,11.173455149501649
2.3572211701385424,-7.826544850498351
2.358217880992724,2.173455149501649
2.359214591846905,4.173455149501649
2.360211302701086,-24.82654485049835
2.3612080135552675,-10.826544850498351
2.3622047244094486,-3.826544850498351
2.3632014352636297,-18.82654485049835
2.364198146117811,-10.826544850498351
2.3651948569719923,-2.826544850498351
2.3661915678261733,-7.826544850498351
2.3671882786803544,-13.826544850498351
2.368184989534536,1.173455149501649
2.369181700388717,-5.826544850498351
2.370178411242898,12.173455149501649
2.3711751220970796,10.173455149501649
2.3721718329512607,5.173455149501649
2.3731685438054417,8.173455149501649
2.3741652546596232,1.173455149501649
2.3751619655138043,25.17345514950165
2.3761586763679854,32.17345514950165
2.3771553872221665,6.173455149501649
2.378152098076348,3.173455149501649
2.379148808930529,22.17345514950165
2.38014551978471,1.173455149501649
2.3811422306388916,-17.82654485049835
2.3821389414930727,-31.82654485049835
2.3831356523472538,-42.82654485049835
2.384132363201435,-23.82654485049835
2.3851290740556164,-20.82654485049835
2.3861257849097974,-21.82654485049835
2.3871224957639785,-1.826544850498351
2.38811920661816,-1.826544850498351
2.389115917472341,17.17345514950165
2.390112628326522,33.17345514950165
2.3911093391807037,27.17345514950165
2.3921060500348847,31.17345514950165
2.393102760889066,33.17345514950165
2.394099471743247,23.17345514950165
2.3950961825974284,10.173455149501649
2.3960928934516095,-10.826544850498351
2.3970896043057905,-7.826544850498351
2.398086315159972,0.17345514950164898
2.399083026014153,-14.826544850498351
2.400079736868334,-11.826544850498351
2.4010764477225153,-15.826544850498351
2.402073158576697,-13.826544850498351
2.403069869430878,-14.826544850498351
2.404066580285059,-26.82654485049835
2.4050632911392404,-20.82654485049835
2.4060600019934215,-12.826544850498351
2.4070567128476026,-5.826544850498351
2.408053423701784,-8.826544850498351
2.409050134555965,-2.826544850498351
2.4100468454101462,14.173455149501649
2.4110435562643273,12.173455149501649
2.412040267118509,18.17345514950165
2.41303697797269,31.17345514950165
2.414033688826871,29.17345514950165
2.4150303996810525,26.17345514950165
2.4160271105352336,9.173455149501649
2.4170238213894146,2.173455149501649
2.4180205322435957,-5.826544850498351
2.419017243097777,-7.826544850498351
2.4200139539519583,-23.82654485049835
2.4210106648061394,-19.82654485049835
2.422007375660321,-15.826544850498351
2.423004086514502,-15.826544850498351
2.424000797368683,-9.826544850498351
2.4249975082228645,10.173455149501649
2.4259942190770456,5.173455149501649
2.4269909299312267,-4.826544850498351
2.4279876407854077,6.173455149501649
2.4289843516395893,5.173455149501649
2.4299810624937703,-8.826544850498351
2.4309777733479514,-4.826544850498351
2.431974484202133,20.17345514950165
2.432971195056314,7.173455149501649
2.433967905910495,7.173455149501649
2.434964616764676,14.173455149501649
2.4359613276188576,3.173455149501649
2.4369580384730387,-2.826544850498351
2.43795474932722,12.173455149501649
2.4389514601814013,10.173455149501649
2.4399481710355824,-2.826544850498351
2.4409448818897634,8.173455149501649
2.441941592743945,-1.826544850498351
2.442938303598126,-33.82654485049835
2.443935014452307,-28.82654485049835
2.444931725306488,-24.82654485049835
2.4459284361606697,-23.82654485049835
2.4469251470148508,-18.82654485049835
2.447921857869032,26.17345514950165
2.4489185687232133,11.173455149501649
2.4499152795773944,23.17345514950165
2.4509119904315755,28.17345514950165
2.451908701285757,29.17345514950165
2.452905412139938,21.17345514950165
2.453902122994119,13.173455149501649
2.4548988338483,1.173455149501649
2.4558955447024817,-0.826544850498351
2.456892255556663,2.173455149501649
2.457888966410844,-4.826544850498351
2.4588856772650254,-5.826544850498351
2.4598823881192065,-2.826544850498351
2.4608790989733875,-27.82654485049835
2.4618758098275686,-19.82654485049835
2.46287252068175,-2.826544850498351
2.463869231535931,-8.826544850498351
2.4648659423901123,-14.826544850498351
2.4658626532442938,-37.82654485049835
2.466859364098475,-17.82654485049835
2.467856074952656,-0.826544850498351
2.4688527858068374,4.173455149501649
2.4698494966610185,9.173455149501649
2.4708462075151996,8.173455149501649
2.4718429183693806,16.17345514950165
2.472839629223562,20.17345514950165
2.4738363400777432,35.17345514950165
2.4748330509319243,30.17345514950165
2.475829761786106,16.17345514950165
2.476826472640287,3.173455149501649
2.477823183494468,-1.826544850498351
2.478819894348649,-13.826544850498351
2.4798166052028305,-10.826544850498351
2.4808133160570116,-17.82654485049835
2.4818100269111927,-16.82654485049835
2.482806737765374,-10.826544850498351
2.4838034486195553,-6.826544850498351
2.4848001594737363,-15.826544850498351
2.485796870327918,-9.826544850498351
2.486793581182099,-11.826544850498351
2.48779029203628,-5.826544850498351
2.488787002890461,-2.826544850498351
2.4897837137446426,0.17345514950164898
2.4907804245988237,11.173455149501649
2.4917771354530047,7.173455149501649
2.4927738463071862,27.17345514950165
2.4937705571613673,28.17345514950165
2.4947672680155484,19.17345514950165
2.4957639788697294,5.173455149501649
2.496760689723911,3.173455149501649
2.497757400578092,0.17345514950164898
2.498754111432273,-6.826544850498351
2.4997508222864546,-2.826544850498351
2.5007475331406357,-14.826544850498351
2.5017442439948168,-19.82654485049835
2.5027409548489983,-8.826544850498351
2.5037376657031793,-8.826544850498351
2.5047343765573604,-13.826544850498351
2.5057310874115415,-8.826544850498351
2.506727798265723,-1.826544850498351
2.507724509119904,1.173455149501649
2.508721219974085,3.173455149501649
2.5097179308282667,1.173455149501649
2.5107146416824477,-4.826544850498351
2.511711352536629,6.173455149501649
2.51270806339081,17.17345514950165
2.5137047742449914,26.17345514950165
2.5147014850991725,32.17345514950165
2.5156981959533535,24.17345514950165
2.516694906807535,8.173455149501649
2.517691617661716,9.173455149501649
2.518688328515897,-1.826544850498351
2.5196850393700787,-5.826544850498351
2.5206817502242598,-19.82654485049835
2.521678461078441,-8.826544850498351
2.522675171932622,-7.826544850498351
2.5236718827868034,-14.826544850498351
2.5246685936409845,-27.82654485049835
2.5256653044951656,-20.82654485049835
2.526662015349347,-23.82654485049835
2.527658726203528,-31.82654485049835
2.5286554370577092,-4.826544850498351
2.5296521479118907,20.17345514950165
2.530648858766072,33.17345514950165
2.531645569620253,30.17345514950165
2.532642280474434,19.17345514950165
2.5336389913286155,14.173455149501649
2.5346357021827965,-1.826544850498351
2.5356324130369776,17.17345514950165
2.536629123891159,38.17345514950165
2.53762583474534,22.17345514950165
2.5386225455995213,-3.826544850498351
2.5396192564537023,-15.826544850498351
2.540615967307884,-11.826544850498351
2.541612678162065,-14.826544850498351
2.542609389016246,-36.82654485049835
2.5436060998704275,-26.82654485049835
2.5446028107246086,-25.82654485049835
2.5455995215787897,-14.826544850498351
2.546596232432971,-5.826544850498351
2.5475929432871522,1.173455149501649
2.5485896541413333,12.173455149501649
2.5495863649955144,15.173455149501649
2.550583075849696,15.173455149501649
2.551579786703877,12.173455149501649
2.552576497558058,12.173455149501649
2.5535732084122396,15.173455149501649
2.5545699192664206,14.173455149501649
2.5555666301206017,4.173455149501649
2.5565633409747828,-2.826544850498351
2.5575600518289643,1.173455149501649
2.5585567626831454,-6.826544850498351
2.5595534735373264,-10.826544850498351
2.560550184391508,-7.826544850498351
2.561546895245689,1.173455149501649
2.56254360609987,-2.826544850498351
2.5635403169540516,-8.826544850498351
2.5645370278082327,-16.82654485049835
2.5655337386624137,-15.826544850498351
2.566530449516595,-11.826544850498351
2.5675271603707763,-6.826544850498351
2.5685238712249574,-1.826544850498351
2.5695205820791385,3.173455149501649
2.57051729293332,8.173455149501649
2.571514003787501,21.17345514950165
2.572510714641682,19.17345514950165
2.573507425495863,12.173455149501649
2.5745041363500447,12.173455149501649
2.575500847204226,20.17345514950165
2.576497558058407,11.173455149501649
2.5774942689125884,1.173455149501649
2.5784909797667694,-2.826544850498351
2.5794876906209505,-5.826544850498351
2.580484401475132,-8.826544850498351
2.581481112329313,-14.826544850498351
2.582477823183494,-11.826544850498351
2.5834745340376752,-11.826544850498351
2.5844712448918568,-16.82654485049835
2.585467955746038,-19.82654485049835
2.586464666600219,-20.82654485049835
2.5874613774544004,-18.82654485049835
2.5884580883085815,-2.826544850498351
2.5894547991627626,16.17345514950165
2.590451510016944,25.17345514950165
2.591448220871125,17.17345514950165
2.592444931725306,13.173455149501649
2.5934416425794873,29.17345514950165
2.594438353433669,27.17345514950165
2.59543506428785,9.173455149501649
2.596431775142031,4.173455149501649
2.5974284859962125,3.173455149501649
2.5984251968503935,-4.826544850498351
2.5994219077045746,-14.826544850498351
2.6004186185587557,-19.82654485049835
2.601415329412937,2.173455149501649
2.6024120402671183,2.173455149501649
2.6034087511212993,-19.82654485049835
2.604405461975481,-29.82654485049835
2.605402172829662,-30.82654485049835
2.606398883683843,-5.826544850498351
2.6073955945380245,-2.826544850498351
2.6083923053922056,-7.826544850498351
2.6093890162463866,12.173455149501649
2.6103857271005677,19.17345514950165
2.6113824379547492,13.173455149501649
2.6123791488089303,29.17345514950165
2.6133758596631114,29.17345514950165
2.614372570517293,20.17345514950165
2.615369281371474,9.173455149501649
2.616365992225655,-1.826544850498351
2.617362703079836,-10.826544850498351
2.6183594139340176,-11.826544850498351
2.6193561247881987,-9.826544850498351
2.6203528356423798,-20.82654485049835
2.6213495464965613,-16.82654485049835
2.6223462573507423,-32.82654485049835
2.6233429682049234,-23.82654485049835
2.624339679059105,12.173455149501649
2.625336389913286,9.173455149501649
2.626333100767467,8.173455149501649
2.627329811621648,10.173455149501649
2.6283265224758297,4.173455149501649
2.6293232333300107,8.173455149501649
2.630319944184192,10.173455149501649
2.6313166550383733,0.17345514950164898
2.6323133658925544,16.17345514950165
2.6333100767467355,33.17345514950165
2.6343067876009165,22.17345514950165
2.635303498455098,17.17345514950165
2.636300209309279,7.173455149501649
2.63729692016346,-14.826544850498351
2.6382936310176417,-25.82654485049835
2.6392903418718228,-14.826544850498351
2.640287052726004,-19.82654485049835
2.6412837635801854,-27.82654485049835
2.6422804744343664,-19.82654485049835
2.6432771852885475,-18.82654485049835
2.6442738961427286,-7.826544850498351
2.64527060699691,-1.826544850498351
2.646267317851091,12.173455149501649
2.647264028705272,1.173455149501649
2.6482607395594537,-1.826544850498351
2.649257450413635,1.173455149501649
2.650254161267816,20.17345514950165
2.651250872121997,20.17345514950165
2.6522475829761785,7.173455149501649
2.6532442938303595,17.17345514950165
2.6542410046845406,26.17345514950165
2.655237715538722,21.17345514950165
2.656234426392903,4.173455149501649
2.6572311372470843,-4.826544850498351
2.6582278481012658,0.17345514950164898
2.659224558955447,-6.826544850498351
2.660221269809628,-19.82654485049835
2.661217980663809,-17.82654485049835
2.6622146915179905,-22.82654485049835
2.6632114023721716,-28.82654485049835
2.6642081132263526,-21.82654485049835
2.665204824080534,-11.826544850498351
2.6662015349347152,5.173455149501649
2.6671982457888963,4.173455149501649
2.668194956643078,11.173455149501649
2.669191667497259,12.173455149501649
2.67018837835144,4.173455149501649
2.671185089205621,-0.826544850498351
2.6721818000598025,8.173455149501649
2.6731785109139836,29.17345514950165
2.6741752217681647,45.17345514950165
2.675171932622346,33.17345514950165
2.6761686434765273,-2.826544850498351
2.6771653543307083,-29.82654485049835
2.6781620651848894,-26.82654485049835
2.679158776039071,-14.826544850498351
2.680155486893252,-26.82654485049835
2.681152197747433,-27.82654485049835
2.6821489086016146,-3.826544850498351
2.6831456194557957,14.173455149501649
2.6841423303099767,12.173455149501649
2.6851390411641582,9.173455149501649
2.6861357520183393,14.173455149501649
2.6871324628725204,9.173455149501649
2.6881291737267015,3.173455149501649
2.689125884580883,-7.826544850498351
2.690122595435064,-5.826544850498351
2.691119306289245,2.173455149501649
2.6921160171434266,4.173455149501649
2.6931127279976077,7.173455149501649
2.6941094388517888,16.17345514950165
2.69510614970597,15.173455149501649
2.6961028605601514,1.173455149501649
2.6970995714143324,-10.826544850498351
2.6980962822685135,-8.826544850498351
2.699092993122695,3.173455149501649
2.700089703976876,-2.826544850498351
2.701086414831057,-17.82654485049835
2.7020831256852387,-10.826544850498351
2.7030798365394197,-2.826544850498351
2.704076547393601,-10.826544850498351
2.705073258247782,-5.826544850498351
2.7060699691019634,12.173455149501649
2.7070666799561445,-7.826544850498351
2.7080633908103255,-5.826544850498351
2.709060101664507,2.173455149501649
2.710056812518688,4.173455149501649
2.711053523372869,12.173455149501649
2.7120502342270503,14.173455149501649
2.713046945081232,5.173455149501649
2.714043655935413,3.173455149501649
2.715040366789594,2.173455149501649
2.7160370776437754,17.17345514950165
2.7170337884979565,18.17345514950165
2.7180304993521376,-15.826544850498351
2.719027210206319,-3.826544850498351
2.7200239210605,1.173455149501649
2.7210206319146812,-2.826544850498351
2.7220173427688623,-25.82654485049835
2.723014053623044,-23.82654485049835
2.724010764477225,-6.826544850498351
2.725007475331406,-16.82654485049835
2.7260041861855875,-12.826544850498351
2.7270008970397686,5.173455149501649
2.7279976078939496,9.173455149501649
2.7289943187481307,17.17345514950165
2.729991029602312,8.173455149501649
2.7309877404564933,2.173455149501649
2.7319844513106744,6.173455149501649
2.732981162164856,10.173455149501649
2.733977873019037,15.173455149501649
2.734974583873218,12.173455149501649
2.7359712947273995,9.173455149501649
2.7369680055815806,-7.826544850498351
2.7379647164357617,-7.826544850498351
2.7389614272899427,6.173455149501649
2.7399581381441243,-5.826544850498351
2.7409548489983053,-14.826544850498351
2.7419515598524864,-24.82654485049835
2.742948270706668,-13.826544850498351
2.743944981560849,-19.82654485049835
2.74494169241503,-27.82654485049835
2.7459384032692116,-5.826544850498351
2.7469351141233926,8.173455149501649
2.7479318249775737,15.173455149501649
2.748928535831755,14.173455149501649
2.7499252466859363,5.173455149501649
2.7509219575401174,8.173455149501649
2.7519186683942984,12.173455149501649
2.75291537924848,27.17345514950165
2.753912090102661,36.17345514950165
2.754908800956842,12.173455149501649
2.755905511811023,1.173455149501649
2.7569022226652047,-2.826544850498351
2.7578989335193858,-20.82654485049835
2.758895644373567,-15.826544850498351
2.7598923552277483,-6.826544850498351
2.7608890660819294,-3.826544850498351
2.7618857769361105,-13.826544850498351
2.762882487790292,-15.826544850498351
2.763879198644473,-14.826544850498351
2.764875909498654,-16.82654485049835
2.765872620352835,-10.826544850498351
2.7668693312070167,-8.826544850498351
2.767866042061198,-2.826544850498351
2.768862752915379,11.173455149501649
2.7698594637695604,12.173455149501649
2.7708561746237415,25.17345514950165
2.7718528854779225,16.17345514950165
2.7728495963321036,19.17345514950165
2.773846307186285,16.17345514950165
2.774843018040466,4.173455149501649
2.7758397288946473,6.173455149501649
2.7768364397488288,15.173455149501649
2.77783315060301,3.173455149501649
2.778829861457191,-14.826544850498351
2.7798265723113724,-18.82654485049835
2.7808232831655535,-0.826544850498351
2.7818199940197346,1.173455149501649
2.7828167048739156,-11.826544850498351
2.783813415728097,-41.82654485049835
2.7848101265822782,-22.82654485049835
2.7858068374364593,13.173455149501649
2.786803548290641,3.173455149501649
2.787800259144822,-3.826544850498351
2.788796969999003,-0.826544850498351
2.789793680853184,-7.826544850498351
2.7907903917073655,4.173455149501649
2.7917871025615466,4.173455149501649
2.7927838134157277,16.17345514950165
2.793780524269909,11.173455149501649
2.7947772351240903,27.17345514950165
2.7957739459782713,28.17345514950165
2.796770656832453,14.173455149501649
2.797767367686634,11.173455149501649
2.798764078540815,12.173455149501649
2.799760789394996,-5.826544850498351
2.8007575002491776,-7.826544850498351
2.8017542111033586,-20.82654485049835
2.8027509219575397,-23.82654485049835
2.8037476328117212,-21.82654485049835
2.8047443436659023,-20.82654485049835
2.8057410545200834,-18.82654485049835
2.8067377653742644,-26.82654485049835
2.807734476228446,0.17345514950164898
2.808731187082627,34.17345514950165
2.809727897936808,39.17345514950165
2.8107246087909896,16.17345514950165
2.8117213196451707,-4.826544850498351
2.8127180304993518,-6.826544850498351
2.8137147413535333,3.173455149501649
2.8147114522077143,5.173455149501649
2.8157081630618954,12.173455149501649
2.8167048739160765,11.173455149501649
2.817701584770258,-1.826544850498351
2.818698295624439,1.173455149501649
2.81969500647862,-12.826544850498351
2.8206917173328017,-8.826544850498351
2.8216884281869827,-19.82654485049835
2.822685139041164,-25.82654485049835
2.8236818498953453,-19.82654485049835
2.8246785607495264,-28.82654485049835
2.8256752716037075,-42.82654485049835
2.8266719824578885,-42.82654485049835
2.82766869331207,3.173455149501649
2.828665404166251,42.17345514950165
2.829662115020432,61.17345514950165
2.8306588258746137,60.17345514950165
2.8316555367287948,39.17345514950165
2.832652247582976,16.17345514950165
2.833648958437157,22.17345514950165
2.8346456692913384,11.173455149501649
2.8356423801455195,-10.826544850498351
2.8366390909997006,-10.826544850498351
2.837635801853882,-26.82654485049835
2.838632512708063,-13.826544850498351
2.8396292235622442,-7.826544850498351
2.8406259344164257,-15.826544850498351
2.841622645270607,-5.826544850498351
2.842619356124788,-1.826544850498351
2.843616066978969,-4.826544850498351
2.8446127778331505,-15.826544850498351
2.8456094886873315,-14.826544850498351
2.8466061995415126,-19.82654485049835
2.847602910395694,-7.826544850498351
2.848599621249875,8.173455149501649
2.8495963321040563,11.173455149501649
2.8505930429582373,23.17345514950165
2.851589753812419,23.17345514950165
2.8525864646666,12.173455149501649
2.853583175520781,9.173455149501649
2.8545798863749625,4.173455149501649
2.8555765972291436,3.173455149501649
2.8565733080833247,6.173455149501649
2.857570018937506,-3.826544850498351
2.8585667297916872,-17.82654485049835
2.8595634406458683,-11.826544850498351
2.8605601515000494,-6.826544850498351
2.861556862354231,-13.826544850498351
2.862553573208412,-9.826544850498351
2.863550284062593,-15.826544850498351
2.8645469949167746,-17.82654485049835
2.8655437057709556,-11.826544850498351
2.8665404166251367,-3.826544850498351
2.8675371274793178,5.173455149501649
2.8685338383334993,10.173455149501649
2.8695305491876804,13.173455149501649
2.8705272600418614,23.17345514950165
2.871523970896043,16.17345514950165
2.872520681750224,16.17345514950165
2.873517392604405,13.173455149501649
2.8745141034585866,6.173455149501649
2.8755108143127677,8.173455149501649
2.8765075251669487,4.173455149501649
2.87750423602113,-5.826544850498351
2.8785009468753113,-3.826544850498351
2.8794976577294924,-8.826544850498351
2.8804943685836735,-8.826544850498351
2.881491079437855,-12.826544850498351
2.882487790292036,-10.826544850498351
2.883484501146217,-24.82654485049835
2.8844812120003986,-21.82654485049835
2.8854779228545797,1.173455149501649
2.886474633708761,4.173455149501649
2.887471344562942,7.173455149501649
2.8884680554171234,-4.826544850498351
2.8894647662713044,6.173455149501649
2.8904614771254855,18.17345514950165
2.891458187979667,5.173455149501649
2.892454898833848,23.17345514950165
2.893451609688029,28.17345514950165
2.8944483205422102,18.17345514950165
2.8954450313963918,23.17345514950165
2.896441742250573,11.173455149501649
2.897438453104754,4.173455149501649
2.8984351639589354,2.173455149501649
2.8994318748131165,-17.82654485049835
2.9004285856672976,-18.82654485049835
2.901425296521479,-24.82654485049835
2.90242200737566,-29.82654485049835
2.903418718229841,-30.82654485049835
2.9044154290840223,-27.82654485049835
2.905412139938204,-20.82654485049835
2.906408850792385,-18.82654485049835
2.907405561646566,-6.826544850498351
2.9084022725007475,3.173455149501649
2.9093989833549285,36.17345514950165
2.9103956942091096,38.17345514950165
2.9113924050632907,32.17345514950165
2.912389115917472,31.17345514950165
2.9133858267716533,22.17345514950165
2.9143825376258343,11.173455149501649
2.915379248480016,5.173455149501649
2.916375959334197,6.173455149501649
2.917372670188378,5.173455149501649
2.9183693810425595,5.173455149501649
2.9193660918967406,-12.826544850498351
2.9203628027509216,-24.82654485049835
2.9213595136051027,-26.82654485049835
2.9223562244592842,-30.82654485049835
2.9233529353134653,-26.82654485049835
2.9243496461676464,-18.82654485049835
2.925346357021828,-26.82654485049835
2.926343067876009,-16.82654485049835
2.92733977873019,10.173455149501649
2.928336489584371,10.173455149501649
2.9293332004385526,12.173455149501649
2.9303299112927337,34.17345514950165
2.9313266221469148,23.17345514950165
2.9323233330010963,20.17345514950165
2.9333200438552773,19.17345514950165
2.9343167547094584,7.173455149501649
2.93531346556364,-5.826544850498351
2.936310176417821,-6.826544850498351
2.937306887272002,7.173455149501649
2.938303598126183,-2.826544850498351
2.9393003089803647,-7.826544850498351
2.9402970198345457,-19.82654485049835
2.941293730688727,-17.82654485049835
2.9422904415429083,-12.826544850498351
2.9432871523970894,-19.82654485049835
2.9442838632512704,-13.826544850498351
2.9452805741054515,-0.826544850498351
2.946277284959633,6.173455149501649
2.947273995813814,8.173455149501649
2.948270706667995,8.173455149501649
2.9492674175221767,1.173455149501649
2.9502641283763578,3.173455149501649
2.951260839230539,4.173455149501649
2.9522575500847204,25.17345514950165
2.9532542609389014,22.17345514950165
2.9542509717930825,14.173455149501649
2.9552476826472636,16.17345514950165
2.956244393501445,2.173455149501649
2.957241104355626,-4.826544850498351
2.958237815209807,-2.826544850498351
2.9592345260639887,-26.82654485049835
2.96023123691817,-17.82654485049835
2.961227947772351,-1.826544850498351
2.9622246586265324,-10.826544850498351
2.9632213694807135,-8.826544850498351
2.9642180803348945,-13.826544850498351
2.9652147911890756,-8.826544850498351
2.966211502043257,-6.826544850498351
2.967208212897438,-2.826544850498351
2.9682049237516193,8.173455149501649
2.9692016346058008,12.173455149501649
2.970198345459982,19.17345514950165
2.971195056314163,8.173455149501649
2.972191767168344,15.173455149501649
2.9731884780225255,11.173455149501649
2.9741851888767066,7.173455149501649
2.9751818997308876,4.173455149501649
2.976178610585069,6.173455149501649
2.9771753214392502,19.17345514950165
2.9781720322934313,3.173455149501649
2.979168743147613,-18.82654485049835
2.980165454001794,-21.82654485049835
2.981162164855975,-19.82654485049835
2.982158875710156,-23.82654485049835
2.9831555865643375,-19.82654485049835
2.9841522974185186,-10.826544850498351
2.9851490082726997,-2.826544850498351
2.986145719126881,-11.826544850498351
2.9871424299810623,9.173455149501649
2.9881391408352433,16.17345514950165
2.9891358516894244,5.173455149501649
2.990132562543606,8.173455149501649
2.991129273397787,25.17345514950165
2.992125984251968,19.17345514950165
2.9931226951061496,5.173455149501649
2.9941194059603307,6.173455149501649
2.9951161168145117,20.17345514950165
2.9961128276686932,16.17345514950165
2.9971095385228743,2.173455149501649
2.9981062493770554,-10.826544850498351
2.9991029602312365,-12.826544850498351
3.000099671085418,-15.826544850498351
3.001096381939599,-14.826544850498351
3.00209309279378,-21.82654485049835
3.0030898036479616,-26.82654485049835
3.0040865145021427,-23.82654485049835
3.0050832253563238,-1.826544850498351
3.006079936210505,24.17345514950165
3.0070766470646864,24.17345514950165
3.0080733579188674,8.173455149501649
3.0090700687730485,8.173455149501649
3.01006677962723,17.17345514950165
3.011063490481411,21.17345514950165
3.012060201335592,5.173455149501649
3.0130569121897737,2.173455149501649
3.0140536230439547,13.173455149501649
3.015050333898136,13.173455149501649
3.016047044752317,3.173455149501649
3.0170437556064984,-10.826544850498351
3.0180404664606795,-1.826544850498351
3.0190371773148605,-4.826544850498351
3.020033888169042,-11.826544850498351
3.021030599023223,-17.82654485049835
3.022027309877404,-26.82654485049835
3.0230240207315853,-14.826544850498351
3.024020731585767,-14.826544850498351
3.025017442439948,-19.82654485049835
3.026014153294129,-18.82654485049835
3.0270108641483104,-9.826544850498351
3.0280075750024915,5.173455149501649
3.0290042858566726,5.173455149501649
3.030000996710854,11.173455149501649
3.030997707565035,32.17345514950165
3.0319944184192162,27.17345514950165
3.0329911292733973,17.17345514950165
3.033987840127579,18.17345514950165
3.03498455098176,25.17345514950165
3.035981261835941,4.173455149501649
3.0369779726901225,5.173455149501649
3.0379746835443036,3.173455149501649
3.0389713943984846,-4.826544850498351
3.039968105252666,-23.82654485049835
3.040964816106847,-26.82654485049835
3.0419615269610283,-28.82654485049835
3.0429582378152094,-32.82654485049835
3.043954948669391,-28.82654485049835
3.044951659523572,-10.826544850498351
3.045948370377753,-2.826544850498351
3.0469450812319345,14.173455149501649
3.0479417920861156,26.17345514950165
3.0489385029402967,22.17345514950165
3.0499352137944777,24.17345514950165
3.0509319246486593,13.173455149501649
3.0519286355028403,-4.826544850498351
3.0529253463570214,13.173455149501649
3.053922057211203,33.17345514950165
3.054918768065384,8.173455149501649
3.055915478919565,-8.826544850498351
3.0569121897737466,-5.826544850498351
3.0579089006279276,-1.826544850498351
3.0589056114821087,-22.82654485049835
3.05990232233629,-19.82654485049835
3.0608990331904713,-17.82654485049835
3.0618957440446524,-6.826544850498351
3.0628924548988334,-3.826544850498351
3.063889165753015,-7.826544850498351
3.064885876607196,-9.826544850498351
3.065882587461377,-6.826544850498351
3.066879298315558,-6.826544850498351
3.0678760091697397,17.17345514950165
3.0688727200239208,18.17345514950165
3.069869430878102,14.173455149501649
3.0708661417322833,7.173455149501649
3.0718628525864644,11.173455149501649
3.0728595634406455,16.17345514950165
3.073856274294827,6.173455149501649
3.074852985149008,-2.826544850498351
3.075849696003189,-3.826544850498351
3.07684640685737,16.17345514950165
3.0778431177115517,9.173455149501649
3.078839828565733,-6.826544850498351
3.079836539419914,-15.826544850498351
3.0808332502740954,-23.82654485049835
3.0818299611282765,-23.82654485049835
3.0828266719824575,-10.826544850498351
3.0838233828366386,-16.82654485049835
3.08482009369082,-18.82654485049835
3.085816804545001,-4.826544850498351
3.0868135153991823,8.173455149501649
3.0878102262533638,16.17345514950165
3.088806937107545,16.17345514950165
3.089803647961726,13.173455149501649
3.0908003588159074,8.173455149501649
3.0917970696700885,12.173455149501649
3.0927937805242696,12.173455149501649
3.0937904913784506,11.173455149501649
3.094787202232632,14.173455149501649
3.095783913086813,-2.826544850498351
3.0967806239409943,-5.826544850498351
3.097777334795176,-16.82654485049835
3.098774045649357,-24.82654485049835
3.099770756503538,1.173455149501649
3.1007674673577195,4.173455149501649
3.1017641782119005,-8.826544850498351
3.1027608890660816,-12.826544850498351
3.1037575999202627,2.173455149501649
3.104754310774444,8.173455149501649
3.1057510216286253,2.173455149501649
3.1067477324828063,-6.826544850498351
3.107744443336988,12.173455149501649
3.108741154191169,13.173455149501649
3.10973786504535,3.173455149501649
3.110734575899531,0.17345514950164898
3.1117312867537126,10.173455149501649
3.1127279976078936,16.17345514950165
3.1137247084620747,14.173455149501649
3.1147214193162562,5.173455149501649
3.1157181301704373,-9.826544850498351
3.1167148410246184,-7.826544850498351
3.1177115518788,-15.826544850498351
3.118708262732981,-29.82654485049835
3.119704973587162,-22.82654485049835
3.120701684441343,-5.826544850498351
3.1216983952955246,2.173455149501649
3.1226951061497057,-5.826544850498351
3.1236918170038868,-20.82654485049835
3.1246885278580683,-10.826544850498351
3.1256852387122493,5.173455149501649
3.1266819495664304,19.17345514950165
3.1276786604206115,27.17345514950165
3.128675371274793,8.173455149501649
3.129672082128974,10.173455149501649
3.130668792983155,20.17345514950165
3.1316655038373367,21.17345514950165
3.1326622146915177,20.17345514950165
3.133658925545699,12.173455149501649
3.1346556363998803,-3.826544850498351
3.1356523472540614,-8.826544850498351
3.1366490581082425,-7.826544850498351
3.1376457689624235,-6.826544850498351
3.138642479816605,-8.826544850498351
3.139639190670786,-15.826544850498351
3.140635901524967,-4.826544850498351
3.1416326123791487,-8.826544850498351
3.1426293232333298,-20.82654485049835
3.143626034087511,-34.82654485049835
3.144622744941692,-15.826544850498351
3.1456194557958734,1.173455149501649
3.1466161666500545,15.173455149501649
3.1476128775042356,13.173455149501649
3.148609588358417,8.173455149501649
3.149606299212598,-4.826544850498351
3.1506030100667792,-14.826544850498351
3.1515997209209607,25.17345514950165
3.152596431775142,32.17345514950165
3.153593142629323,18.17345514950165
3.154589853483504,2.173455149501649
3.1555865643376855,22.17345514950165
3.1565832751918665,21.17345514950165
3.1575799860460476,1.173455149501649
3.158576696900229,-13.826544850498351
3.15957340775441,-27.82654485049835
3.1605701186085913,-20.82654485049835
3.1615668294627723,-19.82654485049835
3.162563540316954,-16.82654485049835
3.163560251171135,-18.82654485049835
3.164556962025316,-15.826544850498351
3.1655536728794975,-7.826544850498351
3.1665503837336786,0.17345514950164898
3.1675470945878597,-11.826544850498351
3.168543805442041,12.173455149501649
3.1695405162962222,17.17345514950165
3.1705372271504033,4.173455149501649
3.1715339380045844,35.17345514950165
3.172530648858766,35.17345514950165
3.173527359712947,19.17345514950165
3.174524070567128,15.173455149501649
3.1755207814213096,5.173455149501649
3.1765174922754906,-8.826544850498351
3.1775142031296717,-16.82654485049835
