Time,EMG
0.0,-2.8140863787375565
0.000996710854181202,-11.814086378737557
0.001993421708362404,-20.814086378737557
0.002990132562543606,-10.814086378737557
0.003986843416724808,-10.814086378737557
0.00498355427090601,-6.8140863787375565
0.005980265125087212,-2.8140863787375565
0.006976975979268414,-4.8140863787375565
0.007973686833449616,0.18591362126244348
0.008970397687630818,-4.8140863787375565
0.00996710854181202,6.1859136212624435
0.01096381939599322,6.1859136212624435
0.011960530250174423,3.1859136212624435
0.012957241104355626,6.1859136212624435
0.013953951958536827,13.185913621262443
0.014950662812718028,11.185913621262443
0.01594737366689923,2.1859136212624435
0.016944084521080434,4.1859136212624435
0.017940795375261637,20.185913621262443
0.018937506229442836,10.185913621262443
0.01993421708362404,-6.8140863787375565
0.02093092793780524,-9.814086378737557
0.02192763879198644,-10.814086378737557
0.022924349646167644,-13.814086378737557
0.023921060500348847,-12.814086378737557
0.02491777135453005,-7.8140863787375565
0.025914482208711252,-8.814086378737557
0.02691119306289245,-7.8140863787375565
0.027907903917073654,-6.8140863787375565
0.028904614771254857,-2.8140863787375565
0.029901325625436057,2.1859136212624435
0.03089803647961726,4.1859136212624435
0.03189474733379846,11.185913621262443
0.032891458187979665,15.185913621262443
0.03388816904216087,9.185913621262443
0.03488487989634207,5.1859136212624435
0.03588159075052327,11.185913621262443
0.03687830160470447,9.185913621262443
0.03787501245888567,8.185913621262443
0.038871723313066875,1.1859136212624435
0.03986843416724808,-3.8140863787375565
0.04086514502142928,-4.8140863787375565
0.04186185587561048,-14.814086378737557
0.042858566729791686,-12.814086378737557
0.04385527758397288,-11.814086378737557
0.044851988438154085,-10.814086378737557
0.04584869929233529,-10.814086378737557
0.04684541014651649,-7.8140863787375565
0.04784212100069769,-3.8140863787375565
0.048838831854878896,-3.8140863787375565
0.0498355427090601,0.18591362126244348
0.0508322535632413,3.1859136212624435
0.051828964417422504,14.185913621262443
0.0528256752716037,18.185913621262443
0.0538223861257849,12.185913621262443
0.054819096979966106,12.185913621262443
0.05581580783414731,11.185913621262443
0.05681251868832851,8.185913621262443
0.057809229542509714,6.1859136212624435
0.05880594039669092,4.1859136212624435
0.05980265125087211,-3.8140863787375565
0.060799362105053316,-6.8140863787375565
0.06179607295923452,-7.8140863787375565
0.06279278381341573,-12.814086378737557
0.06378949466759692,-14.814086378737557
0.06478620552177812,-13.814086378737557
0.06578291637595933,-9.814086378737557
0.06677962723014053,-8.814086378737557
0.06777633808432174,-4.8140863787375565
0.06877304893850293,-2.8140863787375565
0.06976975979268414,1.1859136212624435
0.07076647064686534,5.1859136212624435
0.07176318150104655,8.185913621262443
0.07275989235522774,11.185913621262443
0.07375660320940894,17.185913621262443
0.07475331406359015,20.185913621262443
0.07575002491777134,15.185913621262443
0.07674673577195255,5.1859136212624435
0.07774344662613375,6.1859136212624435
0.07874015748031496,3.1859136212624435
0.07973686833449616,-3.8140863787375565
0.08073357918867735,-4.8140863787375565
0.08173029004285856,-3.8140863787375565
0.08272700089703976,-7.8140863787375565
0.08372371175122097,-16.814086378737557
0.08472042260540216,-21.814086378737557
0.08571713345958337,-11.814086378737557
0.08671384431376457,-9.814086378737557
0.08771055516794576,-8.814086378737557
0.08870726602212697,-3.8140863787375565
0.08970397687630817,-1.8140863787375565
0.09070068773048938,8.185913621262443
0.09169739858467058,14.185913621262443
0.09269410943885178,13.185913621262443
0.09369082029303298,9.185913621262443
0.09468753114721419,8.185913621262443
0.09568424200139539,9.185913621262443
0.09668095285557658,10.185913621262443
0.09767766370975779,14.185913621262443
0.09867437456393899,7.1859136212624435
0.0996710854181202,0.18591362126244348
0.1006677962723014,-1.8140863787375565
0.1016645071264826,-3.8140863787375565
0.1026612179806638,-13.814086378737557
0.10365792883484501,-22.814086378737557
0.1046546396890262,-22.814086378737557
0.1056513505432074,-15.814086378737557
0.10664806139738861,-8.814086378737557
0.1076447722515698,1.1859136212624435
0.10864148310575102,2.1859136212624435
0.10963819395993221,4.1859136212624435
0.11063490481411342,6.1859136212624435
0.11163161566829462,8.185913621262443
0.11262832652247581,21.185913621262443
0.11362503737665702,20.185913621262443
0.11462174823083822,13.185913621262443
0.11561845908501943,0.18591362126244348
0.11661516993920062,6.1859136212624435
0.11761188079338183,3.1859136212624435
0.11860859164756303,-5.8140863787375565
0.11960530250174423,-7.8140863787375565
0.12060201335592544,-7.8140863787375565
0.12159872421010663,-3.8140863787375565
0.12259543506428784,-9.814086378737557
0.12359214591846904,-8.814086378737557
0.12458885677265025,-4.8140863787375565
0.12558556762683146,-7.8140863787375565
0.12658227848101264,-9.814086378737557
0.12757898933519385,-7.8140863787375565
0.12857570018937506,-0.8140863787375565
0.12957241104355624,1.1859136212624435
0.13056912189773745,7.1859136212624435
0.13156583275191866,11.185913621262443
0.13256254360609987,6.1859136212624435
0.13355925446028105,7.1859136212624435
0.13455596531446226,12.185913621262443
0.13555267616864347,8.185913621262443
0.13654938702282465,5.1859136212624435
0.13754609787700586,9.185913621262443
0.13854280873118707,6.1859136212624435
0.13953951958536828,0.18591362126244348
0.14053623043954946,-6.8140863787375565
0.14153294129373067,-6.8140863787375565
0.14252965214791188,-4.8140863787375565
0.1435263630020931,-10.814086378737557
0.14452307385627428,-12.814086378737557
0.14551978471045549,-14.814086378737557
0.1465164955646367,-6.8140863787375565
0.14751320641881788,0.18591362126244348
0.1485099172729991,-2.8140863787375565
0.1495066281271803,5.1859136212624435
0.1505033389813615,5.1859136212624435
0.1515000498355427,9.185913621262443
0.1524967606897239,10.185913621262443
0.1534934715439051,8.185913621262443
0.1544901823980863,10.185913621262443
0.1554868932522675,3.1859136212624435
0.1564836041064487,4.1859136212624435
0.15748031496062992,6.1859136212624435
0.1584770258148111,15.185913621262443
0.1594737366689923,8.185913621262443
0.16047044752317352,-2.8140863787375565
0.1614671583773547,-18.814086378737557
0.1624638692315359,-11.814086378737557
0.16346058008571712,-10.814086378737557
0.16445729093989833,-12.814086378737557
0.1654540017940795,-10.814086378737557
0.16645071264826072,-7.8140863787375565
0.16744742350244193,-3.8140863787375565
0.16844413435662312,4.1859136212624435
0.16944084521080433,11.185913621262443
0.17043755606498553,3.1859136212624435
0.17143426691916674,1.1859136212624435
0.17243097777334793,7.1859136212624435
0.17342768862752914,8.185913621262443
0.17442439948171035,11.185913621262443
0.17542111033589153,14.185913621262443
0.17641782119007274,11.185913621262443
0.17741453204425395,7.1859136212624435
0.17841124289843516,-4.8140863787375565
0.17940795375261634,-0.8140863787375565
0.18040466460679755,-2.8140863787375565
0.18140137546097876,-13.814086378737557
0.18239808631515997,-10.814086378737557
0.18339479716934115,-10.814086378737557
0.18439150802352236,-12.814086378737557
0.18538821887770357,-8.814086378737557
0.18638492973188475,-6.8140863787375565
0.18738164058606596,-6.8140863787375565
0.18837835144024717,-5.8140863787375565
0.18937506229442838,-1.8140863787375565
0.19037177314860956,5.1859136212624435
0.19136848400279077,5.1859136212624435
0.19236519485697198,17.185913621262443
0.19336190571115316,20.185913621262443
0.19435861656533437,20.185913621262443
0.19535532741951558,14.185913621262443
0.1963520382736968,12.185913621262443
0.19734874912787798,12.185913621262443
0.19834545998205919,7.1859136212624435
0.1993421708362404,-9.814086378737557
0.20033888169042158,-15.814086378737557
0.2013355925446028,-14.814086378737557
0.202332303398784,-12.814086378737557
0.2033290142529652,-13.814086378737557
0.2043257251071464,-16.814086378737557
0.2053224359613276,-15.814086378737557
0.2063191468155088,-9.814086378737557
0.20731585766969002,1.1859136212624435
0.2083125685238712,9.185913621262443
0.2093092793780524,8.185913621262443
0.21030599023223362,8.185913621262443
0.2113027010864148,6.1859136212624435
0.212299411940596,1.1859136212624435
0.21329612279477722,6.1859136212624435
0.21429283364895843,10.185913621262443
0.2152895445031396,9.185913621262443
0.21628625535732082,12.185913621262443
0.21728296621150203,10.185913621262443
0.21827967706568321,4.1859136212624435
0.21927638791986442,-1.8140863787375565
0.22027309877404563,-7.8140863787375565
0.22126980962822684,-10.814086378737557
0.22226652048240803,-10.814086378737557
0.22326323133658924,-10.814086378737557
0.22425994219077044,-5.8140863787375565
0.22525665304495163,-11.814086378737557
0.22625336389913284,-12.814086378737557
0.22725007475331405,-7.8140863787375565
0.22824678560749526,-2.8140863787375565
0.22924349646167644,3.1859136212624435
0.23024020731585765,6.1859136212624435
0.23123691817003886,8.185913621262443
0.23223362902422004,14.185913621262443
0.23323033987840125,8.185913621262443
0.23422705073258246,9.185913621262443
0.23522376158676367,8.185913621262443
0.23622047244094485,12.185913621262443
0.23721718329512606,12.185913621262443
0.23821389414930727,3.1859136212624435
0.23921060500348845,-4.8140863787375565
0.24020731585766966,-5.8140863787375565
0.24120402671185087,-7.8140863787375565
0.24220073756603208,-9.814086378737557
0.24319744842021326,-14.814086378737557
0.24419415927439447,-15.814086378737557
0.24519087012857568,-18.814086378737557
0.2461875809827569,-11.814086378737557
0.24718429183693807,1.1859136212624435
0.24818100269111928,2.1859136212624435
0.2491777135453005,2.1859136212624435
0.2501744243994817,2.1859136212624435
0.2511711352536629,4.1859136212624435
0.2521678461078441,9.185913621262443
0.2531645569620253,6.1859136212624435
0.2541612678162065,12.185913621262443
0.2551579786703877,8.185913621262443
0.2561546895245689,11.185913621262443
0.2571514003787501,11.185913621262443
0.2581481112329313,8.185913621262443
0.2591448220871125,3.1859136212624435
0.2601415329412937,3.1859136212624435
0.2611382437954749,0.18591362126244348
0.26213495464965614,-8.814086378737557
0.2631316655038373,-17.814086378737557
0.2641283763580185,-22.814086378737557
0.26512508721219974,-10.814086378737557
0.2661217980663809,-5.8140863787375565
0.2671185089205621,-12.814086378737557
0.26811521977474334,-8.814086378737557
0.2691119306289245,3.1859136212624435
0.2701086414831057,7.1859136212624435
0.27110535233728694,9.185913621262443
0.2721020631914681,13.185913621262443
0.2730987740456493,12.185913621262443
0.27409548489983054,19.185913621262443
0.2750921957540117,16.185913621262443
0.27608890660819296,12.185913621262443
0.27708561746237415,4.1859136212624435
0.2780823283165553,4.1859136212624435
0.27907903917073656,-2.8140863787375565
0.28007575002491775,-13.814086378737557
0.28107246087909893,-7.8140863787375565
0.28206917173328017,-7.8140863787375565
0.28306588258746135,-14.814086378737557
0.28406259344164253,-12.814086378737557
0.28505930429582377,-11.814086378737557
0.28605601515000495,-10.814086378737557
0.2870527260041862,-10.814086378737557
0.28804943685836737,-4.8140863787375565
0.28904614771254855,1.1859136212624435
0.2900428585667298,6.1859136212624435
0.29103956942091097,11.185913621262443
0.29203628027509215,14.185913621262443
0.2930329911292734,17.185913621262443
0.29402970198345457,8.185913621262443
0.29502641283763575,10.185913621262443
0.296023123691817,11.185913621262443
0.2970198345459982,14.185913621262443
0.29801654540017936,8.185913621262443
0.2990132562543606,-3.8140863787375565
0.3000099671085418,-4.8140863787375565
0.301006677962723,-5.8140863787375565
0.3020033888169042,-13.814086378737557
0.3030000996710854,-16.814086378737557
0.3039968105252666,-16.814086378737557
0.3049935213794478,-11.814086378737557
0.305990232233629,-6.8140863787375565
0.3069869430878102,-8.814086378737557
0.3079836539419914,-4.8140863787375565
0.3089803647961726,-0.8140863787375565
0.3099770756503538,4.1859136212624435
0.310973786504535,9.185913621262443
0.3119704973587162,11.185913621262443
0.3129672082128974,11.185913621262443
0.3139639190670786,21.185913621262443
0.31496062992125984,19.185913621262443
0.315957340775441,10.185913621262443
0.3169540516296222,4.1859136212624435
0.31795076248380344,-3.8140863787375565
0.3189474733379846,3.1859136212624435
0.3199441841921658,-0.8140863787375565
0.32094089504634704,-5.8140863787375565
0.3219376059005282,-13.814086378737557
0.3229343167547094,-25.814086378737557
0.32393102760889064,-15.814086378737557
0.3249277384630718,-9.814086378737557
0.32592444931725306,-2.8140863787375565
0.32692116017143424,-6.8140863787375565
0.3279178710256154,-8.814086378737557
0.32891458187979666,5.1859136212624435
0.32991129273397785,3.1859136212624435
0.330908003588159,2.1859136212624435
0.33190471444234027,12.185913621262443
0.33290142529652145,15.185913621262443
0.33389813615070263,20.185913621262443
0.33489484700488387,19.185913621262443
0.33589155785906505,7.1859136212624435
0.33688826871324623,-2.8140863787375565
0.33788497956742747,1.1859136212624435
0.33888169042160865,-2.8140863787375565
0.3398784012757899,-1.8140863787375565
0.34087511212997107,-7.8140863787375565
0.34187182298415225,-11.814086378737557
0.3428685338383335,-16.814086378737557
0.34386524469251467,-15.814086378737557
0.34486195554669585,-11.814086378737557
0.3458586664008771,-1.8140863787375565
0.3468553772550583,-1.8140863787375565
0.34785208810923945,-2.8140863787375565
0.3488487989634207,0.18591362126244348
0.3498455098176019,3.1859136212624435
0.35084222067178306,5.1859136212624435
0.3518389315259643,14.185913621262443
0.3528356423801455,16.185913621262443
0.3538323532343267,11.185913621262443
0.3548290640885079,7.1859136212624435
0.3558257749426891,9.185913621262443
0.3568224857968703,7.1859136212624435
0.3578191966510515,1.1859136212624435
0.3588159075052327,-6.8140863787375565
0.3598126183594139,-8.814086378737557
0.3608093292135951,-9.814086378737557
0.3618060400677763,-9.814086378737557
0.3628027509219575,-9.814086378737557
0.3637994617761387,-3.8140863787375565
0.36479617263031994,-2.8140863787375565
0.3657928834845011,-4.8140863787375565
0.3667895943386823,-8.814086378737557
0.36778630519286354,-1.8140863787375565
0.3687830160470447,4.1859136212624435
0.3697797269012259,6.1859136212624435
0.37077643775540714,6.1859136212624435
0.3717731486095883,12.185913621262443
0.3727698594637695,10.185913621262443
0.37376657031795074,6.1859136212624435
0.3747632811721319,3.1859136212624435
0.3757599920263131,9.185913621262443
0.37675670288049434,12.185913621262443
0.3777534137346755,4.1859136212624435
0.37875012458885676,1.1859136212624435
0.37974683544303794,-3.8140863787375565
0.3807435462972191,-5.8140863787375565
0.38174025715140036,-11.814086378737557
0.38273696800558155,-14.814086378737557
0.38373367885976273,-11.814086378737557
0.38473038971394397,-12.814086378737557
0.38572710056812515,-12.814086378737557
0.38672381142230633,-7.8140863787375565
0.38772052227648757,-5.8140863787375565
0.38871723313066875,0.18591362126244348
0.38971394398485,6.1859136212624435
0.39071065483903117,9.185913621262443
0.39170736569321235,6.1859136212624435
0.3927040765473936,1.1859136212624435
0.39370078740157477,9.185913621262443
0.39469749825575595,14.185913621262443
0.3956942091099372,23.185913621262443
0.39669091996411837,24.185913621262443
0.39768763081829955,7.1859136212624435
0.3986843416724808,-2.8140863787375565
0.399681052526662,-10.814086378737557
0.40067776338084315,-7.8140863787375565
0.4016744742350244,-7.8140863787375565
0.4026711850892056,-14.814086378737557
0.4036678959433868,-17.814086378737557
0.404664606797568,-14.814086378737557
0.4056613176517492,-10.814086378737557
0.4066580285059304,-7.8140863787375565
0.4076547393601116,-4.8140863787375565
0.4086514502142928,0.18591362126244348
0.409648161068474,8.185913621262443
0.4106448719226552,12.185913621262443
0.4116415827768364,14.185913621262443
0.4126382936310176,8.185913621262443
0.4136350044851988,7.1859136212624435
0.41463171533938004,7.1859136212624435
0.4156284261935612,12.185913621262443
0.4166251370477424,12.185913621262443
0.41762184790192364,5.1859136212624435
0.4186185587561048,-3.8140863787375565
0.419615269610286,-9.814086378737557
0.42061198046446724,-12.814086378737557
0.4216086913186484,-10.814086378737557
0.4226054021728296,-7.8140863787375565
0.42360211302701084,-10.814086378737557
0.424598823881192,-11.814086378737557
0.4255955347353732,-15.814086378737557
0.42659224558955444,-3.8140863787375565
0.4275889564437356,9.185913621262443
0.42858566729791686,9.185913621262443
0.42958237815209804,4.1859136212624435
0.4305790890062792,3.1859136212624435
0.43157579986046046,11.185913621262443
0.43257251071464164,13.185913621262443
0.4335692215688228,13.185913621262443
0.43456593242300406,11.185913621262443
0.43556264327718525,8.185913621262443
0.43655935413136643,10.185913621262443
0.43755606498554767,-3.8140863787375565
0.43855277583972885,-8.814086378737557
0.43954948669391003,-5.8140863787375565
0.44054619754809127,-6.8140863787375565
0.44154290840227245,-5.8140863787375565
0.4425396192564537,-11.814086378737557
0.44353633011063487,-12.814086378737557
0.44453304096481605,-13.814086378737557
0.4455297518189973,-12.814086378737557
0.44652646267317847,-6.8140863787375565
0.44752317352735965,-2.8140863787375565
0.4485198843815409,2.1859136212624435
0.44951659523572207,12.185913621262443
0.45051330608990325,23.185913621262443
0.4515100169440845,20.185913621262443
0.4525067277982657,9.185913621262443
0.4535034386524469,9.185913621262443
0.4545001495066281,7.1859136212624435
0.4554968603608093,4.1859136212624435
0.4564935712149905,4.1859136212624435
0.4574902820691717,0.18591362126244348
0.4584869929233529,-3.8140863787375565
0.4594837037775341,-8.814086378737557
0.4604804146317153,-14.814086378737557
0.4614771254858965,-17.814086378737557
0.4624738363400777,-16.814086378737557
0.4634705471942589,-14.814086378737557
0.4644672580484401,-10.814086378737557
0.4654639689026213,-8.814086378737557
0.4664606797568025,-0.8140863787375565
0.46745739061098374,7.1859136212624435
0.4684541014651649,12.185913621262443
0.4694508123193461,5.1859136212624435
0.47044752317352734,4.1859136212624435
0.4714442340277085,13.185913621262443
0.4724409448818897,16.185913621262443
0.47343765573607094,14.185913621262443
0.4744343665902521,9.185913621262443
0.4754310774444333,7.1859136212624435
0.47642778829861454,5.1859136212624435
0.4774244991527957,-0.8140863787375565
0.4784212100069769,-4.8140863787375565
0.47941792086115814,-7.8140863787375565
0.4804146317153393,-7.8140863787375565
0.48141134256952056,-9.814086378737557
0.48240805342370174,-11.814086378737557
0.4834047642778829,-10.814086378737557
0.48440147513206416,-12.814086378737557
0.48539818598624535,-7.8140863787375565
0.4863948968404265,-7.8140863787375565
0.48739160769460776,-5.8140863787375565
0.48838831854878895,2.1859136212624435
0.48938502940297013,6.1859136212624435
0.49038174025715137,6.1859136212624435
0.49137845111133255,13.185913621262443
0.4923751619655138,13.185913621262443
0.49337187281969497,13.185913621262443
0.49436858367387615,7.1859136212624435
0.4953652945280574,8.185913621262443
0.49636200538223857,9.185913621262443
0.49735871623641975,3.1859136212624435
0.498355427090601,-2.8140863787375565
0.49935213794478217,-4.8140863787375565
0.5003488487989634,-8.814086378737557
0.5013455596531445,-11.814086378737557
0.5023422705073258,-14.814086378737557
0.503338981361507,-11.814086378737557
0.5043356922156882,-8.814086378737557
0.5053324030698694,-11.814086378737557
0.5063291139240506,-10.814086378737557
0.5073258247782317,-2.8140863787375565
0.508322535632413,4.1859136212624435
0.5093192464865942,12.185913621262443
0.5103159573407754,11.185913621262443
0.5113126681949566,10.185913621262443
0.5123093790491378,14.185913621262443
0.513306089903319,14.185913621262443
0.5143028007575002,8.185913621262443
0.5152995116116814,5.1859136212624435
0.5162962224658626,8.185913621262443
0.5172929333200438,11.185913621262443
0.518289644174225,0.18591362126244348
0.5192863550284063,-15.814086378737557
0.5202830658825874,-9.814086378737557
0.5212797767367686,-2.8140863787375565
0.5222764875909498,-15.814086378737557
0.523273198445131,-15.814086378737557
0.5242699092993123,-7.8140863787375565
0.5252666201534935,-9.814086378737557
0.5262633310076746,-7.8140863787375565
0.5272600418618558,5.1859136212624435
0.528256752716037,7.1859136212624435
0.5292534635702182,8.185913621262443
0.5302501744243995,11.185913621262443
0.5312468852785807,11.185913621262443
0.5322435961327618,10.185913621262443
0.533240306986943,17.185913621262443
0.5342370178411242,13.185913621262443
0.5352337286953054,11.185913621262443
0.5362304395494867,4.1859136212624435
0.5372271504036679,-4.8140863787375565
0.538223861257849,-9.814086378737557
0.5392205721120302,-16.814086378737557
0.5402172829662114,-9.814086378737557
0.5412139938203927,-10.814086378737557
0.5422107046745739,-10.814086378737557
0.5432074155287551,-9.814086378737557
0.5442041263829362,-11.814086378737557
0.5452008372371174,-7.8140863787375565
0.5461975480912986,-0.8140863787375565
0.5471942589454799,-1.8140863787375565
0.5481909697996611,4.1859136212624435
0.5491876806538423,5.1859136212624435
0.5501843915080235,7.1859136212624435
0.5511811023622046,14.185913621262443
0.5521778132163859,10.185913621262443
0.5531745240705671,10.185913621262443
0.5541712349247483,12.185913621262443
0.5551679457789295,9.185913621262443
0.5561646566331107,8.185913621262443
0.5571613674872918,5.1859136212624435
0.5581580783414731,0.18591362126244348
0.5591547891956543,-7.8140863787375565
0.5601515000498355,-10.814086378737557
0.5611482109040167,-10.814086378737557
0.5621449217581979,-11.814086378737557
0.5631416326123792,-12.814086378737557
0.5641383434665603,-12.814086378737557
0.5651350543207415,-13.814086378737557
0.5661317651749227,-4.8140863787375565
0.5671284760291039,-1.8140863787375565
0.5681251868832851,1.1859136212624435
0.5691218977374664,3.1859136212624435
0.5701186085916475,4.1859136212624435
0.5711153194458287,14.185913621262443
0.5721120303000099,12.185913621262443
0.5731087411541911,12.185913621262443
0.5741054520083724,13.185913621262443
0.5751021628625536,8.185913621262443
0.5760988737167347,1.1859136212624435
0.5770955845709159,8.185913621262443
0.5780922954250971,13.185913621262443
0.5790890062792783,2.1859136212624435
0.5800857171334596,-7.8140863787375565
0.5810824279876408,-13.814086378737557
0.5820791388418219,-20.814086378737557
0.5830758496960031,-18.814086378737557
0.5840725605501843,-10.814086378737557
0.5850692714043655,-10.814086378737557
0.5860659822585468,-10.814086378737557
0.587062693112728,-9.814086378737557
0.5880594039669091,-6.8140863787375565
0.5890561148210903,1.1859136212624435
0.5900528256752715,9.185913621262443
0.5910495365294528,13.185913621262443
0.592046247383634,17.185913621262443
0.5930429582378152,22.185913621262443
0.5940396690919963,26.185913621262443
0.5950363799461775,19.185913621262443
0.5960330908003587,9.185913621262443
0.59702980165454,-0.8140863787375565
0.5980265125087212,-2.8140863787375565
0.5990232233629024,-2.8140863787375565
0.6000199342170836,-5.8140863787375565
0.6010166450712647,-13.814086378737557
0.602013355925446,-22.814086378737557
0.6030100667796272,-23.814086378737557
0.6040067776338084,-19.814086378737557
0.6050034884879896,-7.8140863787375565
0.6060001993421708,-3.8140863787375565
0.6069969101963519,2.1859136212624435
0.6079936210505332,3.1859136212624435
0.6089903319047144,1.1859136212624435
0.6099870427588956,2.1859136212624435
0.6109837536130768,19.185913621262443
0.611980464467258,22.185913621262443
0.6129771753214392,9.185913621262443
0.6139738861756204,2.1859136212624435
0.6149705970298016,5.1859136212624435
0.6159673078839828,4.1859136212624435
0.616964018738164,-4.8140863787375565
0.6179607295923452,-9.814086378737557
0.6189574404465265,6.1859136212624435
0.6199541513007076,2.1859136212624435
0.6209508621548888,-4.8140863787375565
0.62194757300907,-8.814086378737557
0.6229442838632512,-11.814086378737557
0.6239409947174324,-11.814086378737557
0.6249377055716137,-7.8140863787375565
0.6259344164257948,-11.814086378737557
0.626931127279976,-7.8140863787375565
0.6279278381341572,3.1859136212624435
0.6289245489883384,7.1859136212624435
0.6299212598425197,18.185913621262443
0.6309179706967009,16.185913621262443
0.631914681550882,14.185913621262443
0.6329113924050632,14.185913621262443
0.6339081032592444,12.185913621262443
0.6349048141134256,9.185913621262443
0.6359015249676069,3.1859136212624435
0.6368982358217881,-0.8140863787375565
0.6378949466759692,-5.8140863787375565
0.6388916575301504,-12.814086378737557
0.6398883683843316,-14.814086378737557
0.6408850792385129,-14.814086378737557
0.6418817900926941,-16.814086378737557
0.6428785009468753,-17.814086378737557
0.6438752118010564,-14.814086378737557
0.6448719226552376,-4.8140863787375565
0.6458686335094188,4.1859136212624435
0.6468653443636001,3.1859136212624435
0.6478620552177813,0.18591362126244348
0.6488587660719625,7.1859136212624435
0.6498554769261436,18.185913621262443
0.6508521877803248,19.185913621262443
0.6518488986345061,10.185913621262443
0.6528456094886873,7.1859136212624435
0.6538423203428685,12.185913621262443
0.6548390311970497,8.185913621262443
0.6558357420512309,4.1859136212624435
0.656832452905412,-1.8140863787375565
0.6578291637595933,-10.814086378737557
0.6588258746137745,-6.8140863787375565
0.6598225854679557,-9.814086378737557
0.6608192963221369,-12.814086378737557
0.661816007176318,-7.8140863787375565
0.6628127180304992,-1.8140863787375565
0.6638094288846805,-9.814086378737557
0.6648061397388617,-10.814086378737557
0.6658028505930429,-4.8140863787375565
0.6667995614472241,5.1859136212624435
0.6677962723014053,4.1859136212624435
0.6687929831555866,0.18591362126244348
0.6697896940097677,5.1859136212624435
0.6707864048639489,8.185913621262443
0.6717831157181301,6.1859136212624435
0.6727798265723113,10.185913621262443
0.6737765374264925,12.185913621262443
0.6747732482806738,5.1859136212624435
0.6757699591348549,4.1859136212624435
0.6767666699890361,-0.8140863787375565
0.6777633808432173,1.1859136212624435
0.6787600916973985,2.1859136212624435
0.6797568025515798,-3.8140863787375565
0.680753513405761,-7.8140863787375565
0.6817502242599421,-7.8140863787375565
0.6827469351141233,-11.814086378737557
0.6837436459683045,-11.814086378737557
0.6847403568224857,-8.814086378737557
0.685737067676667,-5.8140863787375565
0.6867337785308482,-4.8140863787375565
0.6877304893850293,4.1859136212624435
0.6887272002392105,1.1859136212624435
0.6897239110933917,6.1859136212624435
0.690720621947573,13.185913621262443
0.6917173328017542,15.185913621262443
0.6927140436559354,15.185913621262443
0.6937107545101165,10.185913621262443
0.6947074653642977,10.185913621262443
0.6957041762184789,6.1859136212624435
0.6967008870726602,1.1859136212624435
0.6976975979268414,-7.8140863787375565
0.6986943087810226,-11.814086378737557
0.6996910196352037,-6.8140863787375565
0.7006877304893849,-11.814086378737557
0.7016844413435661,-19.814086378737557
0.7026811521977474,-15.814086378737557
0.7036778630519286,-11.814086378737557
0.7046745739061098,-7.8140863787375565
0.705671284760291,-4.8140863787375565
0.7066679956144721,-0.8140863787375565
0.7076647064686534,-1.8140863787375565
0.7086614173228346,1.1859136212624435
0.7096581281770158,16.185913621262443
0.710654839031197,21.185913621262443
0.7116515498853782,19.185913621262443
0.7126482607395593,8.185913621262443
0.7136449715937406,1.1859136212624435
0.7146416824479218,7.1859136212624435
0.715638393302103,10.185913621262443
0.7166351041562842,8.185913621262443
0.7176318150104654,10.185913621262443
0.7186285258646467,7.1859136212624435
0.7196252367188278,-7.8140863787375565
0.720621947573009,-23.814086378737557
0.7216186584271902,-29.814086378737557
0.7226153692813714,-20.814086378737557
0.7236120801355526,1.1859136212624435
0.7246087909897339,-11.814086378737557
0.725605501843915,-6.8140863787375565
0.7266022126980962,2.1859136212624435
0.7275989235522774,5.1859136212624435
0.7285956344064586,-1.8140863787375565
0.7295923452606399,4.1859136212624435
0.7305890561148211,17.185913621262443
0.7315857669690022,17.185913621262443
0.7325824778231834,14.185913621262443
0.7335791886773646,11.185913621262443
0.7345758995315458,12.185913621262443
0.7355726103857271,9.185913621262443
0.7365693212399083,6.1859136212624435
0.7375660320940894,-4.8140863787375565
0.7385627429482706,-9.814086378737557
0.7395594538024518,-11.814086378737557
0.7405561646566331,-10.814086378737557
0.7415528755108143,-18.814086378737557
0.7425495863649955,-23.814086378737557
0.7435462972191766,-18.814086378737557
0.7445430080733578,-6.8140863787375565
0.745539718927539,2.1859136212624435
0.7465364297817203,-1.8140863787375565
0.7475331406359015,3.1859136212624435
0.7485298514900827,11.185913621262443
0.7495265623442638,20.185913621262443
0.750523273198445,19.185913621262443
0.7515199840526262,5.1859136212624435
0.7525166949068075,13.185913621262443
0.7535134057609887,11.185913621262443
0.7545101166151699,4.1859136212624435
0.755506827469351,8.185913621262443
0.7565035383235322,13.185913621262443
0.7575002491777135,-3.8140863787375565
0.7584969600318947,-17.814086378737557
0.7594936708860759,-16.814086378737557
0.7604903817402571,-7.8140863787375565
0.7614870925944383,-15.814086378737557
0.7624838034486194,-17.814086378737557
0.7634805143028007,-9.814086378737557
0.7644772251569819,-14.814086378737557
0.7654739360111631,-14.814086378737557
0.7664706468653443,10.185913621262443
0.7674673577195255,6.1859136212624435
0.7684640685737067,7.1859136212624435
0.7694607794278879,11.185913621262443
0.7704574902820691,16.185913621262443
0.7714542011362503,17.185913621262443
0.7724509119904315,8.185913621262443
0.7734476228446127,7.1859136212624435
0.774444333698794,11.185913621262443
0.7754410445529751,6.1859136212624435
0.7764377554071563,-2.8140863787375565
0.7774344662613375,-5.8140863787375565
0.7784311771155187,-7.8140863787375565
0.7794278879697,-1.8140863787375565
0.7804245988238812,-1.8140863787375565
0.7814213096780623,-10.814086378737557
0.7824180205322435,-9.814086378737557
0.7834147313864247,-7.8140863787375565
0.7844114422406059,-4.8140863787375565
0.7854081530947872,-5.8140863787375565
0.7864048639489684,-12.814086378737557
0.7874015748031495,-4.8140863787375565
0.7883982856573307,1.1859136212624435
0.7893949965115119,0.18591362126244348
0.7903917073656931,6.1859136212624435
0.7913884182198744,4.1859136212624435
0.7923851290740556,8.185913621262443
0.7933818399282367,17.185913621262443
0.7943785507824179,17.185913621262443
0.7953752616365991,22.185913621262443
0.7963719724907804,9.185913621262443
0.7973686833449616,0.18591362126244348
0.7983653941991428,-10.814086378737557
0.799362105053324,-12.814086378737557
0.8003588159075051,-7.8140863787375565
0.8013555267616863,-6.8140863787375565
0.8023522376158676,-8.814086378737557
0.8033489484700488,-7.8140863787375565
0.80434565932423,-10.814086378737557
0.8053423701784111,-7.8140863787375565
0.8063390810325923,0.18591362126244348
0.8073357918867736,5.1859136212624435
0.8083325027409548,4.1859136212624435
0.809329213595136,4.1859136212624435
0.8103259244493172,4.1859136212624435
0.8113226353034984,9.185913621262443
0.8123193461576795,13.185913621262443
0.8133160570118608,10.185913621262443
0.814312767866042,10.185913621262443
0.8153094787202232,11.185913621262443
0.8163061895744044,3.1859136212624435
0.8173029004285856,-5.8140863787375565
0.8182996112827668,-9.814086378737557
0.819296322136948,-4.8140863787375565
0.8202930329911292,-1.8140863787375565
0.8212897438453104,-9.814086378737557
0.8222864546994916,-17.814086378737557
0.8232831655536728,-18.814086378737557
0.824279876407854,-11.814086378737557
0.8252765872620352,-4.8140863787375565
0.8262732981162164,-6.8140863787375565
0.8272700089703976,-1.8140863787375565
0.8282667198245788,8.185913621262443
0.8292634306787601,22.185913621262443
0.8302601415329413,23.185913621262443
0.8312568523871224,17.185913621262443
0.8322535632413036,15.185913621262443
0.8332502740954848,5.1859136212624435
0.834246984949666,-2.8140863787375565
0.8352436958038473,11.185913621262443
0.8362404066580285,6.1859136212624435
0.8372371175122096,-6.8140863787375565
0.8382338283663908,-6.8140863787375565
0.839230539220572,-9.814086378737557
0.8402272500747532,-15.814086378737557
0.8412239609289345,-17.814086378737557
0.8422206717831157,-17.814086378737557
0.8432173826372968,-16.814086378737557
0.844214093491478,-5.8140863787375565
0.8452108043456592,-1.8140863787375565
0.8462075151998405,1.1859136212624435
0.8472042260540217,5.1859136212624435
0.8482009369082029,1.1859136212624435
0.849197647762384,4.1859136212624435
0.8501943586165652,15.185913621262443
0.8511910694707464,17.185913621262443
0.8521877803249277,18.185913621262443
0.8531844911791089,11.185913621262443
0.8541812020332901,8.185913621262443
0.8551779128874712,6.1859136212624435
0.8561746237416524,0.18591362126244348
0.8571713345958337,-9.814086378737557
0.8581680454500149,-7.8140863787375565
0.8591647563041961,-9.814086378737557
0.8601614671583773,-10.814086378737557
0.8611581780125585,-7.8140863787375565
0.8621548888667396,-12.814086378737557
0.8631515997209209,-4.8140863787375565
0.8641483105751021,2.1859136212624435
0.8651450214292833,3.1859136212624435
0.8661417322834645,0.18591362126244348
0.8671384431376457,4.1859136212624435
0.868135153991827,4.1859136212624435
0.8691318648460081,6.1859136212624435
0.8701285757001893,5.1859136212624435
0.8711252865543705,2.1859136212624435
0.8721219974085517,3.1859136212624435
0.8731187082627329,12.185913621262443
0.8741154191169141,13.185913621262443
0.8751121299710953,17.185913621262443
0.8761088408252765,1.1859136212624435
0.8771055516794577,-4.8140863787375565
0.8781022625336389,-9.814086378737557
0.8790989733878201,-1.8140863787375565
0.8800956842420014,3.1859136212624435
0.8810923950961825,-14.814086378737557
0.8820891059503637,-19.814086378737557
0.8830858168045449,-16.814086378737557
0.8840825276587261,-8.814086378737557
0.8850792385129074,-0.8140863787375565
0.8860759493670886,-0.8140863787375565
0.8870726602212697,-1.8140863787375565
0.8880693710754509,4.1859136212624435
0.8890660819296321,10.185913621262443
0.8900627927838133,18.185913621262443
0.8910595036379946,12.185913621262443
0.8920562144921758,13.185913621262443
0.8930529253463569,11.185913621262443
0.8940496362005381,5.1859136212624435
0.8950463470547193,-1.8140863787375565
0.8960430579089006,-7.8140863787375565
0.8970397687630818,-10.814086378737557
0.898036479617263,-5.8140863787375565
0.8990331904714441,-10.814086378737557
0.9000299013256253,-11.814086378737557
0.9010266121798065,-11.814086378737557
0.9020233230339878,-13.814086378737557
0.903020033888169,-3.8140863787375565
0.9040167447423502,1.1859136212624435
0.9050134555965313,-0.8140863787375565
0.9060101664507125,-1.8140863787375565
0.9070068773048938,15.185913621262443
0.908003588159075,17.185913621262443
0.9090002990132562,7.1859136212624435
0.9099970098674374,1.1859136212624435
0.9109937207216185,11.185913621262443
0.9119904315757997,12.185913621262443
0.912987142429981,6.1859136212624435
0.9139838532841622,12.185913621262443
0.9149805641383434,11.185913621262443
0.9159772749925246,3.1859136212624435
0.9169739858467058,-3.8140863787375565
0.9179706967008869,-12.814086378737557
0.9189674075550682,-10.814086378737557
0.9199641184092494,-5.8140863787375565
0.9209608292634306,-14.814086378737557
0.9219575401176118,-11.814086378737557
0.922954250971793,-12.814086378737557
0.9239509618259742,-12.814086378737557
0.9249476726801554,-2.8140863787375565
0.9259443835343366,-4.8140863787375565
0.9269410943885178,-3.8140863787375565
0.927937805242699,3.1859136212624435
0.9289345160968802,13.185913621262443
0.9299312269510615,11.185913621262443
0.9309279378052426,1.1859136212624435
0.9319246486594238,19.185913621262443
0.932921359513605,19.185913621262443
0.9339180703677862,12.185913621262443
0.9349147812219675,12.185913621262443
0.9359114920761487,6.1859136212624435
0.9369082029303298,-8.814086378737557
0.937904913784511,-1.8140863787375565
0.9389016246386922,-6.8140863787375565
0.9398983354928734,-13.814086378737557
0.9408950463470547,-12.814086378737557
0.9418917572012359,-2.8140863787375565
0.942888468055417,-3.8140863787375565
0.9438851789095982,-18.814086378737557
0.9448818897637794,-17.814086378737557
0.9458786006179607,-11.814086378737557
0.9468753114721419,3.1859136212624435
0.9478720223263231,10.185913621262443
0.9488687331805042,10.185913621262443
0.9498654440346854,17.185913621262443
0.9508621548888666,13.185913621262443
0.9518588657430479,6.1859136212624435
0.9528555765972291,4.1859136212624435
0.9538522874514103,6.1859136212624435
0.9548489983055914,8.185913621262443
0.9558457091597726,3.1859136212624435
0.9568424200139538,-5.8140863787375565
0.9578391308681351,-14.814086378737557
0.9588358417223163,-25.814086378737557
0.9598325525764975,-8.814086378737557
0.9608292634306786,3.1859136212624435
0.9618259742848598,1.1859136212624435
0.9628226851390411,-0.8140863787375565
0.9638193959932223,2.1859136212624435
0.9648161068474035,7.1859136212624435
0.9658128177015847,-5.8140863787375565
0.9668095285557659,-5.8140863787375565
0.967806239409947,-2.8140863787375565
0.9688029502641283,11.185913621262443
0.9697996611183095,14.185913621262443
0.9707963719724907,16.185913621262443
0.9717930828266719,18.185913621262443
0.972789793680853,4.1859136212624435
0.9737865045350343,-4.8140863787375565
0.9747832153892155,-1.8140863787375565
0.9757799262433967,-2.8140863787375565
0.9767766370975779,-3.8140863787375565
0.9777733479517591,0.18591362126244348
0.9787700588059403,-10.814086378737557
0.9797667696601216,-26.814086378737557
0.9807634805143027,-27.814086378737557
0.9817601913684839,-16.814086378737557
0.9827569022226651,-7.8140863787375565
0.9837536130768463,11.185913621262443
0.9847503239310276,12.185913621262443
0.9857470347852088,10.185913621262443
0.9867437456393899,14.185913621262443
0.9877404564935711,11.185913621262443
0.9887371673477523,8.185913621262443
0.9897338782019335,5.1859136212624435
0.9907305890561148,12.185913621262443
0.991727299910296,10.185913621262443
0.9927240107644771,3.1859136212624435
0.9937207216186583,1.1859136212624435
0.9947174324728395,1.1859136212624435
0.9957141433270208,7.1859136212624435
0.996710854181202,5.1859136212624435
0.9977075650353832,-0.8140863787375565
0.9987042758895643,-3.8140863787375565
0.9997009867437455,-16.814086378737557
1.0006976975979267,-18.814086378737557
1.001694408452108,-17.814086378737557
1.002691119306289,-14.814086378737557
1.0036878301604704,0.18591362126244348
1.0046845410146517,3.1859136212624435
1.0056812518688327,-2.8140863787375565
1.006677962723014,0.18591362126244348
1.007674673577195,1.1859136212624435
1.0086713844313764,7.1859136212624435
1.0096680952855577,15.185913621262443
1.0106648061397387,14.185913621262443
1.01166151699392,9.185913621262443
1.0126582278481011,5.1859136212624435
1.0136549387022824,4.1859136212624435
1.0146516495564635,4.1859136212624435
1.0156483604106448,-0.8140863787375565
1.016645071264826,-6.8140863787375565
1.0176417821190071,-7.8140863787375565
1.0186384929731884,-8.814086378737557
1.0196352038273695,-10.814086378737557
1.0206319146815508,-13.814086378737557
1.021628625535732,-13.814086378737557
1.0226253363899132,-7.8140863787375565
1.0236220472440944,6.1859136212624435
1.0246187580982755,11.185913621262443
1.0256154689524568,-0.8140863787375565
1.026612179806638,3.1859136212624435
1.0276088906608192,10.185913621262443
1.0286056015150005,11.185913621262443
1.0296023123691815,9.185913621262443
1.0305990232233628,8.185913621262443
1.031595734077544,7.1859136212624435
1.0325924449317252,6.1859136212624435
1.0335891557859065,2.1859136212624435
1.0345858666400876,6.1859136212624435
1.0355825774942689,3.1859136212624435
1.03657928834845,-2.8140863787375565
1.0375759992026312,-7.8140863787375565
1.0385727100568125,-16.814086378737557
1.0395694209109936,-20.814086378737557
1.0405661317651749,-15.814086378737557
1.041562842619356,1.1859136212624435
1.0425595534735372,4.1859136212624435
1.0435562643277185,-10.814086378737557
1.0445529751818996,-14.814086378737557
1.045549686036081,-9.814086378737557
1.046546396890262,-2.8140863787375565
1.0475431077444433,7.1859136212624435
1.0485398185986246,12.185913621262443
1.0495365294528056,5.1859136212624435
1.050533240306987,4.1859136212624435
1.051529951161168,17.185913621262443
1.0525266620153493,21.185913621262443
1.0535233728695304,11.185913621262443
1.0545200837237116,-6.8140863787375565
1.055516794577893,-7.8140863787375565
1.056513505432074,9.185913621262443
1.0575102162862553,4.1859136212624435
1.0585069271404364,-8.814086378737557
1.0595036379946177,-7.8140863787375565
1.060500348848799,-11.814086378737557
1.06149705970298,-11.814086378737557
1.0624937705571613,-7.8140863787375565
1.0634904814113424,1.1859136212624435
1.0644871922655237,-2.8140863787375565
1.065483903119705,-13.814086378737557
1.066480613973886,7.1859136212624435
1.0674773248280673,9.185913621262443
1.0684740356822484,-8.814086378737557
1.0694707465364297,6.1859136212624435
1.0704674573906108,27.185913621262443
1.071464168244792,14.185913621262443
1.0724608790989734,4.1859136212624435
1.0734575899531544,8.185913621262443
1.0744543008073357,9.185913621262443
1.0754510116615168,1.1859136212624435
1.076447722515698,8.185913621262443
1.0774444333698794,0.18591362126244348
1.0784411442240605,-7.8140863787375565
1.0794378550782417,-17.814086378737557
1.0804345659324228,-33.81408637873756
1.0814312767866041,-39.81408637873756
1.0824279876407854,-10.814086378737557
1.0834246984949665,2.1859136212624435
1.0844214093491478,-0.8140863787375565
1.0854181202033288,-4.8140863787375565
1.0864148310575101,-6.8140863787375565
1.0874115419116914,10.185913621262443
1.0884082527658725,24.185913621262443
1.0894049636200538,18.185913621262443
1.0904016744742349,8.185913621262443
1.0913983853284162,16.185913621262443
1.0923950961825972,22.185913621262443
1.0933918070367785,7.1859136212624435
1.0943885178909598,16.185913621262443
1.0953852287451409,18.185913621262443
1.0963819395993222,4.1859136212624435
1.0973786504535032,-9.814086378737557
1.0983753613076845,-21.814086378737557
1.0993720721618658,-19.814086378737557
1.100368783016047,-22.814086378737557
1.1013654938702282,-12.814086378737557
1.1023622047244093,-14.814086378737557
1.1033589155785906,-11.814086378737557
1.1043556264327719,-13.814086378737557
1.105352337286953,-9.814086378737557
1.1063490481411342,1.1859136212624435
1.1073457589953153,4.1859136212624435
1.1083424698494966,6.1859136212624435
1.1093391807036777,14.185913621262443
1.110335891557859,28.185913621262443
1.1113326024120402,24.185913621262443
1.1123293132662213,-4.8140863787375565
1.1133260241204026,-1.8140863787375565
1.1143227349745837,8.185913621262443
1.115319445828765,10.185913621262443
1.1163161566829463,-2.8140863787375565
1.1173128675371273,1.1859136212624435
1.1183095783913086,0.18591362126244348
1.1193062892454897,-12.814086378737557
1.120303000099671,-12.814086378737557
1.1212997109538523,-22.814086378737557
1.1222964218080334,-27.814086378737557
1.1232931326622146,-19.814086378737557
1.1242898435163957,16.185913621262443
1.125286554370577,14.185913621262443
1.1262832652247583,7.1859136212624435
1.1272799760789394,-2.8140863787375565
1.1282766869331207,-3.8140863787375565
1.1292733977873017,3.1859136212624435
1.130270108641483,12.185913621262443
1.131266819495664,17.185913621262443
1.1322635303498454,16.185913621262443
1.1332602412040267,12.185913621262443
1.1342569520582078,8.185913621262443
1.135253662912389,-2.8140863787375565
1.1362503737665701,-10.814086378737557
1.1372470846207514,-8.814086378737557
1.1382437954749327,-3.8140863787375565
1.1392405063291138,-8.814086378737557
1.140237217183295,-13.814086378737557
1.1412339280374761,-17.814086378737557
1.1422306388916574,-20.814086378737557
1.1432273497458387,-1.8140863787375565
1.1442240606000198,-1.8140863787375565
1.145220771454201,1.1859136212624435
1.1462174823083822,6.1859136212624435
1.1472141931625635,-0.8140863787375565
1.1482109040167447,6.1859136212624435
1.1492076148709258,12.185913621262443
1.1502043257251071,15.185913621262443
1.1512010365792882,18.185913621262443
1.1521977474334695,12.185913621262443
1.1531944582876505,8.185913621262443
1.1541911691418318,12.185913621262443
1.1551878799960131,9.185913621262443
1.1561845908501942,-5.8140863787375565
1.1571813017043755,-5.8140863787375565
1.1581780125585566,-5.8140863787375565
1.1591747234127379,-16.814086378737557
1.1601714342669192,-23.814086378737557
1.1611681451211002,-18.814086378737557
1.1621648559752815,-4.8140863787375565
1.1631615668294626,-0.8140863787375565
1.1641582776836439,-2.8140863787375565
1.1651549885378252,-12.814086378737557
1.1661516993920062,-2.8140863787375565
1.1671484102461875,19.185913621262443
1.1681451211003686,20.185913621262443
1.16914183195455,19.185913621262443
1.170138542808731,10.185913621262443
1.1711352536629123,9.185913621262443
1.1721319645170936,13.185913621262443
1.1731286753712746,6.1859136212624435
1.174125386225456,-3.8140863787375565
1.175122097079637,-3.8140863787375565
1.1761188079338183,-1.8140863787375565
1.1771155187879996,-3.8140863787375565
1.1781122296421807,-19.814086378737557
1.179108940496362,-15.814086378737557
1.180105651350543,1.1859136212624435
1.1811023622047243,-2.8140863787375565
1.1820990730589056,-6.8140863787375565
1.1830957839130867,-15.814086378737557
1.184092494767268,-4.8140863787375565
1.185089205621449,-1.8140863787375565
1.1860859164756303,4.1859136212624435
1.1870826273298116,10.185913621262443
1.1880793381839927,4.1859136212624435
1.189076049038174,11.185913621262443
1.190072759892355,17.185913621262443
1.1910694707465364,18.185913621262443
1.1920661816007174,8.185913621262443
1.1930628924548987,6.1859136212624435
1.19405960330908,3.1859136212624435
1.195056314163261,-1.8140863787375565
1.1960530250174424,-11.814086378737557
1.1970497358716234,-19.814086378737557
1.1980464467258047,-9.814086378737557
1.199043157579986,-1.8140863787375565
1.200039868434167,-4.8140863787375565
1.2010365792883484,-14.814086378737557
1.2020332901425295,-9.814086378737557
1.2030300009967108,1.1859136212624435
1.204026711850892,4.1859136212624435
1.2050234227050731,-0.8140863787375565
1.2060201335592544,-0.8140863787375565
1.2070168444134355,5.1859136212624435
1.2080135552676168,3.1859136212624435
1.2090102661217978,5.1859136212624435
1.2100069769759791,15.185913621262443
1.2110036878301604,13.185913621262443
1.2120003986843415,12.185913621262443
1.2129971095385228,3.1859136212624435
1.2139938203927039,1.1859136212624435
1.2149905312468852,3.1859136212624435
1.2159872421010665,4.1859136212624435
1.2169839529552475,-3.8140863787375565
1.2179806638094288,-8.814086378737557
1.21897737466361,-20.814086378737557
1.2199740855177912,-20.814086378737557
1.2209707963719725,-6.8140863787375565
1.2219675072261535,-2.8140863787375565
1.2229642180803348,-6.8140863787375565
1.223960928934516,-13.814086378737557
1.2249576397886972,-12.814086378737557
1.2259543506428785,3.1859136212624435
1.2269510614970596,26.185913621262443
1.2279477723512409,26.185913621262443
1.228944483205422,17.185913621262443
1.2299411940596032,11.185913621262443
1.2309379049137843,-3.8140863787375565
1.2319346157679656,-8.814086378737557
1.2329313266221469,0.18591362126244348
1.233928037476328,8.185913621262443
1.2349247483305092,2.1859136212624435
1.2359214591846903,-4.8140863787375565
1.2369181700388716,-9.814086378737557
1.237914880893053,8.185913621262443
1.238911591747234,-1.8140863787375565
1.2399083026014153,-18.814086378737557
1.2409050134555963,-8.814086378737557
1.2419017243097776,5.1859136212624435
1.242898435163959,-0.8140863787375565
1.24389514601814,0.18591362126244348
1.2448918568723213,0.18591362126244348
1.2458885677265024,-2.8140863787375565
1.2468852785806837,-10.814086378737557
1.2478819894348647,-13.814086378737557
1.248878700289046,-14.814086378737557
1.2498754111432273,-0.8140863787375565
1.2508721219974084,41.18591362126244
1.2518688328515897,40.18591362126244
1.2528655437057707,11.185913621262443
1.253862254559952,5.1859136212624435
1.2548589654141333,-2.8140863787375565
1.2558556762683144,7.1859136212624435
1.2568523871224957,17.185913621262443
1.2578490979766768,12.185913621262443
1.258845808830858,-6.8140863787375565
1.2598425196850394,-20.814086378737557
1.2608392305392204,-35.81408637873756
1.2618359413934017,-41.81408637873756
1.2628326522475828,-29.814086378737557
1.263829363101764,-16.814086378737557
1.2648260739559454,-16.814086378737557
1.2658227848101264,-1.8140863787375565
1.2668194956643077,34.18591362126244
1.2678162065184888,44.18591362126244
1.26881291737267,17.185913621262443
1.2698096282268512,10.185913621262443
1.2708063390810325,22.185913621262443
1.2718030499352138,14.185913621262443
1.2727997607893948,6.1859136212624435
1.2737964716435761,-9.814086378737557
1.2747931824977572,-3.8140863787375565
1.2757898933519385,-0.8140863787375565
1.2767866042061198,-15.814086378737557
1.2777833150603009,-30.814086378737557
1.2787800259144821,-19.814086378737557
1.2797767367686632,-13.814086378737557
1.2807734476228445,-8.814086378737557
1.2817701584770258,-6.8140863787375565
1.2827668693312069,31.185913621262443
1.2837635801853882,23.185913621262443
1.2847602910395692,-0.8140863787375565
1.2857570018937505,-19.814086378737557
1.2867537127479316,-9.814086378737557
1.287750423602113,10.185913621262443
1.2887471344562942,25.185913621262443
1.2897438453104753,24.185913621262443
1.2907405561646565,21.185913621262443
1.2917372670188376,11.185913621262443
1.292733977873019,-2.8140863787375565
1.2937306887272002,0.18591362126244348
1.2947273995813813,5.1859136212624435
1.2957241104355626,1.1859136212624435
1.2967208212897436,0.18591362126244348
1.297717532143925,-14.814086378737557
1.2987142429981062,-19.814086378737557
1.2997109538522873,-17.814086378737557
1.3007076647064686,-10.814086378737557
1.3017043755606497,-12.814086378737557
1.302701086414831,-6.8140863787375565
1.3036977972690122,-2.8140863787375565
1.3046945081231933,-3.8140863787375565
1.3056912189773746,-10.814086378737557
1.3066879298315557,1.1859136212624435
1.307684640685737,11.185913621262443
1.308681351539918,24.185913621262443
1.3096780623940993,17.185913621262443
1.3106747732482806,21.185913621262443
1.3116714841024617,14.185913621262443
1.312668194956643,5.1859136212624435
1.313664905810824,-7.8140863787375565
1.3146616166650054,-11.814086378737557
1.3156583275191867,-5.8140863787375565
1.3166550383733677,0.18591362126244348
1.317651749227549,-4.8140863787375565
1.31864846008173,-6.8140863787375565
1.3196451709359114,-11.814086378737557
1.3206418817900927,-17.814086378737557
1.3216385926442737,-22.814086378737557
1.322635303498455,-7.8140863787375565
1.323632014352636,3.1859136212624435
1.3246287252068174,2.1859136212624435
1.3256254360609985,1.1859136212624435
1.3266221469151798,-1.8140863787375565
1.327618857769361,0.18591362126244348
1.3286155686235421,12.185913621262443
1.3296122794777234,18.185913621262443
1.3306089903319045,21.185913621262443
1.3316057011860858,15.185913621262443
1.332602412040267,13.185913621262443
1.3335991228944482,29.185913621262443
1.3345958337486294,20.185913621262443
1.3355925446028105,-0.8140863787375565
1.3365892554569918,-14.814086378737557
1.337585966311173,-23.814086378737557
1.3385826771653542,-25.814086378737557
1.3395793880195355,-19.814086378737557
1.3405760988737165,-28.814086378737557
1.3415728097278978,-17.814086378737557
1.3425695205820791,4.1859136212624435
1.3435662314362602,0.18591362126244348
1.3445629422904415,-7.8140863787375565
1.3455596531446226,-6.8140863787375565
1.3465563639988039,6.1859136212624435
1.347553074852985,24.185913621262443
1.3485497857071662,19.185913621262443
1.3495464965613475,5.1859136212624435
1.3505432074155286,8.185913621262443
1.3515399182697099,6.1859136212624435
1.352536629123891,6.1859136212624435
1.3535333399780722,12.185913621262443
1.3545300508322535,8.185913621262443
1.3555267616864346,-6.8140863787375565
1.356523472540616,-12.814086378737557
1.357520183394797,0.18591362126244348
1.3585168942489783,4.1859136212624435
1.3595136051031596,-8.814086378737557
1.3605103159573406,-12.814086378737557
1.361507026811522,-14.814086378737557
1.362503737665703,-18.814086378737557
1.3635004485198843,-19.814086378737557
1.3644971593740653,-11.814086378737557
1.3654938702282466,-1.8140863787375565
1.366490581082428,0.18591362126244348
1.367487291936609,12.185913621262443
1.3684840027907903,24.185913621262443
1.3694807136449714,14.185913621262443
1.3704774244991527,22.185913621262443
1.371474135353334,23.185913621262443
1.372470846207515,16.185913621262443
1.3734675570616963,15.185913621262443
1.3744642679158774,4.1859136212624435
1.3754609787700587,-9.814086378737557
1.37645768962424,-28.814086378737557
1.377454400478421,-37.81408637873756
1.3784511113326023,-35.81408637873756
1.3794478221867834,-17.814086378737557
1.3804445330409647,-8.814086378737557
1.381441243895146,-4.8140863787375565
1.382437954749327,5.1859136212624435
1.3834346656035084,33.18591362126244
1.3844313764576894,43.18591362126244
1.3854280873118707,12.185913621262443
1.3864247981660518,2.1859136212624435
1.387421509020233,-2.8140863787375565
1.3884182198744144,8.185913621262443
1.3894149307285955,9.185913621262443
1.3904116415827767,2.1859136212624435
1.3914083524369578,0.18591362126244348
1.3924050632911391,8.185913621262443
1.3934017741453204,4.1859136212624435
1.3943984849995015,-3.8140863787375565
1.3953951958536828,-2.8140863787375565
1.3963919067078638,-17.814086378737557
1.3973886175620451,-24.814086378737557
1.3983853284162264,-8.814086378737557
1.3993820392704075,-4.8140863787375565
1.4003787501245888,-0.8140863787375565
1.4013754609787699,1.1859136212624435
1.4023721718329512,-4.8140863787375565
1.4033688826871322,-14.814086378737557
1.4043655935413135,-2.8140863787375565
1.4053623043954948,9.185913621262443
1.4063590152496759,5.1859136212624435
1.4073557261038572,-5.8140863787375565
1.4083524369580382,1.1859136212624435
1.4093491478122195,11.185913621262443
1.4103458586664008,14.185913621262443
1.411342569520582,9.185913621262443
1.4123392803747632,16.185913621262443
1.4133359912289443,13.185913621262443
1.4143327020831256,5.1859136212624435
1.4153294129373069,-3.8140863787375565
1.416326123791488,-5.8140863787375565
1.4173228346456692,-11.814086378737557
1.4183195454998503,-19.814086378737557
1.4193162563540316,-26.814086378737557
1.4203129672082129,-10.814086378737557
1.421309678062394,0.18591362126244348
1.4223063889165752,1.1859136212624435
1.4233030997707563,1.1859136212624435
1.4242998106249376,-7.8140863787375565
1.4252965214791187,3.1859136212624435
1.4262932323333,8.185913621262443
1.4272899431874813,1.1859136212624435
1.4282866540416623,1.1859136212624435
1.4292833648958436,7.1859136212624435
1.4302800757500247,21.185913621262443
1.431276786604206,19.185913621262443
1.4322734974583873,15.185913621262443
1.4332702083125684,4.1859136212624435
1.4342669191667496,1.1859136212624435
1.4352636300209307,-9.814086378737557
1.436260340875112,-17.814086378737557
1.4372570517292933,-13.814086378737557
1.4382537625834744,-2.8140863787375565
1.4392504734376557,-10.814086378737557
1.4402471842918367,-19.814086378737557
1.441243895146018,-12.814086378737557
1.4422406060001993,3.1859136212624435
1.4432373168543804,4.1859136212624435
1.4442340277085617,1.1859136212624435
1.4452307385627428,-1.8140863787375565
1.446227449416924,6.1859136212624435
1.4472241602711051,8.185913621262443
1.4482208711252864,12.185913621262443
1.4492175819794677,13.185913621262443
1.4502142928336488,10.185913621262443
1.45121100368783,7.1859136212624435
1.4522077145420111,11.185913621262443
1.4532044253961924,3.1859136212624435
1.4542011362503737,0.18591362126244348
1.4551978471045548,-0.8140863787375565
1.456194557958736,10.185913621262443
1.4571912688129172,-3.8140863787375565
1.4581879796670985,-24.814086378737557
1.4591846905212797,-34.81408637873756
1.4601814013754608,-20.814086378737557
1.4611781122296421,-11.814086378737557
1.4621748230838232,-4.8140863787375565
1.4631715339380045,-5.8140863787375565
1.4641682447921855,-2.8140863787375565
1.4651649556463668,11.185913621262443
1.4661616665005481,6.1859136212624435
1.4671583773547292,19.185913621262443
1.4681550882089105,25.185913621262443
1.4691517990630916,6.1859136212624435
1.4701485099172729,1.1859136212624435
1.4711452207714542,5.1859136212624435
1.4721419316256352,14.185913621262443
1.4731386424798165,17.185913621262443
1.4741353533339976,3.1859136212624435
1.4751320641881789,10.185913621262443
1.4761287750423602,5.1859136212624435
1.4771254858965412,-13.814086378737557
1.4781221967507225,-23.814086378737557
1.4791189076049036,-22.814086378737557
1.480115618459085,-26.814086378737557
1.4811123293132662,-7.8140863787375565
1.4821090401674473,-0.8140863787375565
1.4831057510216286,-3.8140863787375565
1.4841024618758096,-3.8140863787375565
1.485099172729991,9.185913621262443
1.486095883584172,12.185913621262443
1.4870925944383533,3.1859136212624435
1.4880893052925346,0.18591362126244348
1.4890860161467157,13.185913621262443
1.490082727000897,20.185913621262443
1.491079437855078,26.185913621262443
1.4920761487092593,18.185913621262443
1.4930728595634406,17.185913621262443
1.4940695704176217,2.1859136212624435
1.495066281271803,-14.814086378737557
1.496062992125984,-23.814086378737557
1.4970597029801653,-23.814086378737557
1.4980564138343466,-25.814086378737557
1.4990531246885277,-23.814086378737557
1.500049835542709,-10.814086378737557
1.50104654639689,-3.8140863787375565
1.5020432572510714,-5.8140863787375565
1.5030399681052524,-2.8140863787375565
1.5040366789594337,8.185913621262443
1.505033389813615,16.185913621262443
1.506030100667796,13.185913621262443
1.5070268115219774,9.185913621262443
1.5080235223761584,10.185913621262443
1.5090202332303397,4.1859136212624435
1.510016944084521,16.185913621262443
1.511013654938702,12.185913621262443
1.5120103657928834,14.185913621262443
1.5130070766470645,19.185913621262443
1.5140037875012458,-2.8140863787375565
1.515000498355427,-18.814086378737557
1.5159972092096081,-7.8140863787375565
1.5169939200637894,-5.8140863787375565
1.5179906309179705,-11.814086378737557
1.5189873417721518,-30.814086378737557
1.519984052626333,-27.814086378737557
1.5209807634805141,-14.814086378737557
1.5219774743346954,3.1859136212624435
1.5229741851888765,9.185913621262443
1.5239708960430578,0.18591362126244348
1.5249676068972389,6.1859136212624435
1.5259643177514202,7.1859136212624435
1.5269610286056015,10.185913621262443
1.5279577394597825,15.185913621262443
1.5289544503139638,9.185913621262443
1.529951161168145,13.185913621262443
1.5309478720223262,10.185913621262443
1.5319445828765075,14.185913621262443
1.5329412937306885,16.185913621262443
1.5339380045848698,-1.8140863787375565
1.534934715439051,-5.8140863787375565
1.5359314262932322,-12.814086378737557
1.5369281371474135,-11.814086378737557
1.5379248480015946,-16.814086378737557
1.5389215588557759,-20.814086378737557
1.539918269709957,-23.814086378737557
1.5409149805641382,-5.8140863787375565
1.5419116914183193,-1.8140863787375565
1.5429084022725006,-9.814086378737557
1.5439051131266819,-3.8140863787375565
1.544901823980863,14.185913621262443
1.5458985348350442,15.185913621262443
1.5468952456892253,13.185913621262443
1.5478919565434066,17.185913621262443
1.548888667397588,12.185913621262443
1.549885378251769,26.185913621262443
1.5508820891059503,16.185913621262443
1.5518787999601313,-6.8140863787375565
1.5528755108143126,-21.814086378737557
1.553872221668494,9.185913621262443
1.554868932522675,-3.8140863787375565
1.5558656433768563,-6.8140863787375565
1.5568623542310374,4.1859136212624435
1.5578590650852187,-6.8140863787375565
1.5588557759394,-22.814086378737557
1.559852486793581,-25.814086378737557
1.5608491976477623,-18.814086378737557
1.5618459085019434,-14.814086378737557
1.5628426193561247,11.185913621262443
1.5638393302103057,15.185913621262443
1.564836041064487,14.185913621262443
1.5658327519186683,1.1859136212624435
1.5668294627728494,1.1859136212624435
1.5678261736270307,7.1859136212624435
1.5688228844812118,13.185913621262443
1.569819595335393,22.185913621262443
1.5708163061895744,7.1859136212624435
1.5718130170437554,-21.814086378737557
1.5728097278979367,-17.814086378737557
1.5738064387521178,2.1859136212624435
1.574803149606299,10.185913621262443
1.5757998604604804,8.185913621262443
1.5767965713146614,11.185913621262443
1.5777932821688427,7.1859136212624435
1.5787899930230238,-7.8140863787375565
1.579786703877205,-10.814086378737557
1.5807834147313862,-10.814086378737557
1.5817801255855675,-13.814086378737557
1.5827768364397488,-20.814086378737557
1.5837735472939298,-20.814086378737557
1.5847702581481111,-3.8140863787375565
1.5857669690022922,14.185913621262443
1.5867636798564735,5.1859136212624435
1.5877603907106548,10.185913621262443
1.5887571015648358,13.185913621262443
1.5897538124190171,17.185913621262443
1.5907505232731982,16.185913621262443
1.5917472341273795,18.185913621262443
1.5927439449815608,10.185913621262443
1.5937406558357419,-10.814086378737557
1.5947373666899232,-2.8140863787375565
1.5957340775441042,-3.8140863787375565
1.5967307883982855,-10.814086378737557
1.5977274992524668,-9.814086378737557
1.598724210106648,-6.8140863787375565
1.5997209209608292,-7.8140863787375565
1.6007176318150103,-10.814086378737557
1.6017143426691915,-11.814086378737557
1.6027110535233726,-9.814086378737557
1.603707764377554,-11.814086378737557
1.6047044752317352,-6.8140863787375565
1.6057011860859163,3.1859136212624435
1.6066978969400976,28.185913621262443
1.6076946077942786,35.18591362126244
1.60869131864846,12.185913621262443
1.6096880295026412,-6.8140863787375565
1.6106847403568223,-1.8140863787375565
1.6116814512110036,10.185913621262443
1.6126781620651847,8.185913621262443
1.613674872919366,-6.8140863787375565
1.6146715837735472,-17.814086378737557
1.6156682946277283,-6.8140863787375565
1.6166650054819096,1.1859136212624435
1.6176617163360907,2.1859136212624435
1.618658427190272,-3.8140863787375565
1.619655138044453,3.1859136212624435
1.6206518488986343,-4.8140863787375565
1.6216485597528156,-15.814086378737557
1.6226452706069967,0.18591362126244348
1.623641981461178,3.1859136212624435
1.624638692315359,1.1859136212624435
1.6256354031695404,0.18591362126244348
1.6266321140237217,4.1859136212624435
1.6276288248779027,1.1859136212624435
1.628625535732084,16.185913621262443
1.629622246586265,20.185913621262443
1.6306189574404464,5.1859136212624435
1.6316156682946277,1.1859136212624435
1.6326123791488087,5.1859136212624435
1.63360909000299,0.18591362126244348
1.634605800857171,1.1859136212624435
1.6356025117113524,-7.8140863787375565
1.6365992225655337,-6.8140863787375565
1.6375959334197148,-8.814086378737557
1.638592644273896,-13.814086378737557
1.6395893551280771,-16.814086378737557
1.6405860659822584,-19.814086378737557
1.6415827768364395,-19.814086378737557
1.6425794876906208,6.1859136212624435
1.643576198544802,8.185913621262443
1.6445729093989832,11.185913621262443
1.6455696202531644,15.185913621262443
1.6465663311073455,9.185913621262443
1.6475630419615268,9.185913621262443
1.648559752815708,23.185913621262443
1.6495564636698892,19.185913621262443
1.6505531745240705,0.18591362126244348
1.6515498853782515,-5.8140863787375565
1.6525465962324328,-6.8140863787375565
1.6535433070866141,-5.8140863787375565
1.6545400179407952,-9.814086378737557
1.6555367287949765,-10.814086378737557
1.6565334396491576,-15.814086378737557
1.6575301505033389,-10.814086378737557
1.6585268613575201,1.1859136212624435
1.6595235722117012,10.185913621262443
1.6605202830658825,-4.8140863787375565
1.6615169939200636,-10.814086378737557
1.6625137047742449,-5.8140863787375565
1.663510415628426,-11.814086378737557
1.6645071264826072,4.1859136212624435
1.6655038373367885,2.1859136212624435
1.6665005481909696,10.185913621262443
1.667497259045151,23.185913621262443
1.668493969899332,27.185913621262443
1.6694906807535133,24.185913621262443
1.6704873916076945,10.185913621262443
1.6714841024618756,1.1859136212624435
1.672480813316057,-4.8140863787375565
1.673477524170238,-7.8140863787375565
1.6744742350244193,-9.814086378737557
1.6754709458786006,-11.814086378737557
1.6764676567327816,-27.814086378737557
1.677464367586963,-7.8140863787375565
1.678461078441144,5.1859136212624435
1.6794577892953253,2.1859136212624435
1.6804545001495064,-12.814086378737557
1.6814512110036877,-19.814086378737557
1.682447921857869,-13.814086378737557
1.68344463271205,1.1859136212624435
1.6844413435662313,17.185913621262443
1.6854380544204124,18.185913621262443
1.6864347652745937,7.1859136212624435
1.687431476128775,9.185913621262443
1.688428186982956,18.185913621262443
1.6894248978371373,9.185913621262443
1.6904216086913184,5.1859136212624435
1.6914183195454997,12.185913621262443
1.692415030399681,8.185913621262443
1.693411741253862,3.1859136212624435
1.6944084521080434,-20.814086378737557
1.6954051629622244,5.1859136212624435
1.6964018738164057,-9.814086378737557
1.697398584670587,-15.814086378737557
1.698395295524768,-6.8140863787375565
1.6993920063789494,-10.814086378737557
1.7003887172331305,-18.814086378737557
1.7013854280873117,-13.814086378737557
1.7023821389414928,1.1859136212624435
1.703378849795674,7.1859136212624435
1.7043755606498554,-0.8140863787375565
1.7053722715040365,8.185913621262443
1.7063689823582178,16.185913621262443
1.7073656932123988,14.185913621262443
1.7083624040665801,8.185913621262443
1.7093591149207614,11.185913621262443
1.7103558257749425,14.185913621262443
1.7113525366291238,0.18591362126244348
1.7123492474833049,-11.814086378737557
1.7133459583374862,-11.814086378737557
1.7143426691916674,-13.814086378737557
1.7153393800458485,-9.814086378737557
1.7163360909000298,12.185913621262443
1.7173328017542109,14.185913621262443
1.7183295126083922,3.1859136212624435
1.7193262234625732,-4.8140863787375565
1.7203229343167545,-15.814086378737557
1.7213196451709358,-15.814086378737557
1.722316356025117,-13.814086378737557
1.7233130668792982,-13.814086378737557
1.7243097777334793,6.1859136212624435
1.7253064885876606,22.185913621262443
1.7263031994418419,9.185913621262443
1.727299910296023,-1.8140863787375565
1.7282966211502042,3.1859136212624435
1.7292933320043853,9.185913621262443
1.7302900428585666,3.1859136212624435
1.7312867537127479,-1.8140863787375565
1.732283464566929,17.185913621262443
1.7332801754211102,21.185913621262443
1.7342768862752913,1.1859136212624435
1.7352735971294726,-9.814086378737557
1.736270307983654,-10.814086378737557
1.737267018837835,0.18591362126244348
1.7382637296920163,-5.8140863787375565
1.7392604405461973,-32.81408637873756
1.7402571514003786,-20.814086378737557
1.7412538622545597,-6.8140863787375565
1.742250573108741,-10.814086378737557
1.7432472839629223,-13.814086378737557
1.7442439948171033,-1.8140863787375565
1.7452407056712846,14.185913621262443
1.7462374165254657,25.185913621262443
1.747234127379647,32.18591362126244
1.7482308382338283,17.185913621262443
1.7492275490880094,7.1859136212624435
1.7502242599421907,17.185913621262443
1.7512209707963717,12.185913621262443
1.752217681650553,-0.8140863787375565
1.7532143925047343,-0.8140863787375565
1.7542111033589154,-3.8140863787375565
1.7552078142130967,-19.814086378737557
1.7562045250672778,-9.814086378737557
1.757201235921459,-7.8140863787375565
1.7581979467756401,-12.814086378737557
1.7591946576298214,-18.814086378737557
1.7601913684840027,-27.814086378737557
1.7611880793381838,-16.814086378737557
1.762184790192365,3.1859136212624435
1.7631815010465461,14.185913621262443
1.7641782119007274,21.185913621262443
1.7651749227549087,3.1859136212624435
1.7661716336090898,-6.8140863787375565
1.767168344463271,7.1859136212624435
1.7681650553174522,19.185913621262443
1.7691617661716335,15.185913621262443
1.7701584770258147,10.185913621262443
1.7711551878799958,1.1859136212624435
1.7721518987341771,-2.8140863787375565
1.7731486095883582,-3.8140863787375565
1.7741453204425395,-8.814086378737557
1.7751420312967208,-17.814086378737557
1.7761387421509018,3.1859136212624435
1.7771354530050831,8.185913621262443
1.7781321638592642,3.1859136212624435
1.7791288747134455,-1.8140863787375565
1.7801255855676266,-13.814086378737557
1.7811222964218079,-14.814086378737557
1.7821190072759892,-8.814086378737557
1.7831157181301702,-15.814086378737557
1.7841124289843515,-6.8140863787375565
1.7851091398385326,4.1859136212624435
1.7861058506927139,2.1859136212624435
1.7871025615468952,4.1859136212624435
1.7880992724010762,20.185913621262443
1.7890959832552575,30.185913621262443
1.7900926941094386,14.185913621262443
1.79108940496362,12.185913621262443
1.7920861158178012,9.185913621262443
1.7930828266719823,5.1859136212624435
1.7940795375261636,7.1859136212624435
1.7950762483803446,9.185913621262443
1.796072959234526,-14.814086378737557
1.797069670088707,-38.81408637873756
1.7980663809428883,-23.814086378737557
1.7990630917970696,-11.814086378737557
1.8000598026512507,-6.8140863787375565
1.801056513505432,-14.814086378737557
1.802053224359613,-20.814086378737557
1.8030499352137943,-6.8140863787375565
1.8040466460679756,17.185913621262443
1.8050433569221567,17.185913621262443
1.806040067776338,10.185913621262443
1.807036778630519,21.185913621262443
1.8080334894847003,32.18591362126244
1.8090302003388816,6.1859136212624435
1.8100269111930627,-6.8140863787375565
1.811023622047244,4.1859136212624435
1.812020332901425,19.185913621262443
1.8130170437556064,14.185913621262443
1.8140137546097876,6.1859136212624435
1.8150104654639687,-10.814086378737557
1.81600717631815,-20.814086378737557
1.817003887172331,-15.814086378737557
1.8180005980265124,-25.814086378737557
1.8189973088806934,-19.814086378737557
1.8199940197348747,-10.814086378737557
1.820990730589056,-8.814086378737557
1.821987441443237,-4.8140863787375565
1.8229841522974184,-6.8140863787375565
1.8239808631515995,-2.8140863787375565
1.8249775740057808,4.1859136212624435
1.825974284859962,7.1859136212624435
1.8269709957141431,13.185913621262443
1.8279677065683244,22.185913621262443
1.8289644174225055,20.185913621262443
1.8299611282766868,13.185913621262443
1.830957839130868,1.1859136212624435
1.8319545499850491,8.185913621262443
1.8329512608392304,5.1859136212624435
1.8339479716934115,-8.814086378737557
1.8349446825475928,-8.814086378737557
1.8359413934017739,-4.8140863787375565
1.8369381042559552,16.185913621262443
1.8379348151101365,4.1859136212624435
1.8389315259643175,-12.814086378737557
1.8399282368184988,-22.814086378737557
1.84092494767268,-23.814086378737557
1.8419216585268612,-11.814086378737557
1.8429183693810425,-1.8140863787375565
1.8439150802352235,10.185913621262443
1.8449117910894048,12.185913621262443
1.845908501943586,11.185913621262443
1.8469052127977672,8.185913621262443
1.8479019236519485,7.1859136212624435
1.8488986345061296,13.185913621262443
1.8498953453603109,6.1859136212624435
1.850892056214492,16.185913621262443
1.8518887670686732,21.185913621262443
1.8528854779228545,2.1859136212624435
1.8538821887770356,-12.814086378737557
1.8548788996312169,-4.8140863787375565
1.855875610485398,-10.814086378737557
1.8568723213395792,-17.814086378737557
1.8578690321937603,-18.814086378737557
1.8588657430479416,-15.814086378737557
1.859862453902123,-25.814086378737557
1.860859164756304,-17.814086378737557
1.8618558756104853,-6.8140863787375565
1.8628525864646663,-1.8140863787375565
1.8638492973188476,11.185913621262443
1.864846008173029,12.185913621262443
1.86584271902721,14.185913621262443
1.8668394298813913,19.185913621262443
1.8678361407355724,23.185913621262443
1.8688328515897537,16.185913621262443
1.869829562443935,9.185913621262443
1.870826273298116,1.1859136212624435
1.8718229841522973,-2.8140863787375565
1.8728196950064784,-9.814086378737557
1.8738164058606597,-8.814086378737557
1.8748131167148407,-5.8140863787375565
1.875809827569022,5.1859136212624435
1.8768065384232033,5.1859136212624435
1.8778032492773844,-9.814086378737557
1.8787999601315657,-7.8140863787375565
1.8797966709857468,5.1859136212624435
1.880793381839928,-3.8140863787375565
1.8817900926941094,-8.814086378737557
1.8827868035482904,-12.814086378737557
1.8837835144024717,-1.8140863787375565
1.8847802252566528,6.1859136212624435
1.885776936110834,6.1859136212624435
1.8867736469650154,9.185913621262443
1.8877703578191964,5.1859136212624435
1.8887670686733777,7.1859136212624435
1.8897637795275588,1.1859136212624435
1.89076049038174,4.1859136212624435
1.8917572012359214,5.1859136212624435
1.8927539120901025,4.1859136212624435
1.8937506229442838,0.18591362126244348
1.8947473337984648,-6.8140863787375565
1.8957440446526461,-7.8140863787375565
1.8967407555068272,-4.8140863787375565
1.8977374663610085,-0.8140863787375565
1.8987341772151898,-3.8140863787375565
1.8997308880693708,-6.8140863787375565
1.9007275989235521,-6.8140863787375565
1.9017243097777332,-7.8140863787375565
1.9027210206319145,-14.814086378737557
1.9037177314860958,-14.814086378737557
1.9047144423402769,4.1859136212624435
1.9057111531944582,22.185913621262443
1.9067078640486392,26.185913621262443
1.9077045749028205,6.1859136212624435
1.9087012857570018,-7.8140863787375565
1.909697996611183,1.1859136212624435
1.9106947074653642,14.185913621262443
1.9116914183195453,22.185913621262443
1.9126881291737265,13.185913621262443
1.9136848400279076,-0.8140863787375565
1.914681550882089,-12.814086378737557
1.9156782617362702,-4.8140863787375565
1.9166749725904513,-5.8140863787375565
1.9176716834446326,-14.814086378737557
1.9186683942988136,-14.814086378737557
1.919665105152995,-14.814086378737557
1.9206618160071762,-13.814086378737557
1.9216585268613573,-19.814086378737557
1.9226552377155386,-9.814086378737557
1.9236519485697197,10.185913621262443
1.924648659423901,8.185913621262443
1.9256453702780822,2.1859136212624435
1.9266420811322633,3.1859136212624435
1.9276387919864446,5.1859136212624435
1.9286355028406257,25.185913621262443
1.929632213694807,21.185913621262443
1.9306289245489883,12.185913621262443
1.9316256354031693,18.185913621262443
1.9326223462573506,6.1859136212624435
1.9336190571115317,-7.8140863787375565
1.934615767965713,0.18591362126244348
1.935612478819894,-2.8140863787375565
1.9366091896740754,-9.814086378737557
1.9376059005282567,-19.814086378737557
1.9386026113824377,-24.814086378737557
1.939599322236619,-21.814086378737557
1.9405960330908,-16.814086378737557
1.9415927439449814,12.185913621262443
1.9425894547991627,7.1859136212624435
1.9435861656533437,4.1859136212624435
1.944582876507525,-0.8140863787375565
1.945579587361706,5.1859136212624435
1.9465762982158874,-4.8140863787375565
1.9475730090700687,-1.8140863787375565
1.9485697199242498,20.185913621262443
1.949566430778431,32.18591362126244
1.9505631416326121,17.185913621262443
1.9515598524867934,5.1859136212624435
1.9525565633409747,2.1859136212624435
1.9535532741951558,-2.8140863787375565
1.954549985049337,-10.814086378737557
1.9555466959035182,-5.8140863787375565
1.9565434067576994,1.1859136212624435
1.9575401176118805,-4.8140863787375565
1.9585368284660618,-13.814086378737557
1.959533539320243,-14.814086378737557
1.9605302501744242,-3.8140863787375565
1.9615269610286055,-1.8140863787375565
1.9625236718827865,-7.8140863787375565
1.9635203827369678,-5.8140863787375565
1.9645170935911491,3.1859136212624435
1.9655138044453302,12.185913621262443
1.9665105152995115,16.185913621262443
1.9675072261536926,12.185913621262443
1.9685039370078738,2.1859136212624435
1.9695006478620551,-0.8140863787375565
1.9704973587162362,3.1859136212624435
1.9714940695704175,1.1859136212624435
1.9724907804245986,1.1859136212624435
1.9734874912787799,-5.8140863787375565
1.974484202132961,-2.8140863787375565
1.9754809129871422,-5.8140863787375565
1.9764776238413235,-14.814086378737557
1.9774743346955046,-15.814086378737557
1.978471045549686,2.1859136212624435
1.979467756403867,3.1859136212624435
1.9804644672580483,-2.8140863787375565
1.9814611781122295,-5.8140863787375565
1.9824578889664106,-2.8140863787375565
1.983454599820592,5.1859136212624435
1.984451310674773,-4.8140863787375565
1.9854480215289543,-4.8140863787375565
1.9864447323831356,9.185913621262443
1.9874414432373166,14.185913621262443
1.988438154091498,20.185913621262443
1.989434864945679,12.185913621262443
1.9904315757998603,8.185913621262443
1.9914282866540416,15.185913621262443
1.9924249975082227,11.185913621262443
1.993421708362404,-1.8140863787375565
1.994418419216585,-13.814086378737557
1.9954151300707663,-11.814086378737557
1.9964118409249474,-11.814086378737557
1.9974085517791287,-17.814086378737557
1.99840526263331,-2.8140863787375565
1.999401973487491,-7.8140863787375565
2.0003986843416723,-0.8140863787375565
2.0013953951958534,4.1859136212624435
2.0023921060500345,-0.8140863787375565
2.003388816904216,2.1859136212624435
2.004385527758397,1.1859136212624435
2.005382238612578,-7.8140863787375565
2.0063789494667597,3.1859136212624435
2.0073756603209407,20.185913621262443
2.008372371175122,21.185913621262443
2.0093690820293033,14.185913621262443
2.0103657928834844,5.1859136212624435
2.0113625037376655,5.1859136212624435
2.0123592145918465,-3.8140863787375565
2.013355925446028,-10.814086378737557
2.014352636300209,-13.814086378737557
2.01534934715439,-12.814086378737557
2.0163460580085717,-13.814086378737557
2.0173427688627528,-11.814086378737557
2.018339479716934,-6.8140863787375565
2.0193361905711154,-14.814086378737557
2.0203329014252964,-2.8140863787375565
2.0213296122794775,11.185913621262443
2.0223263231336586,7.1859136212624435
2.02332303398784,6.1859136212624435
2.024319744842021,13.185913621262443
2.0253164556962022,7.1859136212624435
2.0263131665503837,7.1859136212624435
2.027309877404565,17.185913621262443
2.028306588258746,9.185913621262443
2.029303299112927,0.18591362126244348
2.0303000099671085,-9.814086378737557
2.0312967208212895,-10.814086378737557
2.0322934316754706,5.1859136212624435
2.033290142529652,-1.8140863787375565
2.034286853383833,4.1859136212624435
2.0352835642380143,3.1859136212624435
2.036280275092196,-16.814086378737557
2.037276985946377,-16.814086378737557
2.038273696800558,-5.8140863787375565
2.039270407654739,-17.814086378737557
2.0402671185089205,2.1859136212624435
2.0412638293631016,37.18591362126244
2.0422605402172826,25.185913621262443
2.043257251071464,-10.814086378737557
2.0442539619256452,-11.814086378737557
2.0452506727798263,-10.814086378737557
2.0462473836340074,3.1859136212624435
2.047244094488189,18.185913621262443
2.04824080534237,14.185913621262443
2.049237516196551,-10.814086378737557
2.0502342270507325,-1.8140863787375565
2.0512309379049136,8.185913621262443
2.0522276487590947,20.185913621262443
2.053224359613276,8.185913621262443
2.0542210704674573,-23.814086378737557
2.0552177813216383,-20.814086378737557
2.0562144921758194,-6.8140863787375565
2.057211203030001,-2.8140863787375565
2.058207913884182,-4.8140863787375565
2.059204624738363,-0.8140863787375565
2.0602013355925446,-15.814086378737557
2.0611980464467257,-7.8140863787375565
2.0621947573009067,3.1859136212624435
2.063191468155088,1.1859136212624435
2.0641881790092693,-6.8140863787375565
2.0651848898634504,1.1859136212624435
2.0661816007176315,4.1859136212624435
2.067178311571813,18.185913621262443
2.068175022425994,16.185913621262443
2.069171733280175,15.185913621262443
2.0701684441343566,10.185913621262443
2.0711651549885377,3.1859136212624435
2.0721618658427188,-7.8140863787375565
2.0731585766969,-14.814086378737557
2.0741552875510814,-4.8140863787375565
2.0751519984052624,4.1859136212624435
2.0761487092594435,-2.8140863787375565
2.077145420113625,-13.814086378737557
2.078142130967806,-22.814086378737557
2.079138841821987,-16.814086378737557
2.0801355526761687,-13.814086378737557
2.0811322635303497,-2.8140863787375565
2.082128974384531,-7.8140863787375565
2.083125685238712,3.1859136212624435
2.0841223960928934,23.185913621262443
2.0851191069470745,29.185913621262443
2.0861158178012555,56.18591362126244
2.087112528655437,33.18591362126244
2.088109239509618,3.1859136212624435
2.089105950363799,-17.814086378737557
2.0901026612179803,-11.814086378737557
2.091099372072162,-0.8140863787375565
2.092096082926343,-9.814086378737557
2.093092793780524,-6.8140863787375565
2.0940895046347054,-24.814086378737557
2.0950862154888865,-10.814086378737557
2.0960829263430676,-7.8140863787375565
2.097079637197249,-7.8140863787375565
2.09807634805143,-7.8140863787375565
2.0990730589056112,-5.8140863787375565
2.1000697697597923,6.1859136212624435
2.101066480613974,0.18591362126244348
2.102063191468155,-5.8140863787375565
2.103059902322336,1.1859136212624435
2.1040566131765175,8.185913621262443
2.1050533240306986,6.1859136212624435
2.1060500348848796,4.1859136212624435
2.1070467457390607,4.1859136212624435
2.108043456593242,9.185913621262443
2.1090401674474233,5.1859136212624435
2.1100368783016044,4.1859136212624435
2.111033589155786,16.185913621262443
2.112030300009967,15.185913621262443
2.113027010864148,10.185913621262443
2.1140237217183295,-2.8140863787375565
2.1150204325725106,-21.814086378737557
2.1160171434266917,-15.814086378737557
2.1170138542808727,-8.814086378737557
2.1180105651350543,-1.8140863787375565
2.1190072759892353,4.1859136212624435
2.1200039868434164,-9.814086378737557
2.121000697697598,-18.814086378737557
2.121997408551779,-24.814086378737557
2.12299411940596,-10.814086378737557
2.123990830260141,16.185913621262443
2.1249875411143226,21.185913621262443
2.1259842519685037,14.185913621262443
2.126980962822685,17.185913621262443
2.1279776736768663,24.185913621262443
2.1289743845310474,6.1859136212624435
2.1299710953852284,0.18591362126244348
2.13096780623941,-3.8140863787375565
2.131964517093591,-6.8140863787375565
2.132961227947772,-6.8140863787375565
2.133957938801953,-1.8140863787375565
2.1349546496561347,-5.8140863787375565
2.1359513605103158,-10.814086378737557
2.136948071364497,-15.814086378737557
2.1379447822186783,-21.814086378737557
2.1389414930728594,-23.814086378737557
2.1399382039270405,-0.8140863787375565
2.1409349147812216,6.1859136212624435
2.141931625635403,6.1859136212624435
2.142928336489584,14.185913621262443
2.143925047343765,1.1859136212624435
2.1449217581979467,-11.814086378737557
2.145918469052128,-0.8140863787375565
2.146915179906309,8.185913621262443
2.1479118907604904,10.185913621262443
2.1489086016146715,33.18591362126244
2.1499053124688525,29.185913621262443
2.1509020233230336,34.18591362126244
2.151898734177215,26.185913621262443
2.152895445031396,1.1859136212624435
2.1538921558855773,-18.814086378737557
2.1548888667397588,-28.814086378737557
2.15588557759394,-26.814086378737557
2.156882288448121,-22.814086378737557
2.1578789993023024,-16.814086378737557
2.1588757101564835,-6.8140863787375565
2.1598724210106646,-7.8140863787375565
2.1608691318648456,-1.8140863787375565
2.161865842719027,-3.8140863787375565
2.1628625535732082,0.18591362126244348
2.1638592644273893,-11.814086378737557
2.164855975281571,-8.814086378737557
2.165852686135752,18.185913621262443
2.166849396989933,32.18591362126244
2.167846107844114,24.185913621262443
2.1688428186982955,7.1859136212624435
2.1698395295524766,12.185913621262443
2.1708362404066577,8.185913621262443
2.171832951260839,8.185913621262443
2.1728296621150203,0.18591362126244348
2.1738263729692013,1.1859136212624435
2.174823083823383,-6.8140863787375565
2.175819794677564,-11.814086378737557
2.176816505531745,-17.814086378737557
2.177813216385926,-32.81408637873756
2.1788099272401076,-27.814086378737557
2.1798066380942887,-1.8140863787375565
2.1808033489484697,0.18591362126244348
2.1818000598026512,0.18591362126244348
2.1827967706568323,0.18591362126244348
2.1837934815110134,-3.8140863787375565
2.1847901923651945,-4.8140863787375565
2.185786903219376,8.185913621262443
2.186783614073557,22.185913621262443
2.187780324927738,29.185913621262443
2.1887770357819196,20.185913621262443
2.1897737466361007,14.185913621262443
2.1907704574902818,12.185913621262443
2.1917671683444633,4.1859136212624435
2.1927638791986444,-16.814086378737557
2.1937605900528254,-19.814086378737557
2.1947573009070065,-8.814086378737557
2.195754011761188,-4.8140863787375565
2.196750722615369,-14.814086378737557
2.19774743346955,-14.814086378737557
2.1987441443237317,-13.814086378737557
2.1997408551779127,-4.8140863787375565
2.200737566032094,5.1859136212624435
2.201734276886275,-0.8140863787375565
2.2027309877404564,4.1859136212624435
2.2037276985946375,4.1859136212624435
2.2047244094488185,6.1859136212624435
2.205721120303,5.1859136212624435
2.206717831157181,9.185913621262443
2.207714542011362,12.185913621262443
2.2087112528655437,13.185913621262443
2.2097079637197248,12.185913621262443
2.210704674573906,12.185913621262443
2.211701385428087,6.1859136212624435
2.2126980962822684,-10.814086378737557
2.2136948071364495,1.1859136212624435
2.2146915179906306,-7.8140863787375565
2.215688228844812,-18.814086378737557
2.216684939698993,-25.814086378737557
2.2176816505531742,-21.814086378737557
2.2186783614073553,-18.814086378737557
2.219675072261537,-4.8140863787375565
2.220671783115718,7.1859136212624435
2.221668493969899,3.1859136212624435
2.2226652048240805,6.1859136212624435
2.2236619156782615,8.185913621262443
2.2246586265324426,14.185913621262443
2.225655337386624,13.185913621262443
2.226652048240805,6.1859136212624435
2.2276487590949863,7.1859136212624435
2.2286454699491673,7.1859136212624435
2.229642180803349,1.1859136212624435
2.23063889165753,8.185913621262443
2.231635602511711,2.1859136212624435
2.2326323133658925,0.18591362126244348
2.2336290242200736,-13.814086378737557
2.2346257350742547,-13.814086378737557
2.235622445928436,-8.814086378737557
2.2366191567826172,1.1859136212624435
2.2376158676367983,12.185913621262443
2.2386125784909794,11.185913621262443
2.239609289345161,-7.8140863787375565
2.240606000199342,-27.814086378737557
2.241602711053523,-30.814086378737557
2.2425994219077046,-5.8140863787375565
2.2435961327618856,8.185913621262443
2.2445928436160667,21.185913621262443
2.2455895544702478,17.185913621262443
2.2465862653244293,2.1859136212624435
2.2475829761786104,6.1859136212624435
2.2485796870327914,10.185913621262443
2.249576397886973,19.185913621262443
2.250573108741154,25.185913621262443
2.251569819595335,17.185913621262443
2.2525665304495166,-2.8140863787375565
2.2535632413036977,-7.8140863787375565
2.2545599521578787,-1.8140863787375565
2.25555666301206,-16.814086378737557
2.2565533738662413,-38.81408637873756
2.2575500847204224,-32.81408637873756
2.2585467955746035,-23.814086378737557
2.259543506428785,-10.814086378737557
2.260540217282966,13.185913621262443
2.261536928137147,10.185913621262443
2.262533638991328,11.185913621262443
2.2635303498455097,3.1859136212624435
2.264527060699691,-2.8140863787375565
2.265523771553872,1.1859136212624435
2.2665204824080534,10.185913621262443
2.2675171932622344,22.185913621262443
2.2685139041164155,20.185913621262443
2.269510614970597,16.185913621262443
2.270507325824778,0.18591362126244348
2.271504036678959,3.1859136212624435
2.2725007475331402,12.185913621262443
2.2734974583873218,-5.8140863787375565
2.274494169241503,-17.814086378737557
2.275490880095684,-9.814086378737557
2.2764875909498654,-11.814086378737557
2.2774843018040465,-20.814086378737557
2.2784810126582276,-29.814086378737557
2.2794777235124086,-18.814086378737557
2.28047443436659,-9.814086378737557
2.281471145220771,-2.8140863787375565
2.2824678560749523,5.1859136212624435
2.283464566929134,14.185913621262443
2.284461277783315,9.185913621262443
2.285457988637496,17.185913621262443
2.2864546994916775,21.185913621262443
2.2874514103458585,11.185913621262443
2.2884481212000396,4.1859136212624435
2.2894448320542207,16.185913621262443
2.290441542908402,18.185913621262443
2.2914382537625833,0.18591362126244348
2.2924349646167643,-13.814086378737557
2.293431675470946,-12.814086378737557
2.294428386325127,1.1859136212624435
2.295425097179308,6.1859136212624435
2.2964218080334895,3.1859136212624435
2.2974185188876706,-4.8140863787375565
2.2984152297418516,-19.814086378737557
2.2994119405960327,-19.814086378737557
2.3004086514502142,-12.814086378737557
2.3014053623043953,-3.8140863787375565
2.3024020731585764,1.1859136212624435
2.303398784012758,15.185913621262443
2.304395494866939,11.185913621262443
2.30539220572112,4.1859136212624435
2.306388916575301,0.18591362126244348
2.3073856274294826,5.1859136212624435
2.3083823382836637,6.1859136212624435
2.3093790491378448,5.1859136212624435
2.3103757599920263,7.1859136212624435
2.3113724708462073,3.1859136212624435
2.3123691817003884,7.1859136212624435
2.31336589255457,12.185913621262443
2.314362603408751,-8.814086378737557
2.315359314262932,-19.814086378737557
2.316356025117113,-18.814086378737557
2.3173527359712947,-10.814086378737557
2.3183494468254757,-10.814086378737557
2.319346157679657,-15.814086378737557
2.3203428685338383,-19.814086378737557
2.3213395793880194,-11.814086378737557
2.3223362902422005,18.185913621262443
2.3233330010963815,32.18591362126244
2.324329711950563,26.185913621262443
2.325326422804744,8.185913621262443
2.326323133658925,-4.8140863787375565
2.3273198445131067,3.1859136212624435
2.3283165553672878,12.185913621262443
2.329313266221469,8.185913621262443
2.3303099770756504,10.185913621262443
2.3313066879298314,4.1859136212624435
2.3323033987840125,-5.8140863787375565
2.3333001096381936,-11.814086378737557
2.334296820492375,-14.814086378737557
2.335293531346556,-23.814086378737557
2.336290242200737,-19.814086378737557
2.3372869530549187,-17.814086378737557
2.3382836639091,-15.814086378737557
2.339280374763281,-1.8140863787375565
2.340277085617462,-0.8140863787375565
2.3412737964716435,8.185913621262443
2.3422705073258245,29.185913621262443
2.3432672181800056,24.185913621262443
2.344263929034187,8.185913621262443
2.345260639888368,-6.8140863787375565
2.3462573507425493,-11.814086378737557
2.347254061596731,-7.8140863787375565
2.348250772450912,-1.8140863787375565
2.349247483305093,9.185913621262443
2.350244194159274,25.185913621262443
2.3512409050134555,18.185913621262443
2.3522376158676366,8.185913621262443
2.3532343267218176,9.185913621262443
2.354231037575999,-3.8140863787375565
2.3552277484301802,-24.814086378737557
2.3562244592843613,-29.814086378737557
2.3572211701385424,-23.814086378737557
2.358217880992724,-14.814086378737557
2.359214591846905,-8.814086378737557
2.360211302701086,-2.8140863787375565
2.3612080135552675,6.1859136212624435
2.3622047244094486,20.185913621262443
2.3632014352636297,16.185913621262443
2.364198146117811,6.1859136212624435
2.3651948569719923,-1.8140863787375565
2.3661915678261733,-1.8140863787375565
2.3671882786803544,-2.8140863787375565
2.368184989534536,17.185913621262443
2.369181700388717,25.185913621262443
2.370178411242898,17.185913621262443
2.3711751220970796,6.1859136212624435
2.3721718329512607,-2.8140863787375565
2.3731685438054417,-21.814086378737557
2.3741652546596232,4.1859136212624435
2.3751619655138043,-4.8140863787375565
2.3761586763679854,-12.814086378737557
2.3771553872221665,-14.814086378737557
2.378152098076348,-15.814086378737557
2.379148808930529,-10.814086378737557
2.38014551978471,-2.8140863787375565
2.3811422306388916,-6.8140863787375565
2.3821389414930727,-6.8140863787375565
2.3831356523472538,1.1859136212624435
2.384132363201435,5.1859136212624435
2.3851290740556164,13.185913621262443
2.3861257849097974,20.185913621262443
2.3871224957639785,35.18591362126244
2.38811920661816,20.185913621262443
2.389115917472341,-1.8140863787375565
2.390112628326522,-12.814086378737557
2.3911093391807037,-3.8140863787375565
2.3921060500348847,4.1859136212624435
2.393102760889066,-11.814086378737557
2.394099471743247,-20.814086378737557
2.3950961825974284,-8.814086378737557
2.3960928934516095,0.18591362126244348
2.3970896043057905,-2.8140863787375565
2.398086315159972,-16.814086378737557
2.399083026014153,-16.814086378737557
2.400079736868334,-3.8140863787375565
2.4010764477225153,-4.8140863787375565
2.402073158576697,12.185913621262443
2.403069869430878,14.185913621262443
2.404066580285059,8.185913621262443
2.4050632911392404,14.185913621262443
2.4060600019934215,10.185913621262443
2.4070567128476026,4.1859136212624435
2.408053423701784,3.1859136212624435
2.409050134555965,4.1859136212624435
2.4100468454101462,1.1859136212624435
2.4110435562643273,8.185913621262443
2.412040267118509,-1.8140863787375565
2.41303697797269,-2.8140863787375565
2.414033688826871,1.1859136212624435
2.4150303996810525,-1.8140863787375565
2.4160271105352336,-12.814086378737557
2.4170238213894146,-27.814086378737557
2.4180205322435957,-18.814086378737557
2.419017243097777,-3.8140863787375565
2.4200139539519583,1.1859136212624435
2.4210106648061394,1.1859136212624435
2.422007375660321,14.185913621262443
2.423004086514502,20.185913621262443
2.424000797368683,9.185913621262443
2.4249975082228645,-5.8140863787375565
2.4259942190770456,11.185913621262443
2.4269909299312267,12.185913621262443
2.4279876407854077,-8.814086378737557
2.4289843516395893,-3.8140863787375565
2.4299810624937703,0.18591362126244348
2.4309777733479514,-1.8140863787375565
2.431974484202133,3.1859136212624435
2.432971195056314,6.1859136212624435
2.433967905910495,4.1859136212624435
2.434964616764676,-3.8140863787375565
2.4359613276188576,-23.814086378737557
2.4369580384730387,-26.814086378737557
2.43795474932722,-15.814086378737557
2.4389514601814013,-7.8140863787375565
2.4399481710355824,-1.8140863787375565
2.4409448818897634,-4.8140863787375565
2.441941592743945,5.1859136212624435
2.442938303598126,10.185913621262443
2.443935014452307,14.185913621262443
2.444931725306488,14.185913621262443
2.4459284361606697,17.185913621262443
2.4469251470148508,16.185913621262443
2.447921857869032,6.1859136212624435
2.4489185687232133,11.185913621262443
2.4499152795773944,7.1859136212624435
2.4509119904315755,12.185913621262443
2.451908701285757,5.1859136212624435
2.452905412139938,-7.8140863787375565
2.453902122994119,-11.814086378737557
2.4548988338483,-9.814086378737557
2.4558955447024817,-15.814086378737557
2.456892255556663,-15.814086378737557
2.457888966410844,-10.814086378737557
2.4588856772650254,-5.8140863787375565
2.4598823881192065,-4.8140863787375565
2.4608790989733875,-7.8140863787375565
2.4618758098275686,0.18591362126244348
2.46287252068175,-2.8140863787375565
2.463869231535931,-11.814086378737557
2.4648659423901123,-1.8140863787375565
2.4658626532442938,15.185913621262443
2.466859364098475,40.18591362126244
2.467856074952656,20.185913621262443
2.4688527858068374,12.185913621262443
2.4698494966610185,-2.8140863787375565
2.4708462075151996,21.185913621262443
2.4718429183693806,23.185913621262443
2.472839629223562,8.185913621262443
2.4738363400777432,-10.814086378737557
2.4748330509319243,-23.814086378737557
2.475829761786106,-20.814086378737557
2.476826472640287,-10.814086378737557
2.477823183494468,-2.8140863787375565
2.478819894348649,-13.814086378737557
2.4798166052028305,-17.814086378737557
2.4808133160570116,-22.814086378737557
2.4818100269111927,-7.8140863787375565
2.482806737765374,-1.8140863787375565
2.4838034486195553,0.18591362126244348
2.4848001594737363,18.185913621262443
2.485796870327918,26.185913621262443
2.486793581182099,26.185913621262443
2.48779029203628,2.1859136212624435
2.488787002890461,1.1859136212624435
2.4897837137446426,17.185913621262443
2.4907804245988237,5.1859136212624435
2.4917771354530047,-10.814086378737557
2.4927738463071862,-3.8140863787375565
2.4937705571613673,-4.8140863787375565
2.4947672680155484,-11.814086378737557
2.4957639788697294,-15.814086378737557
2.496760689723911,-20.814086378737557
2.497757400578092,-11.814086378737557
2.498754111432273,-0.8140863787375565
2.4997508222864546,-3.8140863787375565
2.5007475331406357,2.1859136212624435
2.5017442439948168,10.185913621262443
2.5027409548489983,15.185913621262443
2.5037376657031793,16.185913621262443
2.5047343765573604,11.185913621262443
2.5057310874115415,5.1859136212624435
2.506727798265723,5.1859136212624435
2.507724509119904,2.1859136212624435
2.508721219974085,21.185913621262443
2.5097179308282667,18.185913621262443
2.5107146416824477,-2.8140863787375565
2.511711352536629,-10.814086378737557
2.51270806339081,-14.814086378737557
2.5137047742449914,-23.814086378737557
2.5147014850991725,-6.8140863787375565
2.5156981959533535,7.1859136212624435
2.516694906807535,2.1859136212624435
2.517691617661716,-2.8140863787375565
2.518688328515897,-13.814086378737557
2.5196850393700787,-7.8140863787375565
2.5206817502242598,-11.814086378737557
2.521678461078441,-6.8140863787375565
2.522675171932622,-7.8140863787375565
2.5236718827868034,-5.8140863787375565
2.5246685936409845,5.1859136212624435
2.5256653044951656,19.185913621262443
2.526662015349347,16.185913621262443
2.527658726203528,10.185913621262443
2.5286554370577092,9.185913621262443
2.5296521479118907,16.185913621262443
2.530648858766072,12.185913621262443
2.531645569620253,3.1859136212624435
2.532642280474434,-7.8140863787375565
2.5336389913286155,8.185913621262443
2.5346357021827965,9.185913621262443
2.5356324130369776,-19.814086378737557
2.536629123891159,-13.814086378737557
2.53762583474534,-18.814086378737557
2.5386225455995213,-18.814086378737557
2.5396192564537023,1.1859136212624435
2.540615967307884,-0.8140863787375565
2.541612678162065,-7.8140863787375565
2.542609389016246,2.1859136212624435
2.5436060998704275,1.1859136212624435
2.5446028107246086,15.185913621262443
2.5455995215787897,16.185913621262443
2.546596232432971,16.185913621262443
2.5475929432871522,8.185913621262443
2.5485896541413333,-1.8140863787375565
2.5495863649955144,-3.8140863787375565
2.550583075849696,-7.8140863787375565
2.551579786703877,-2.8140863787375565
2.552576497558058,-0.8140863787375565
2.5535732084122396,-5.8140863787375565
2.5545699192664206,-9.814086378737557
2.5555666301206017,-8.814086378737557
2.5565633409747828,-8.814086378737557
2.5575600518289643,-5.8140863787375565
2.5585567626831454,5.1859136212624435
2.5595534735373264,-2.8140863787375565
2.560550184391508,-14.814086378737557
2.561546895245689,1.1859136212624435
2.56254360609987,6.1859136212624435
2.5635403169540516,12.185913621262443
2.5645370278082327,15.185913621262443
2.5655337386624137,17.185913621262443
2.566530449516595,16.185913621262443
2.5675271603707763,7.1859136212624435
2.5685238712249574,-12.814086378737557
2.5695205820791385,-3.8140863787375565
2.57051729293332,-0.8140863787375565
2.571514003787501,-2.8140863787375565
2.572510714641682,1.1859136212624435
2.573507425495863,4.1859136212624435
2.5745041363500447,1.1859136212624435
2.575500847204226,-8.814086378737557
2.576497558058407,-26.814086378737557
2.5774942689125884,-14.814086378737557
2.5784909797667694,12.185913621262443
2.5794876906209505,13.185913621262443
2.580484401475132,-9.814086378737557
2.581481112329313,-5.8140863787375565
2.582477823183494,-3.8140863787375565
2.5834745340376752,0.18591362126244348
2.5844712448918568,1.1859136212624435
2.585467955746038,10.185913621262443
2.586464666600219,14.185913621262443
2.5874613774544004,10.185913621262443
2.5884580883085815,12.185913621262443
2.5894547991627626,11.185913621262443
2.590451510016944,8.185913621262443
2.591448220871125,-9.814086378737557
2.592444931725306,-27.814086378737557
2.5934416425794873,-9.814086378737557
2.594438353433669,8.185913621262443
2.59543506428785,1.1859136212624435
2.596431775142031,-10.814086378737557
2.5974284859962125,-9.814086378737557
2.5984251968503935,-6.8140863787375565
2.5994219077045746,-2.8140863787375565
2.6004186185587557,-3.8140863787375565
2.601415329412937,-10.814086378737557
2.6024120402671183,-0.8140863787375565
2.6034087511212993,16.185913621262443
2.604405461975481,8.185913621262443
2.605402172829662,-2.8140863787375565
2.606398883683843,-2.8140863787375565
2.6073955945380245,3.1859136212624435
2.6083923053922056,4.1859136212624435
2.6093890162463866,12.185913621262443
2.6103857271005677,32.18591362126244
2.6113824379547492,12.185913621262443
2.6123791488089303,3.1859136212624435
2.6133758596631114,5.1859136212624435
2.614372570517293,-9.814086378737557
2.615369281371474,-10.814086378737557
2.616365992225655,-2.8140863787375565
2.617362703079836,-9.814086378737557
2.6183594139340176,-12.814086378737557
2.6193561247881987,-31.814086378737557
2.6203528356423798,-21.814086378737557
2.6213495464965613,-5.8140863787375565
2.6223462573507423,1.1859136212624435
2.6233429682049234,1.1859136212624435
2.624339679059105,8.185913621262443
2.625336389913286,5.1859136212624435
2.626333100767467,12.185913621262443
2.627329811621648,39.18591362126244
2.6283265224758297,16.185913621262443
2.6293232333300107,11.185913621262443
2.630319944184192,-1.8140863787375565
2.6313166550383733,-2.8140863787375565
2.6323133658925544,1.1859136212624435
2.6333100767467355,-9.814086378737557
2.6343067876009165,-14.814086378737557
2.635303498455098,-19.814086378737557
2.636300209309279,-9.814086378737557
2.63729692016346,0.18591362126244348
2.6382936310176417,-1.8140863787375565
2.6392903418718228,-5.8140863787375565
2.640287052726004,5.1859136212624435
2.6412837635801854,3.1859136212624435
2.6422804744343664,-3.8140863787375565
2.6432771852885475,2.1859136212624435
2.6442738961427286,14.185913621262443
2.64527060699691,7.1859136212624435
2.646267317851091,10.185913621262443
2.647264028705272,14.185913621262443
2.6482607395594537,5.1859136212624435
2.649257450413635,13.185913621262443
2.650254161267816,6.1859136212624435
2.651250872121997,-2.8140863787375565
2.6522475829761785,-16.814086378737557
2.6532442938303595,-13.814086378737557
2.6542410046845406,-17.814086378737557
2.655237715538722,-19.814086378737557
2.656234426392903,-12.814086378737557
2.6572311372470843,-2.8140863787375565
2.6582278481012658,-8.814086378737557
2.659224558955447,-0.8140863787375565
2.660221269809628,4.1859136212624435
2.661217980663809,8.185913621262443
2.6622146915179905,4.1859136212624435
2.6632114023721716,2.1859136212624435
2.6642081132263526,1.1859136212624435
2.665204824080534,0.18591362126244348
2.6662015349347152,0.18591362126244348
2.6671982457888963,4.1859136212624435
2.668194956643078,18.185913621262443
2.669191667497259,30.185913621262443
2.67018837835144,8.185913621262443
2.671185089205621,0.18591362126244348
2.6721818000598025,-7.8140863787375565
2.6731785109139836,-1.8140863787375565
2.6741752217681647,6.1859136212624435
2.675171932622346,-10.814086378737557
2.6761686434765273,-15.814086378737557
2.6771653543307083,-6.8140863787375565
2.6781620651848894,-7.8140863787375565
2.679158776039071,-8.814086378737557
2.680155486893252,-7.8140863787375565
2.681152197747433,-8.814086378737557
2.6821489086016146,-3.8140863787375565
2.6831456194557957,3.1859136212624435
2.6841423303099767,15.185913621262443
2.6851390411641582,14.185913621262443
2.6861357520183393,14.185913621262443
2.6871324628725204,16.185913621262443
2.6881291737267015,20.185913621262443
2.689125884580883,5.1859136212624435
2.690122595435064,-3.8140863787375565
2.691119306289245,-7.8140863787375565
2.6921160171434266,-23.814086378737557
2.6931127279976077,-17.814086378737557
2.6941094388517888,-15.814086378737557
2.69510614970597,-14.814086378737557
2.6961028605601514,13.185913621262443
2.6970995714143324,17.185913621262443
2.6980962822685135,4.1859136212624435
2.699092993122695,-11.814086378737557
2.700089703976876,-9.814086378737557
2.701086414831057,-2.8140863787375565
2.7020831256852387,5.1859136212624435
2.7030798365394197,10.185913621262443
2.704076547393601,5.1859136212624435
2.705073258247782,12.185913621262443
2.7060699691019634,24.185913621262443
2.7070666799561445,18.185913621262443
2.7080633908103255,5.1859136212624435
2.709060101664507,-6.8140863787375565
2.710056812518688,-21.814086378737557
2.711053523372869,-13.814086378737557
2.7120502342270503,-4.8140863787375565
2.713046945081232,-10.814086378737557
2.714043655935413,-0.8140863787375565
2.715040366789594,-2.8140863787375565
2.7160370776437754,-9.814086378737557
2.7170337884979565,-11.814086378737557
2.7180304993521376,-1.8140863787375565
2.719027210206319,-5.8140863787375565
2.7200239210605,-6.8140863787375565
2.7210206319146812,-9.814086378737557
2.7220173427688623,1.1859136212624435
2.723014053623044,12.185913621262443
2.724010764477225,12.185913621262443
2.725007475331406,4.1859136212624435
2.7260041861855875,20.185913621262443
2.7270008970397686,22.185913621262443
2.7279976078939496,17.185913621262443
2.7289943187481307,13.185913621262443
2.729991029602312,2.1859136212624435
2.7309877404564933,-9.814086378737557
2.7319844513106744,-12.814086378737557
2.732981162164856,-23.814086378737557
2.733977873019037,-15.814086378737557
2.734974583873218,10.185913621262443
2.7359712947273995,0.18591362126244348
2.7369680055815806,-6.8140863787375565
2.7379647164357617,-2.8140863787375565
2.7389614272899427,-2.8140863787375565
2.7399581381441243,-6.8140863787375565
2.7409548489983053,1.1859136212624435
2.7419515598524864,-12.814086378737557
2.742948270706668,-7.8140863787375565
2.743944981560849,-1.8140863787375565
2.74494169241503,16.185913621262443
2.7459384032692116,14.185913621262443
2.7469351141233926,6.1859136212624435
2.7479318249775737,12.185913621262443
2.748928535831755,17.185913621262443
2.7499252466859363,15.185913621262443
2.7509219575401174,8.185913621262443
2.7519186683942984,6.1859136212624435
2.75291537924848,-8.814086378737557
2.753912090102661,-17.814086378737557
2.754908800956842,-21.814086378737557
2.755905511811023,-12.814086378737557
2.7569022226652047,-10.814086378737557
2.7578989335193858,-10.814086378737557
2.758895644373567,-5.8140863787375565
2.7598923552277483,-1.8140863787375565
2.7608890660819294,6.1859136212624435
2.7618857769361105,10.185913621262443
2.762882487790292,4.1859136212624435
2.763879198644473,0.18591362126244348
2.764875909498654,-3.8140863787375565
2.765872620352835,5.1859136212624435
2.7668693312070167,25.185913621262443
2.767866042061198,28.185913621262443
2.768862752915379,9.185913621262443
2.7698594637695604,1.1859136212624435
2.7708561746237415,-7.8140863787375565
2.7718528854779225,-10.814086378737557
2.7728495963321036,1.1859136212624435
2.773846307186285,6.1859136212624435
2.774843018040466,-13.814086378737557
2.7758397288946473,-21.814086378737557
2.7768364397488288,-33.81408637873756
2.77783315060301,-19.814086378737557
2.778829861457191,-1.8140863787375565
2.7798265723113724,10.185913621262443
2.7808232831655535,9.185913621262443
2.7818199940197346,9.185913621262443
2.7828167048739156,9.185913621262443
2.783813415728097,13.185913621262443
2.7848101265822782,15.185913621262443
2.7858068374364593,14.185913621262443
2.786803548290641,6.1859136212624435
2.787800259144822,2.1859136212624435
2.788796969999003,4.1859136212624435
2.789793680853184,2.1859136212624435
2.7907903917073655,-8.814086378737557
2.7917871025615466,-12.814086378737557
2.7927838134157277,-8.814086378737557
2.793780524269909,-11.814086378737557
2.7947772351240903,-10.814086378737557
2.7957739459782713,-6.8140863787375565
2.796770656832453,-1.8140863787375565
2.797767367686634,-8.814086378737557
2.798764078540815,-2.8140863787375565
2.799760789394996,-9.814086378737557
2.8007575002491776,-2.8140863787375565
2.8017542111033586,11.185913621262443
2.8027509219575397,20.185913621262443
2.8037476328117212,21.185913621262443
2.8047443436659023,9.185913621262443
2.8057410545200834,8.185913621262443
2.8067377653742644,14.185913621262443
2.807734476228446,11.185913621262443
2.808731187082627,6.1859136212624435
2.809727897936808,-8.814086378737557
2.8107246087909896,-10.814086378737557
2.8117213196451707,-12.814086378737557
2.8127180304993518,-19.814086378737557
2.8137147413535333,-21.814086378737557
2.8147114522077143,-22.814086378737557
2.8157081630618954,-8.814086378737557
2.8167048739160765,10.185913621262443
2.817701584770258,10.185913621262443
2.818698295624439,3.1859136212624435
2.81969500647862,-0.8140863787375565
2.8206917173328017,-14.814086378737557
2.8216884281869827,-3.8140863787375565
2.822685139041164,15.185913621262443
2.8236818498953453,16.185913621262443
2.8246785607495264,-1.8140863787375565
2.8256752716037075,0.18591362126244348
2.8266719824578885,0.18591362126244348
2.82766869331207,-5.8140863787375565
2.828665404166251,25.185913621262443
2.829662115020432,46.18591362126244
2.8306588258746137,24.185913621262443
2.8316555367287948,-2.8140863787375565
2.832652247582976,-7.8140863787375565
2.833648958437157,-7.8140863787375565
2.8346456692913384,-17.814086378737557
2.8356423801455195,-15.814086378737557
2.8366390909997006,-19.814086378737557
2.837635801853882,-18.814086378737557
2.838632512708063,-12.814086378737557
2.8396292235622442,-12.814086378737557
2.8406259344164257,-5.8140863787375565
2.841622645270607,2.1859136212624435
2.842619356124788,8.185913621262443
2.843616066978969,12.185913621262443
2.8446127778331505,9.185913621262443
2.8456094886873315,12.185913621262443
2.8466061995415126,14.185913621262443
2.847602910395694,12.185913621262443
2.848599621249875,2.1859136212624435
2.8495963321040563,-7.8140863787375565
2.8505930429582373,-3.8140863787375565
2.851589753812419,-11.814086378737557
2.8525864646666,-8.814086378737557
2.853583175520781,2.1859136212624435
2.8545798863749625,-15.814086378737557
2.8555765972291436,-7.8140863787375565
2.8565733080833247,1.1859136212624435
2.857570018937506,-9.814086378737557
2.8585667297916872,1.1859136212624435
2.8595634406458683,18.185913621262443
2.8605601515000494,9.185913621262443
2.861556862354231,-2.8140863787375565
2.862553573208412,-5.8140863787375565
2.863550284062593,-2.8140863787375565
2.8645469949167746,9.185913621262443
2.8655437057709556,22.185913621262443
2.8665404166251367,23.185913621262443
2.8675371274793178,4.1859136212624435
2.8685338383334993,9.185913621262443
2.8695305491876804,8.185913621262443
2.8705272600418614,-1.8140863787375565
2.871523970896043,-4.8140863787375565
2.872520681750224,-18.814086378737557
2.873517392604405,-18.814086378737557
2.8745141034585866,-18.814086378737557
2.8755108143127677,-14.814086378737557
2.8765075251669487,-5.8140863787375565
2.87750423602113,-2.8140863787375565
2.8785009468753113,-6.8140863787375565
2.8794976577294924,-4.8140863787375565
2.8804943685836735,10.185913621262443
2.881491079437855,6.1859136212624435
2.882487790292036,8.185913621262443
2.883484501146217,0.18591362126244348
2.8844812120003986,5.1859136212624435
2.8854779228545797,19.185913621262443
2.886474633708761,26.185913621262443
2.887471344562942,14.185913621262443
2.8884680554171234,9.185913621262443
2.8894647662713044,3.1859136212624435
2.8904614771254855,-6.8140863787375565
2.891458187979667,-5.8140863787375565
2.892454898833848,-15.814086378737557
2.893451609688029,-20.814086378737557
2.8944483205422102,-19.814086378737557
2.8954450313963918,-17.814086378737557
2.896441742250573,4.1859136212624435
2.897438453104754,9.185913621262443
2.8984351639589354,-6.8140863787375565
2.8994318748131165,-10.814086378737557
2.9004285856672976,-6.8140863787375565
2.901425296521479,-2.8140863787375565
2.90242200737566,12.185913621262443
2.903418718229841,21.185913621262443
2.9044154290840223,5.1859136212624435
2.905412139938204,15.185913621262443
2.906408850792385,12.185913621262443
2.907405561646566,8.185913621262443
2.9084022725007475,10.185913621262443
2.9093989833549285,4.1859136212624435
2.9103956942091096,4.1859136212624435
2.9113924050632907,-7.8140863787375565
2.912389115917472,-6.8140863787375565
2.9133858267716533,-3.8140863787375565
2.9143825376258343,-12.814086378737557
2.915379248480016,-17.814086378737557
2.916375959334197,-16.814086378737557
2.917372670188378,-11.814086378737557
2.9183693810425595,-12.814086378737557
2.9193660918967406,-12.814086378737557
2.9203628027509216,-11.814086378737557
2.9213595136051027,10.185913621262443
2.9223562244592842,24.185913621262443
2.9233529353134653,17.185913621262443
2.9243496461676464,4.1859136212624435
2.925346357021828,16.185913621262443
2.926343067876009,14.185913621262443
2.92733977873019,6.1859136212624435
2.928336489584371,3.1859136212624435
2.9293332004385526,5.1859136212624435
2.9303299112927337,6.1859136212624435
2.9313266221469148,2.1859136212624435
2.9323233330010963,-10.814086378737557
2.9333200438552773,-19.814086378737557
2.9343167547094584,-22.814086378737557
2.93531346556364,-17.814086378737557
2.936310176417821,-13.814086378737557
2.937306887272002,2.1859136212624435
2.938303598126183,5.1859136212624435
2.9393003089803647,13.185913621262443
2.9402970198345457,16.185913621262443
2.941293730688727,-4.8140863787375565
2.9422904415429083,-3.8140863787375565
2.9432871523970894,11.185913621262443
2.9442838632512704,11.185913621262443
2.9452805741054515,18.185913621262443
2.946277284959633,15.185913621262443
2.947273995813814,4.1859136212624435
2.948270706667995,1.1859136212624435
2.9492674175221767,0.18591362126244348
2.9502641283763578,-6.8140863787375565
2.951260839230539,-11.814086378737557
2.9522575500847204,-5.8140863787375565
2.9532542609389014,-9.814086378737557
2.9542509717930825,-8.814086378737557
2.9552476826472636,-21.814086378737557
2.956244393501445,-22.814086378737557
2.957241104355626,-6.8140863787375565
2.958237815209807,-0.8140863787375565
2.9592345260639887,-3.8140863787375565
2.96023123691817,-3.8140863787375565
2.961227947772351,3.1859136212624435
2.9622246586265324,6.1859136212624435
2.9632213694807135,26.185913621262443
2.9642180803348945,24.185913621262443
2.9652147911890756,10.185913621262443
2.966211502043257,18.185913621262443
2.967208212897438,15.185913621262443
2.9682049237516193,-3.8140863787375565
2.9692016346058008,-8.814086378737557
2.970198345459982,-7.8140863787375565
2.971195056314163,-4.8140863787375565
2.972191767168344,-3.8140863787375565
2.9731884780225255,-12.814086378737557
2.9741851888767066,-25.814086378737557
2.9751818997308876,-18.814086378737557
2.976178610585069,0.18591362126244348
2.9771753214392502,7.1859136212624435
2.9781720322934313,6.1859136212624435
2.979168743147613,-4.8140863787375565
2.980165454001794,-6.8140863787375565
2.981162164855975,0.18591362126244348
2.982158875710156,3.1859136212624435
2.9831555865643375,5.1859136212624435
2.9841522974185186,14.185913621262443
2.9851490082726997,25.185913621262443
2.986145719126881,13.185913621262443
2.9871424299810623,12.185913621262443
2.9881391408352433,8.185913621262443
2.9891358516894244,-1.8140863787375565
2.990132562543606,-9.814086378737557
2.991129273397787,-12.814086378737557
2.992125984251968,-13.814086378737557
2.9931226951061496,-19.814086378737557
2.9941194059603307,2.1859136212624435
2.9951161168145117,2.1859136212624435
2.9961128276686932,-14.814086378737557
2.9971095385228743,-12.814086378737557
2.9981062493770554,-7.8140863787375565
2.9991029602312365,-6.8140863787375565
3.000099671085418,1.1859136212624435
3.001096381939599,11.185913621262443
3.00209309279378,27.185913621262443
3.0030898036479616,20.185913621262443
3.0040865145021427,15.185913621262443
3.0050832253563238,6.1859136212624435
3.006079936210505,7.1859136212624435
3.0070766470646864,10.185913621262443
3.0080733579188674,-0.8140863787375565
3.0090700687730485,-4.8140863787375565
3.01006677962723,-7.8140863787375565
3.011063490481411,-2.8140863787375565
3.012060201335592,-8.814086378737557
3.0130569121897737,-11.814086378737557
3.0140536230439547,-14.814086378737557
3.015050333898136,-18.814086378737557
3.016047044752317,-4.8140863787375565
3.0170437556064984,-10.814086378737557
3.0180404664606795,-27.814086378737557
3.0190371773148605,-18.814086378737557
3.020033888169042,-7.8140863787375565
3.021030599023223,20.185913621262443
3.022027309877404,40.18591362126244
3.0230240207315853,42.18591362126244
3.024020731585767,29.185913621262443
3.025017442439948,16.185913621262443
3.026014153294129,5.1859136212624435
3.0270108641483104,1.1859136212624435
3.0280075750024915,-6.8140863787375565
3.0290042858566726,-4.8140863787375565
3.030000996710854,-4.8140863787375565
3.030997707565035,-14.814086378737557
3.0319944184192162,-14.814086378737557
3.0329911292733973,-9.814086378737557
3.033987840127579,-8.814086378737557
3.03498455098176,-11.814086378737557
3.035981261835941,-9.814086378737557
3.0369779726901225,-6.8140863787375565
3.0379746835443036,-3.8140863787375565
3.0389713943984846,0.18591362126244348
3.039968105252666,3.1859136212624435
3.040964816106847,-3.8140863787375565
3.0419615269610283,9.185913621262443
3.0429582378152094,16.185913621262443
3.043954948669391,4.1859136212624435
3.044951659523572,5.1859136212624435
3.045948370377753,9.185913621262443
3.0469450812319345,19.185913621262443
3.0479417920861156,22.185913621262443
3.0489385029402967,20.185913621262443
3.0499352137944777,4.1859136212624435
3.0509319246486593,-5.8140863787375565
3.0519286355028403,-9.814086378737557
3.0529253463570214,-19.814086378737557
3.053922057211203,-24.814086378737557
3.054918768065384,-28.814086378737557
3.055915478919565,-24.814086378737557
3.0569121897737466,-14.814086378737557
3.0579089006279276,-9.814086378737557
3.0589056114821087,3.1859136212624435
3.05990232233629,16.185913621262443
3.0608990331904713,19.185913621262443
3.0618957440446524,12.185913621262443
3.0628924548988334,6.1859136212624435
3.063889165753015,9.185913621262443
3.064885876607196,5.1859136212624435
3.065882587461377,18.185913621262443
3.066879298315558,18.185913621262443
3.0678760091697397,-2.8140863787375565
3.0688727200239208,7.1859136212624435
3.069869430878102,5.1859136212624435
3.0708661417322833,-6.8140863787375565
3.0718628525864644,-7.8140863787375565
3.0728595634406455,-7.8140863787375565
3.073856274294827,-14.814086378737557
3.074852985149008,-10.814086378737557
3.075849696003189,-11.814086378737557
3.07684640685737,-16.814086378737557
3.0778431177115517,-23.814086378737557
3.078839828565733,-8.814086378737557
3.079836539419914,16.185913621262443
3.0808332502740954,22.185913621262443
3.0818299611282765,18.185913621262443
3.0828266719824575,7.1859136212624435
3.0838233828366386,12.185913621262443
3.08482009369082,23.185913621262443
3.085816804545001,13.185913621262443
3.0868135153991823,-3.8140863787375565
3.0878102262533638,2.1859136212624435
3.088806937107545,7.1859136212624435
3.089803647961726,-7.8140863787375565
3.0908003588159074,-10.814086378737557
3.0917970696700885,-10.814086378737557
3.0927937805242696,-10.814086378737557
3.0937904913784506,-16.814086378737557
3.094787202232632,-7.8140863787375565
3.095783913086813,-8.814086378737557
3.0967806239409943,-14.814086378737557
3.097777334795176,-2.8140863787375565
3.098774045649357,-7.8140863787375565
3.099770756503538,-5.8140863787375565
3.1007674673577195,-5.8140863787375565
3.1017641782119005,16.185913621262443
3.1027608890660816,29.185913621262443
3.1037575999202627,22.185913621262443
3.104754310774444,13.185913621262443
3.1057510216286253,8.185913621262443
3.1067477324828063,9.185913621262443
3.107744443336988,5.1859136212624435
3.108741154191169,8.185913621262443
3.10973786504535,3.1859136212624435
3.110734575899531,-13.814086378737557
3.1117312867537126,-16.814086378737557
3.1127279976078936,-22.814086378737557
3.1137247084620747,-8.814086378737557
3.1147214193162562,2.1859136212624435
3.1157181301704373,1.1859136212624435
3.1167148410246184,-5.8140863787375565
3.1177115518788,1.1859136212624435
3.118708262732981,8.185913621262443
3.119704973587162,8.185913621262443
3.120701684441343,-1.8140863787375565
3.1216983952955246,-7.8140863787375565
3.1226951061497057,4.1859136212624435
3.1236918170038868,9.185913621262443
3.1246885278580683,6.1859136212624435
3.1256852387122493,0.18591362126244348
3.1266819495664304,-2.8140863787375565
3.1276786604206115,-2.8140863787375565
3.128675371274793,10.185913621262443
