Time,EMG
0.0,502.3688923463983
0.0009931308449888272,-519.6311076536017
0.0019862616899776545,-519.6311076536017
0.0029793925349664817,-519.6311076536017
0.003972523379955309,-519.6311076536017
0.004965654224944136,-519.6311076536017
0.005958785069932963,-519.6311076536017
0.006951915914921791,-519.6311076536017
0.007945046759910618,-519.6311076536017
0.008938177604899445,-519.6311076536017
0.009931308449888272,-519.6311076536017
0.0109244392948771,502.3688923463983
0.011917570139865927,502.3688923463983
0.012910700984854754,503.3688923463983
0.013903831829843581,502.3688923463983
0.014896962674832408,502.3688923463983
0.015890093519821236,502.3688923463983
0.016883224364810063,503.3688923463983
0.01787635520979889,503.3688923463983
0.018869486054787717,502.3688923463983
0.019862616899776545,502.3688923463983
0.020855747744765372,-480.6311076536017
0.0218488785897542,-519.6311076536017
0.022842009434743026,-519.6311076536017
0.023835140279731853,-519.6311076536017
0.02482827112472068,-519.6311076536017
0.025821401969709508,-519.6311076536017
0.026814532814698335,-519.6311076536017
0.027807663659687162,-519.6311076536017
0.02880079450467599,-519.6311076536017
0.029793925349664817,-519.6311076536017
0.030787056194653644,502.3688923463983
0.03178018703964247,503.3688923463983
0.032773317884631295,502.3688923463983
0.033766448729620126,502.3688923463983
0.034759579574608956,502.3688923463983
0.03575271041959778,502.3688923463983
0.036745841264586604,502.3688923463983
0.037738972109575435,503.3688923463983
0.038732102954564265,502.3688923463983
0.03972523379955309,502.3688923463983
0.04071836464454191,-503.6311076536017
0.041711495489530744,-519.6311076536017
0.042704626334519574,-519.6311076536017
0.0436977571795084,-519.6311076536017
0.04469088802449722,-519.6311076536017
0.04568401886948605,-519.6311076536017
0.04667714971447488,-519.6311076536017
0.04767028055946371,-519.6311076536017
0.04866341140445253,-519.6311076536017
0.04965654224944136,-519.6311076536017
0.05064967309443019,502.3688923463983
0.051642803939419016,503.3688923463983
0.05263593478440784,502.3688923463983
0.05362906562939667,502.3688923463983
0.0546221964743855,502.3688923463983
0.055615327319374325,502.3688923463983
0.05660845816436315,502.3688923463983
0.05760158900935198,502.3688923463983
0.05859471985434081,502.3688923463983
0.059587850699329634,502.3688923463983
0.06058098154431846,-355.6311076536017
0.06157411238930729,-519.6311076536017
0.06256724323429612,-519.6311076536017
0.06356037407928494,-519.6311076536017
0.06455350492427377,-519.6311076536017
0.06554663576926259,-519.6311076536017
0.06653976661425143,-519.6311076536017
0.06753289745924025,-519.6311076536017
0.06852602830422908,-519.6311076536017
0.06951915914921791,-519.6311076536017
0.07051228999420674,502.3688923463983
0.07150542083919556,502.3688923463983
0.07249855168418438,503.3688923463983
0.07349168252917321,502.3688923463983
0.07448481337416205,502.3688923463983
0.07547794421915087,502.3688923463983
0.07647107506413969,503.3688923463983
0.07746420590912853,503.3688923463983
0.07845733675411735,502.3688923463983
0.07945046759910618,502.3688923463983
0.080443598444095,-350.6311076536017
0.08143672928908383,-519.6311076536017
0.08242986013407266,-519.6311076536017
0.08342299097906149,-519.6311076536017
0.08441612182405031,-519.6311076536017
0.08540925266903915,-519.6311076536017
0.08640238351402797,-519.6311076536017
0.0873955143590168,-519.6311076536017
0.08838864520400562,-519.6311076536017
0.08938177604899444,-519.6311076536017
0.09037490689398328,502.3688923463983
0.0913680377389721,502.3688923463983
0.09236116858396093,503.3688923463983
0.09335429942894977,502.3688923463983
0.09434743027393859,502.3688923463983
0.09534056111892741,502.3688923463983
0.09633369196391624,502.3688923463983
0.09732682280890506,502.3688923463983
0.0983199536538939,502.3688923463983
0.09931308449888272,502.3688923463983
0.10030621534387155,-302.6311076536017
0.10129934618886038,-519.6311076536017
0.10229247703384921,-519.6311076536017
0.10328560787883803,-519.6311076536017
0.10427873872382686,-519.6311076536017
0.10527186956881568,-519.6311076536017
0.10626500041380452,-519.6311076536017
0.10725813125879334,-519.6311076536017
0.10825126210378216,-519.6311076536017
0.109244392948771,-519.6311076536017
0.11023752379375983,502.3688923463983
0.11123065463874865,502.3688923463983
0.11222378548373747,503.3688923463983
0.1132169163287263,502.3688923463983
0.11421004717371513,502.3688923463983
0.11520317801870396,502.3688923463983
0.11619630886369278,502.3688923463983
0.11718943970868162,502.3688923463983
0.11818257055367044,502.3688923463983
0.11917570139865927,502.3688923463983
0.12016883224364809,-316.6311076536017
0.12116196308863691,-519.6311076536017
0.12215509393362575,-519.6311076536017
0.12314822477861458,-519.6311076536017
0.1241413556236034,-519.6311076536017
0.12513448646859224,-519.6311076536017
0.12612761731358105,-519.6311076536017
0.12712074815856989,-519.6311076536017
0.12811387900355872,-519.6311076536017
0.12910700984854753,-519.6311076536017
0.13010014069353637,502.3688923463983
0.13109327153852518,502.3688923463983
0.13208640238351402,502.3688923463983
0.13307953322850286,502.3688923463983
0.13407266407349167,502.3688923463983
0.1350657949184805,502.3688923463983
0.13605892576346934,503.3688923463983
0.13705205660845815,503.3688923463983
0.138045187453447,502.3688923463983
0.13903831829843583,502.3688923463983
0.14003144914342464,-300.6311076536017
0.14102457998841347,-519.6311076536017
0.14201771083340228,-519.6311076536017
0.14301084167839112,-519.6311076536017
0.14400397252337996,-519.6311076536017
0.14499710336836877,-519.6311076536017
0.1459902342133576,-519.6311076536017
0.14698336505834642,-519.6311076536017
0.14797649590333525,-519.6311076536017
0.1489696267483241,-519.6311076536017
0.1499627575933129,502.3688923463983
0.15095588843830174,503.3688923463983
0.15194901928329058,503.3688923463983
0.15294215012827939,502.3688923463983
0.15393528097326822,502.3688923463983
0.15492841181825706,502.3688923463983
0.15592154266324587,502.3688923463983
0.1569146735082347,502.3688923463983
0.15790780435322352,502.3688923463983
0.15890093519821236,502.3688923463983
0.1598940660432012,-190.6311076536017
0.16088719688819,-519.6311076536017
0.16188032773317884,-519.6311076536017
0.16287345857816765,-519.6311076536017
0.1638665894231565,-519.6311076536017
0.16485972026814533,-519.6311076536017
0.16585285111313414,-519.6311076536017
0.16684598195812297,-519.6311076536017
0.1678391128031118,-519.6311076536017
0.16883224364810062,-519.6311076536017
0.16982537449308946,502.3688923463983
0.1708185053380783,502.3688923463983
0.1718116361830671,502.3688923463983
0.17280476702805594,502.3688923463983
0.17379789787304475,502.3688923463983
0.1747910287180336,502.3688923463983
0.17578415956302243,502.3688923463983
0.17677729040801124,502.3688923463983
0.17777042125300008,502.3688923463983
0.1787635520979889,502.3688923463983
0.17975668294297772,-207.6311076536017
0.18074981378796656,-519.6311076536017
0.18174294463295537,-519.6311076536017
0.1827360754779442,-519.6311076536017
0.18372920632293305,-519.6311076536017
0.18472233716792186,-519.6311076536017
0.1857154680129107,-519.6311076536017
0.18670859885789953,-519.6311076536017
0.18770172970288834,-519.6311076536017
0.18869486054787718,-519.6311076536017
0.189687991392866,502.3688923463983
0.19068112223785483,502.3688923463983
0.19167425308284367,502.3688923463983
0.19266738392783248,502.3688923463983
0.1936605147728213,502.3688923463983
0.19465364561781012,502.3688923463983
0.19564677646279896,502.3688923463983
0.1966399073077878,502.3688923463983
0.1976330381527766,502.3688923463983
0.19862616899776545,502.3688923463983
0.19961929984275428,-167.6311076536017
0.2006124306877431,-519.6311076536017
0.20160556153273193,-519.6311076536017
0.20259869237772077,-519.6311076536017
0.20359182322270958,-519.6311076536017
0.20458495406769842,-519.6311076536017
0.20557808491268723,-519.6311076536017
0.20657121575767606,-519.6311076536017
0.2075643466026649,-519.6311076536017
0.2085574774476537,-519.6311076536017
0.20955060829264255,502.3688923463983
0.21054373913763136,502.3688923463983
0.2115368699826202,503.3688923463983
0.21253000082760903,502.3688923463983
0.21352313167259784,502.3688923463983
0.21451626251758668,502.3688923463983
0.21550939336257552,502.3688923463983
0.21650252420756433,503.3688923463983
0.21749565505255317,502.3688923463983
0.218488785897542,502.3688923463983
0.2194819167425308,-91.6311076536017
0.22047504758751965,-519.6311076536017
0.22146817843250846,-519.6311076536017
0.2224613092774973,-519.6311076536017
0.22345444012248614,-519.6311076536017
0.22444757096747495,-519.6311076536017
0.22544070181246378,-519.6311076536017
0.2264338326574526,-519.6311076536017
0.22742696350244143,-519.6311076536017
0.22842009434743027,-519.6311076536017
0.22941322519241908,502.3688923463983
0.23040635603740792,502.3688923463983
0.23139948688239675,502.3688923463983
0.23239261772738556,502.3688923463983
0.2333857485723744,502.3688923463983
0.23437887941736324,502.3688923463983
0.23537201026235205,502.3688923463983
0.2363651411073409,503.3688923463983
0.2373582719523297,502.3688923463983
0.23835140279731853,502.3688923463983
0.23934453364230737,-162.6311076536017
0.24033766448729618,-519.6311076536017
0.24133079533228502,-519.6311076536017
0.24232392617727383,-519.6311076536017
0.24331705702226267,-519.6311076536017
0.2443101878672515,-519.6311076536017
0.24530331871224031,-519.6311076536017
0.24629644955722915,-519.6311076536017
0.247289580402218,-519.6311076536017
0.2482827112472068,-519.6311076536017
0.24927584209219564,502.3688923463983
0.2502689729371845,502.3688923463983
0.2512621037821733,502.3688923463983
0.2522552346271621,502.3688923463983
0.25324836547215096,502.3688923463983
0.25424149631713977,502.3688923463983
0.2552346271621286,502.3688923463983
0.25622775800711745,502.3688923463983
0.25722088885210626,502.3688923463983
0.25821401969709507,502.3688923463983
0.25920715054208393,-79.6311076536017
0.26020028138707274,-519.6311076536017
0.26119341223206155,-519.6311076536017
0.26218654307705036,-519.6311076536017
0.2631796739220392,-519.6311076536017
0.26417280476702804,-519.6311076536017
0.26516593561201685,-519.6311076536017
0.2661590664570057,-519.6311076536017
0.2671521973019945,-519.6311076536017
0.26814532814698333,-519.6311076536017
0.2691384589919722,502.3688923463983
0.270131589836961,503.3688923463983
0.2711247206819498,502.3688923463983
0.2721178515269387,502.3688923463983
0.2731109823719275,502.3688923463983
0.2741041132169163,502.3688923463983
0.27509724406190517,503.3688923463983
0.276090374906894,502.3688923463983
0.2770835057518828,502.3688923463983
0.27807663659687165,502.3688923463983
0.27906976744186046,-105.6311076536017
0.28006289828684927,-519.6311076536017
0.2810560291318381,-519.6311076536017
0.28204915997682695,-519.6311076536017
0.28304229082181576,-519.6311076536017
0.28403542166680457,-519.6311076536017
0.28502855251179343,-519.6311076536017
0.28602168335678224,-519.6311076536017
0.28701481420177105,-519.6311076536017
0.2880079450467599,-519.6311076536017
0.2890010758917487,496.3688923463983
0.28999420673673754,503.3688923463983
0.2909873375817264,502.3688923463983
0.2919804684267152,502.3688923463983
0.292973599271704,502.3688923463983
0.29396673011669283,502.3688923463983
0.2949598609616817,502.3688923463983
0.2959529918066705,503.3688923463983
0.2969461226516593,502.3688923463983
0.2979392534966482,502.3688923463983
0.298932384341637,-51.6311076536017
0.2999255151866258,-519.6311076536017
0.30091864603161467,-519.6311076536017
0.3019117768766035,-519.6311076536017
0.3029049077215923,-519.6311076536017
0.30389803856658115,-519.6311076536017
0.30489116941156996,-519.6311076536017
0.30588430025655877,-519.6311076536017
0.30687743110154764,-519.6311076536017
0.30787056194653645,-519.6311076536017
0.30886369279152526,502.3688923463983
0.3098568236365141,503.3688923463983
0.31084995448150293,503.3688923463983
0.31184308532649174,502.3688923463983
0.31283621617148055,502.3688923463983
0.3138293470164694,502.3688923463983
0.3148224778614582,502.3688923463983
0.31581560870644704,503.3688923463983
0.3168087395514359,502.3688923463983
0.3178018703964247,502.3688923463983
0.3187950012414135,-69.6311076536017
0.3197881320864024,-519.6311076536017
0.3207812629313912,-519.6311076536017
0.32177439377638,-519.6311076536017
0.3227675246213689,-519.6311076536017
0.3237606554663577,-519.6311076536017
0.3247537863113465,-519.6311076536017
0.3257469171563353,-519.6311076536017
0.32674004800132417,-519.6311076536017
0.327733178846313,-519.6311076536017
0.3287263096913018,500.3688923463983
0.32971944053629065,502.3688923463983
0.33071257138127946,502.3688923463983
0.3317057022262683,502.3688923463983
0.33269883307125714,502.3688923463983
0.33369196391624595,502.3688923463983
0.33468509476123476,503.3688923463983
0.3356782256062236,503.3688923463983
0.33667135645121243,502.3688923463983
0.33766448729620124,502.3688923463983
0.3386576181411901,-53.6311076536017
0.3396507489861789,-519.6311076536017
0.34064387983116773,-519.6311076536017
0.3416370106761566,-519.6311076536017
0.3426301415211454,-519.6311076536017
0.3436232723661342,-519.6311076536017
0.344616403211123,-519.6311076536017
0.3456095340561119,-519.6311076536017
0.3466026649011007,-519.6311076536017
0.3475957957460895,-519.6311076536017
0.3485889265910784,497.3688923463983
0.3495820574360672,502.3688923463983
0.350575188281056,502.3688923463983
0.35156831912604486,502.3688923463983
0.35256144997103367,502.3688923463983
0.3535545808160225,502.3688923463983
0.35454771166101134,503.3688923463983
0.35554084250600015,502.3688923463983
0.35653397335098896,502.3688923463983
0.3575271041959778,502.3688923463983
0.35852023504096664,20.368892346398297
0.35951336588595545,-519.6311076536017
0.36050649673094426,-519.6311076536017
0.3614996275759331,-519.6311076536017
0.36249275842092193,-519.6311076536017
0.36348588926591074,-519.6311076536017
0.3644790201108996,-519.6311076536017
0.3654721509558884,-519.6311076536017
0.36646528180087723,-519.6311076536017
0.3674584126458661,-519.6311076536017
0.3684515434908549,430.3688923463983
0.3694446743358437,502.3688923463983
0.3704378051808326,503.3688923463983
0.3714309360258214,502.3688923463983
0.3724240668708102,502.3688923463983
0.37341719771579907,502.3688923463983
0.3744103285607879,502.3688923463983
0.3754034594057767,502.3688923463983
0.3763965902507655,502.3688923463983
0.37738972109575436,502.3688923463983
0.37838285194074317,50.3688923463983
0.379375982785732,-519.6311076536017
0.38036911363072085,-519.6311076536017
0.38136224447570966,-519.6311076536017
0.38235537532069847,-519.6311076536017
0.38334850616568733,-519.6311076536017
0.38434163701067614,-519.6311076536017
0.38533476785566495,-519.6311076536017
0.3863278987006538,-519.6311076536017
0.3873210295456426,-519.6311076536017
0.38831416039063144,407.3688923463983
0.38930729123562025,502.3688923463983
0.3903004220806091,503.3688923463983
0.3912935529255979,502.3688923463983
0.39228668377058673,502.3688923463983
0.3932798146155756,502.3688923463983
0.3942729454605644,503.3688923463983
0.3952660763055532,502.3688923463983
0.3962592071505421,502.3688923463983
0.3972523379955309,502.3688923463983
0.3982454688405197,70.3688923463983
0.39923859968550857,-519.6311076536017
0.4002317305304974,-519.6311076536017
0.4012248613754862,-519.6311076536017
0.40221799222047505,-519.6311076536017
0.40321112306546386,-519.6311076536017
0.40420425391045267,-519.6311076536017
0.40519738475544154,-519.6311076536017
0.40619051560043035,-519.6311076536017
0.40718364644541916,-519.6311076536017
0.40817677729040797,428.3688923463983
0.40916990813539683,502.3688923463983
0.41016303898038564,503.3688923463983
0.41115616982537445,502.3688923463983
0.4121493006703633,502.3688923463983
0.4131424315153521,502.3688923463983
0.41413556236034094,502.3688923463983
0.4151286932053298,503.3688923463983
0.4161218240503186,502.3688923463983
0.4171149548953074,502.3688923463983
0.4181080857402963,86.3688923463983
0.4191012165852851,-519.6311076536017
0.4200943474302739,-519.6311076536017
0.4210874782752627,-519.6311076536017
0.4220806091202516,-519.6311076536017
0.4230737399652404,-519.6311076536017
0.4240668708102292,-519.6311076536017
0.42506000165521807,-519.6311076536017
0.4260531325002069,-519.6311076536017
0.4270462633451957,-519.6311076536017
0.42803939419018455,409.3688923463983
0.42903252503517336,503.3688923463983
0.43002565588016217,502.3688923463983
0.43101878672515104,502.3688923463983
0.43201191757013985,502.3688923463983
0.43300504841512866,502.3688923463983
0.4339981792601175,502.3688923463983
0.43499131010510633,503.3688923463983
0.43598444095009514,502.3688923463983
0.436977571795084,502.3688923463983
0.4379707026400728,131.3688923463983
0.4389638334850616,-519.6311076536017
0.43995696433005044,-519.6311076536017
0.4409500951750393,-519.6311076536017
0.4419432260200281,-519.6311076536017
0.4429363568650169,-519.6311076536017
0.4439294877100058,-519.6311076536017
0.4449226185549946,-519.6311076536017
0.4459157493999834,-519.6311076536017
0.4469088802449723,-519.6311076536017
0.4479020110899611,368.3688923463983
0.4488951419349499,502.3688923463983
0.44988827277993876,502.3688923463983
0.45088140362492757,502.3688923463983
0.4518745344699164,502.3688923463983
0.4528676653149052,502.3688923463983
0.45386079615989405,503.3688923463983
0.45485392700488286,502.3688923463983
0.4558470578498717,502.3688923463983
0.45684018869486054,502.3688923463983
0.45783331953984935,184.3688923463983
0.45882645038483816,-519.6311076536017
0.459819581229827,-519.6311076536017
0.46081271207481583,-519.6311076536017
0.46180584291980464,-519.6311076536017
0.4627989737647935,-519.6311076536017
0.4637921046097823,-519.6311076536017
0.46478523545477113,-519.6311076536017
0.46577836629976,-519.6311076536017
0.4667714971447488,-519.6311076536017
0.4677646279897376,306.3688923463983
0.4687577588347265,502.3688923463983
0.4697508896797153,502.3688923463983
0.4707440205247041,502.3688923463983
0.4717371513696929,502.3688923463983
0.4727302822146818,502.3688923463983
0.4737234130596706,502.3688923463983
0.4747165439046594,502.3688923463983
0.47570967474964826,502.3688923463983
0.47670280559463707,502.3688923463983
0.4776959364396259,219.3688923463983
0.47868906728461474,-519.6311076536017
0.47968219812960355,-519.6311076536017
0.48067532897459236,-519.6311076536017
0.48166845981958123,-519.6311076536017
0.48266159066457004,-519.6311076536017
0.48365472150955885,-519.6311076536017
0.48464785235454766,-519.6311076536017
0.4856409831995365,-519.6311076536017
0.48663411404452533,-519.6311076536017
0.48762724488951414,272.3688923463983
0.488620375734503,502.3688923463983
0.4896135065794918,503.3688923463983
0.49060663742448063,502.3688923463983
0.4915997682694695,502.3688923463983
0.4925928991144583,502.3688923463983
0.4935860299594471,503.3688923463983
0.494579160804436,502.3688923463983
0.4955722916494248,502.3688923463983
0.4965654224944136,502.3688923463983
0.49755855333940247,203.3688923463983
0.4985516841843913,-519.6311076536017
0.4995448150293801,-519.6311076536017
0.500537945874369,-519.6311076536017
0.5015310767193577,-519.6311076536017
0.5025242075643466,-519.6311076536017
0.5035173384093354,-519.6311076536017
0.5045104692543242,-519.6311076536017
0.505503600099313,-519.6311076536017
0.5064967309443019,-519.6311076536017
0.5074898617892907,292.3688923463983
0.5084829926342795,503.3688923463983
0.5094761234792684,503.3688923463983
0.5104692543242572,502.3688923463983
0.511462385169246,502.3688923463983
0.5124555160142349,502.3688923463983
0.5134486468592236,503.3688923463983
0.5144417777042125,502.3688923463983
0.5154349085492014,502.3688923463983
0.5164280393941901,502.3688923463983
0.517421170239179,251.3688923463983
0.5184143010841679,-519.6311076536017
0.5194074319291566,-519.6311076536017
0.5204005627741455,-519.6311076536017
0.5213936936191343,-519.6311076536017
0.5223868244641231,-519.6311076536017
0.523379955309112,-519.6311076536017
0.5243730861541007,-519.6311076536017
0.5253662169990896,-519.6311076536017
0.5263593478440785,-519.6311076536017
0.5273524786890672,278.3688923463983
0.5283456095340561,502.3688923463983
0.5293387403790449,502.3688923463983
0.5303318712240337,502.3688923463983
0.5313250020690226,502.3688923463983
0.5323181329140114,502.3688923463983
0.5333112637590002,502.3688923463983
0.534304394603989,503.3688923463983
0.5352975254489779,502.3688923463983
0.5362906562939667,502.3688923463983
0.5372837871389555,238.3688923463983
0.5382769179839444,-519.6311076536017
0.5392700488289331,-519.6311076536017
0.540263179673922,-519.6311076536017
0.5412563105189109,-519.6311076536017
0.5422494413638996,-519.6311076536017
0.5432425722088885,-519.6311076536017
0.5442357030538774,-519.6311076536017
0.5452288338988661,-519.6311076536017
0.546221964743855,-519.6311076536017
0.5472150955888438,268.3688923463983
0.5482082264338326,502.3688923463983
0.5492013572788215,502.3688923463983
0.5501944881238103,502.3688923463983
0.5511876189687991,502.3688923463983
0.552180749813788,502.3688923463983
0.5531738806587768,502.3688923463983
0.5541670115037656,502.3688923463983
0.5551601423487544,502.3688923463983
0.5561532731937433,502.3688923463983
0.5571464040387321,335.3688923463983
0.5581395348837209,-519.6311076536017
0.5591326657287097,-519.6311076536017
0.5601257965736985,-519.6311076536017
0.5611189274186874,-519.6311076536017
0.5621120582636762,-519.6311076536017
0.563105189108665,-519.6311076536017
0.5640983199536539,-519.6311076536017
0.5650914507986426,-519.6311076536017
0.5660845816436315,-519.6311076536017
0.5670777124886204,270.3688923463983
0.5680708433336091,502.3688923463983
0.569063974178598,502.3688923463983
0.5700571050235869,502.3688923463983
0.5710502358685756,502.3688923463983
0.5720433667135645,502.3688923463983
0.5730364975585533,502.3688923463983
0.5740296284035421,502.3688923463983
0.575022759248531,502.3688923463983
0.5760158900935198,502.3688923463983
0.5770090209385086,362.3688923463983
0.5780021517834975,-519.6311076536017
0.5789952826284863,-519.6311076536017
0.5799884134734751,-519.6311076536017
0.5809815443184639,-519.6311076536017
0.5819746751634528,-519.6311076536017
0.5829678060084416,-519.6311076536017
0.5839609368534304,-519.6311076536017
0.5849540676984193,-519.6311076536017
0.585947198543408,-519.6311076536017
0.5869403293883969,213.3688923463983
0.5879334602333857,502.3688923463983
0.5889265910783745,502.3688923463983
0.5899197219233634,502.3688923463983
0.5909128527683521,502.3688923463983
0.591905983613341,502.3688923463983
0.5928991144583299,503.3688923463983
0.5938922453033186,502.3688923463983
0.5948853761483075,502.3688923463983
0.5958785069932964,502.3688923463983
0.5968716378382851,435.3688923463983
0.597864768683274,-519.6311076536017
0.5988578995282628,-519.6311076536017
0.5998510303732516,-519.6311076536017
0.6008441612182405,-519.6311076536017
0.6018372920632293,-519.6311076536017
0.6028304229082181,-519.6311076536017
0.603823553753207,-519.6311076536017
0.6048166845981958,-519.6311076536017
0.6058098154431846,-519.6311076536017
0.6068029462881734,137.3688923463983
0.6077960771331623,502.3688923463983
0.6087892079781511,503.3688923463983
0.6097823388231399,502.3688923463983
0.6107754696681288,502.3688923463983
0.6117686005131175,502.3688923463983
0.6127617313581064,502.3688923463983
0.6137548622030953,502.3688923463983
0.614747993048084,502.3688923463983
0.6157411238930729,502.3688923463983
0.6167342547380618,403.3688923463983
0.6177273855830505,-519.6311076536017
0.6187205164280394,-519.6311076536017
0.6197136472730282,-519.6311076536017
0.620706778118017,-519.6311076536017
0.6216999089630059,-519.6311076536017
0.6226930398079946,-519.6311076536017
0.6236861706529835,-519.6311076536017
0.6246793014979724,-519.6311076536017
0.6256724323429611,-519.6311076536017
0.62666556318795,162.3688923463983
0.6276586940329388,502.3688923463983
0.6286518248779276,502.3688923463983
0.6296449557229165,502.3688923463983
0.6306380865679053,502.3688923463983
0.6316312174128941,502.3688923463983
0.6326243482578829,502.3688923463983
0.6336174791028718,503.3688923463983
0.6346106099478606,502.3688923463983
0.6356037407928494,502.3688923463983
0.6365968716378383,363.3688923463983
0.637590002482827,-519.6311076536017
0.6385831333278159,-519.6311076536017
0.6395762641728048,-519.6311076536017
0.6405693950177935,-519.6311076536017
0.6415625258627824,-519.6311076536017
0.6425556567077713,-519.6311076536017
0.64354878755276,-519.6311076536017
0.6445419183977489,-519.6311076536017
0.6455350492427377,-519.6311076536017
0.6465281800877265,139.3688923463983
0.6475213109327154,502.3688923463983
0.6485144417777042,503.3688923463983
0.649507572622693,502.3688923463983
0.6505007034676819,502.3688923463983
0.6514938343126706,502.3688923463983
0.6524869651576595,502.3688923463983
0.6534800960026483,502.3688923463983
0.6544732268476371,502.3688923463983
0.655466357692626,502.3688923463983
0.6564594885376148,483.3688923463983
0.6574526193826036,-519.6311076536017
0.6584457502275924,-519.6311076536017
0.6594388810725813,-519.6311076536017
0.6604320119175701,-519.6311076536017
0.6614251427625589,-519.6311076536017
0.6624182736075478,-519.6311076536017
0.6634114044525365,-519.6311076536017
0.6644045352975254,-519.6311076536017
0.6653976661425143,-519.6311076536017
0.666390796987503,145.3688923463983
0.6673839278324919,502.3688923463983
0.6683770586774808,502.3688923463983
0.6693701895224695,502.3688923463983
0.6703633203674584,502.3688923463983
0.6713564512124472,502.3688923463983
0.672349582057436,503.3688923463983
0.6733427129024249,502.3688923463983
0.6743358437474137,502.3688923463983
0.6753289745924025,502.3688923463983
0.6763221054373914,459.3688923463983
0.6773152362823802,-519.6311076536017
0.678308367127369,-519.6311076536017
0.6793014979723578,-519.6311076536017
0.6802946288173467,-519.6311076536017
0.6812877596623355,-519.6311076536017
0.6822808905073243,-519.6311076536017
0.6832740213523132,-519.6311076536017
0.6842671521973019,-519.6311076536017
0.6852602830422908,-519.6311076536017
0.6862534138872796,79.3688923463983
0.6872465447322684,502.3688923463983
0.6882396755772573,502.3688923463983
0.689232806422246,502.3688923463983
0.6902259372672349,502.3688923463983
0.6912190681122238,502.3688923463983
0.6922121989572125,503.3688923463983
0.6932053298022014,502.3688923463983
0.6941984606471903,502.3688923463983
0.695191591492179,502.3688923463983
0.6961847223371679,500.3688923463983
0.6971778531821567,-519.6311076536017
0.6981709840271455,-519.6311076536017
0.6991641148721344,-519.6311076536017
0.7001572457171232,-519.6311076536017
0.701150376562112,-519.6311076536017
0.7021435074071009,-519.6311076536017
0.7031366382520897,-519.6311076536017
0.7041297690970785,-519.6311076536017
0.7051228999420673,-519.6311076536017
0.7061160307870562,97.3688923463983
0.707109161632045,502.3688923463983
0.7081022924770338,503.3688923463983
0.7090954233220227,502.3688923463983
0.7100885541670114,502.3688923463983
0.7110816850120003,502.3688923463983
0.7120748158569892,502.3688923463983
0.7130679467019779,503.3688923463983
0.7140610775469668,502.3688923463983
0.7150542083919555,502.3688923463983
0.7160473392369444,502.3688923463983
0.7170404700819333,-519.6311076536017
0.718033600926922,-519.6311076536017
0.7190267317719109,-519.6311076536017
0.7200198626168998,-519.6311076536017
0.7210129934618885,-519.6311076536017
0.7220061243068774,-519.6311076536017
0.7229992551518662,-519.6311076536017
0.723992385996855,-519.6311076536017
0.7249855168418439,-519.6311076536017
0.7259786476868327,25.368892346398297
0.7269717785318215,502.3688923463983
0.7279649093768104,503.3688923463983
0.7289580402217992,502.3688923463983
0.729951171066788,502.3688923463983
0.7309443019117768,502.3688923463983
0.7319374327567657,502.3688923463983
0.7329305636017545,503.3688923463983
0.7339236944467433,502.3688923463983
0.7349168252917322,502.3688923463983
0.7359099561367209,502.3688923463983
0.7369030869817098,-519.6311076536017
0.7378962178266987,-519.6311076536017
0.7388893486716874,-519.6311076536017
0.7398824795166763,-519.6311076536017
0.7408756103616652,-519.6311076536017
0.7418687412066539,-519.6311076536017
0.7428618720516428,-519.6311076536017
0.7438550028966316,-519.6311076536017
0.7448481337416204,-519.6311076536017
0.7458412645866093,57.3688923463983
0.7468343954315981,502.3688923463983
0.7478275262765869,502.3688923463983
0.7488206571215758,502.3688923463983
0.7498137879665645,502.3688923463983
0.7508069188115534,502.3688923463983
0.7518000496565422,502.3688923463983
0.752793180501531,502.3688923463983
0.7537863113465199,502.3688923463983
0.7547794421915087,502.3688923463983
0.7557725730364975,502.3688923463983
0.7567657038814863,-519.6311076536017
0.7577588347264752,-519.6311076536017
0.758751965571464,-519.6311076536017
0.7597450964164528,-519.6311076536017
0.7607382272614417,-519.6311076536017
0.7617313581064304,-519.6311076536017
0.7627244889514193,-519.6311076536017
0.7637176197964082,-519.6311076536017
0.7647107506413969,-519.6311076536017
0.7657038814863858,29.368892346398297
0.7666970123313747,502.3688923463983
0.7676901431763634,502.3688923463983
0.7686832740213523,502.3688923463983
0.7696764048663411,502.3688923463983
0.7706695357113299,502.3688923463983
0.7716626665563188,503.3688923463983
0.7726557974013076,502.3688923463983
0.7736489282462964,502.3688923463983
0.7746420590912853,502.3688923463983
0.7756351899362741,502.3688923463983
0.7766283207812629,-519.6311076536017
0.7776214516262517,-519.6311076536017
0.7786145824712405,-519.6311076536017
0.7796077133162294,-519.6311076536017
0.7806008441612182,-519.6311076536017
0.781593975006207,-519.6311076536017
0.7825871058511958,-519.6311076536017
0.7835802366961847,-519.6311076536017
0.7845733675411735,-519.6311076536017
0.7855664983861623,-37.6311076536017
0.7865596292311512,502.3688923463983
0.78755276007614,502.3688923463983
0.7885458909211288,502.3688923463983
0.7895390217661177,502.3688923463983
0.7905321526111064,502.3688923463983
0.7915252834560953,502.3688923463983
0.7925184143010842,502.3688923463983
0.7935115451460729,502.3688923463983
0.7945046759910618,502.3688923463983
0.7954978068360506,502.3688923463983
0.7964909376810394,-519.6311076536017
0.7974840685260283,-519.6311076536017
0.7984771993710171,-519.6311076536017
0.7994703302160059,-519.6311076536017
0.8004634610609948,-519.6311076536017
0.8014565919059836,-519.6311076536017
0.8024497227509724,-519.6311076536017
0.8034428535959612,-519.6311076536017
0.8044359844409501,-519.6311076536017
0.8054291152859389,9.368892346398297
0.8064222461309277,502.3688923463983
0.8074153769759166,503.3688923463983
0.8084085078209053,502.3688923463983
0.8094016386658942,502.3688923463983
0.8103947695108831,502.3688923463983
0.8113879003558718,502.3688923463983
0.8123810312008607,502.3688923463983
0.8133741620458494,502.3688923463983
0.8143672928908383,502.3688923463983
0.8153604237358272,502.3688923463983
0.8163535545808159,-519.6311076536017
0.8173466854258048,-519.6311076536017
0.8183398162707937,-519.6311076536017
0.8193329471157824,-519.6311076536017
0.8203260779607713,-519.6311076536017
0.8213192088057601,-519.6311076536017
0.8223123396507489,-519.6311076536017
0.8233054704957378,-519.6311076536017
0.8242986013407266,-519.6311076536017
0.8252917321857154,-41.6311076536017
0.8262848630307043,502.3688923463983
0.8272779938756931,502.3688923463983
0.8282711247206819,502.3688923463983
0.8292642555656707,502.3688923463983
0.8302573864106596,502.3688923463983
0.8312505172556484,502.3688923463983
0.8322436481006372,503.3688923463983
0.8332367789456261,502.3688923463983
0.8342299097906148,502.3688923463983
0.8352230406356037,502.3688923463983
0.8362161714805926,-519.6311076536017
0.8372093023255813,-519.6311076536017
0.8382024331705702,-519.6311076536017
0.8391955640155591,-519.6311076536017
0.8401886948605478,-519.6311076536017
0.8411818257055367,-519.6311076536017
0.8421749565505254,-519.6311076536017
0.8431680873955143,-519.6311076536017
0.8441612182405032,-519.6311076536017
0.8451543490854919,-20.631107653601703
0.8461474799304808,502.3688923463983
0.8471406107754696,502.3688923463983
0.8481337416204584,502.3688923463983
0.8491268724654473,502.3688923463983
0.8501200033104361,502.3688923463983
0.8511131341554249,502.3688923463983
0.8521062650004138,502.3688923463983
0.8530993958454026,502.3688923463983
0.8540925266903914,502.3688923463983
0.8550856575353802,502.3688923463983
0.8560787883803691,-519.6311076536017
0.8570719192253579,-519.6311076536017
0.8580650500703467,-519.6311076536017
0.8590581809153356,-519.6311076536017
0.8600513117603243,-519.6311076536017
0.8610444426053132,-519.6311076536017
0.8620375734503021,-519.6311076536017
0.8630307042952908,-519.6311076536017
0.8640238351402797,-519.6311076536017
0.8650169659852686,-103.6311076536017
0.8660100968302573,502.3688923463983
0.8670032276752462,503.3688923463983
0.867996358520235,502.3688923463983
0.8689894893652238,502.3688923463983
0.8699826202102127,502.3688923463983
0.8709757510552015,502.3688923463983
0.8719688819001903,502.3688923463983
0.8729620127451792,502.3688923463983
0.873955143590168,502.3688923463983
0.8749482744351568,502.3688923463983
0.8759414052801456,-519.6311076536017
0.8769345361251344,-519.6311076536017
0.8779276669701233,-519.6311076536017
0.8789207978151121,-519.6311076536017
0.8799139286601009,-519.6311076536017
0.8809070595050897,-519.6311076536017
0.8819001903500786,-519.6311076536017
0.8828933211950674,-519.6311076536017
0.8838864520400562,-519.6311076536017
0.8848795828850451,-113.6311076536017
0.8858727137300338,502.3688923463983
0.8868658445750227,502.3688923463983
0.8878589754200116,502.3688923463983
0.8888521062650003,502.3688923463983
0.8898452371099892,502.3688923463983
0.8908383679549781,503.3688923463983
0.8918314987999668,502.3688923463983
0.8928246296449557,502.3688923463983
0.8938177604899445,502.3688923463983
0.8948108913349333,502.3688923463983
0.8958040221799222,-519.6311076536017
0.896797153024911,-519.6311076536017
0.8977902838698998,-519.6311076536017
0.8987834147148887,-519.6311076536017
0.8997765455598775,-519.6311076536017
0.9007696764048663,-519.6311076536017
0.9017628072498551,-519.6311076536017
0.902755938094844,-519.6311076536017
0.9037490689398328,-519.6311076536017
0.9047421997848216,-79.6311076536017
0.9057353306298104,502.3688923463983
0.9067284614747992,503.3688923463983
0.9077215923197881,502.3688923463983
0.9087147231647769,502.3688923463983
0.9097078540097657,502.3688923463983
0.9107009848547546,502.3688923463983
0.9116941156997433,503.3688923463983
0.9126872465447322,502.3688923463983
0.9136803773897211,502.3688923463983
0.9146735082347098,502.3688923463983
0.9156666390796987,-519.6311076536017
0.9166597699246876,-519.6311076536017
0.9176529007696763,-519.6311076536017
0.9186460316146652,-519.6311076536017
0.919639162459654,-519.6311076536017
0.9206322933046428,-519.6311076536017
0.9216254241496317,-519.6311076536017
0.9226185549946205,-519.6311076536017
0.9236116858396093,-519.6311076536017
0.9246048166845982,-89.6311076536017
0.925597947529587,502.3688923463983
0.9265910783745758,502.3688923463983
0.9275842092195646,502.3688923463983
0.9285773400645535,502.3688923463983
0.9295704709095423,502.3688923463983
0.9305636017545311,502.3688923463983
0.93155673259952,503.3688923463983
0.9325498634445087,502.3688923463983
0.9335429942894976,502.3688923463983
0.9345361251344865,502.3688923463983
0.9355292559794752,-519.6311076536017
0.9365223868244641,-519.6311076536017
0.937515517669453,-519.6311076536017
0.9385086485144417,-519.6311076536017
0.9395017793594306,-519.6311076536017
0.9404949102044193,-519.6311076536017
0.9414880410494082,-519.6311076536017
0.9424811718943971,-519.6311076536017
0.9434743027393858,-519.6311076536017
0.9444674335843747,-118.6311076536017
0.9454605644293635,502.3688923463983
0.9464536952743523,502.3688923463983
0.9474468261193412,502.3688923463983
0.94843995696433,502.3688923463983
0.9494330878093188,502.3688923463983
0.9504262186543077,502.3688923463983
0.9514193494992965,502.3688923463983
0.9524124803442853,502.3688923463983
0.9534056111892741,502.3688923463983
0.954398742034263,502.3688923463983
0.9553918728792518,-519.6311076536017
0.9563850037242406,-519.6311076536017
0.9573781345692295,-519.6311076536017
0.9583712654142182,-519.6311076536017
0.9593643962592071,-519.6311076536017
0.960357527104196,-519.6311076536017
0.9613506579491847,-519.6311076536017
0.9623437887941736,-519.6311076536017
0.9633369196391625,-519.6311076536017
0.9643300504841512,-148.6311076536017
0.9653231813291401,502.3688923463983
0.9663163121741289,502.3688923463983
0.9673094430191177,502.3688923463983
0.9683025738641066,502.3688923463983
0.9692957047090953,502.3688923463983
0.9702888355540842,502.3688923463983
0.971281966399073,502.3688923463983
0.9722750972440618,502.3688923463983
0.9732682280890507,502.3688923463983
0.9742613589340395,502.3688923463983
0.9752544897790283,-519.6311076536017
0.9762476206240172,-519.6311076536017
0.977240751469006,-519.6311076536017
0.9782338823139948,-519.6311076536017
0.9792270131589836,-519.6311076536017
0.9802201440039725,-519.6311076536017
0.9812132748489613,-519.6311076536017
0.9822064056939501,-519.6311076536017
0.983199536538939,-519.6311076536017
0.9841926673839277,-180.6311076536017
0.9851857982289166,502.3688923463983
0.9861789290739055,503.3688923463983
0.9871720599188942,502.3688923463983
0.9881651907638831,502.3688923463983
0.989158321608872,502.3688923463983
0.9901514524538607,503.3688923463983
0.9911445832988496,502.3688923463983
0.9921377141438384,502.3688923463983
0.9931308449888272,502.3688923463983
0.9941239758338161,502.3688923463983
0.9951171066788049,-519.6311076536017
0.9961102375237937,-519.6311076536017
0.9971033683687825,-519.6311076536017
0.9980964992137714,-519.6311076536017
0.9990896300587602,-519.6311076536017
1.000082760903749,-519.6311076536017
1.001075891748738,-519.6311076536017
1.0020690225937268,-519.6311076536017
1.0030621534387154,-519.6311076536017
1.0040552842837043,-157.6311076536017
1.0050484151286931,502.3688923463983
1.006041545973682,503.3688923463983
1.0070346768186709,502.3688923463983
1.0080278076636597,502.3688923463983
1.0090209385086484,502.3688923463983
1.0100140693536372,502.3688923463983
1.011007200198626,502.3688923463983
1.012000331043615,502.3688923463983
1.0129934618886038,502.3688923463983
1.0139865927335927,502.3688923463983
1.0149797235785813,-519.6311076536017
1.0159728544235702,-519.6311076536017
1.016965985268559,-519.6311076536017
1.017959116113548,-519.6311076536017
1.0189522469585368,-519.6311076536017
1.0199453778035255,-519.6311076536017
1.0209385086485143,-519.6311076536017
1.0219316394935032,-519.6311076536017
1.022924770338492,-519.6311076536017
1.023917901183481,-172.6311076536017
1.0249110320284698,502.3688923463983
1.0259041628734584,502.3688923463983
1.0268972937184473,502.3688923463983
1.0278904245634362,502.3688923463983
1.028883555408425,502.3688923463983
1.0298766862534139,502.3688923463983
1.0308698170984028,503.3688923463983
1.0318629479433914,502.3688923463983
1.0328560787883803,502.3688923463983
1.0338492096333691,502.3688923463983
1.034842340478358,-519.6311076536017
1.0358354713233469,-519.6311076536017
1.0368286021683357,-519.6311076536017
1.0378217330133244,-519.6311076536017
1.0388148638583132,-519.6311076536017
1.039807994703302,-519.6311076536017
1.040801125548291,-519.6311076536017
1.0417942563932798,-519.6311076536017
1.0427873872382687,-519.6311076536017
1.0437805180832573,-204.6311076536017
1.0447736489282462,502.3688923463983
1.045766779773235,502.3688923463983
1.046759910618224,502.3688923463983
1.0477530414632128,502.3688923463983
1.0487461723082014,502.3688923463983
1.0497393031531903,502.3688923463983
1.0507324339981792,502.3688923463983
1.051725564843168,502.3688923463983
1.052718695688157,502.3688923463983
1.0537118265331458,502.3688923463983
1.0547049573781344,-519.6311076536017
1.0556980882231233,-519.6311076536017
1.0566912190681121,-519.6311076536017
1.057684349913101,-519.6311076536017
1.0586774807580899,-519.6311076536017
1.0596706116030787,-519.6311076536017
1.0606637424480674,-519.6311076536017
1.0616568732930562,-519.6311076536017
1.0626500041380451,-519.6311076536017
1.063643134983034,-238.6311076536017
1.0646362658280228,502.3688923463983
1.0656293966730117,502.3688923463983
1.0666225275180004,502.3688923463983
1.0676156583629892,502.3688923463983
1.068608789207978,502.3688923463983
1.069601920052967,502.3688923463983
1.0705950508979558,502.3688923463983
1.0715881817429447,502.3688923463983
1.0725813125879333,502.3688923463983
1.0735744434329222,502.3688923463983
1.074567574277911,-519.6311076536017
1.0755607051229,-519.6311076536017
1.0765538359678888,-519.6311076536017
1.0775469668128776,-519.6311076536017
1.0785400976578663,-519.6311076536017
1.0795332285028552,-519.6311076536017
1.080526359347844,-519.6311076536017
1.0815194901928329,-519.6311076536017
1.0825126210378218,-519.6311076536017
1.0835057518828104,-232.6311076536017
1.0844988827277993,502.3688923463983
1.0854920135727881,502.3688923463983
1.086485144417777,502.3688923463983
1.0874782752627659,502.3688923463983
1.0884714061077547,502.3688923463983
1.0894645369527434,503.3688923463983
1.0904576677977322,502.3688923463983
1.091450798642721,502.3688923463983
1.09244392948771,502.3688923463983
1.0934370603326988,502.3688923463983
1.0944301911776877,-519.6311076536017
1.0954233220226763,-519.6311076536017
1.0964164528676652,-519.6311076536017
1.097409583712654,-519.6311076536017
1.098402714557643,-519.6311076536017
1.0993958454026318,-519.6311076536017
1.1003889762476207,-519.6311076536017
1.1013821070926093,-519.6311076536017
1.1023752379375982,-519.6311076536017
1.103368368782587,-242.6311076536017
1.104361499627576,502.3688923463983
1.1053546304725648,503.3688923463983
1.1063477613175536,502.3688923463983
1.1073408921625423,502.3688923463983
1.1083340230075311,502.3688923463983
1.10932715385252,502.3688923463983
1.1103202846975089,503.3688923463983
1.1113134155424977,502.3688923463983
1.1123065463874866,502.3688923463983
1.1132996772324752,502.3688923463983
1.1142928080774641,-519.6311076536017
1.115285938922453,-519.6311076536017
1.1162790697674418,-519.6311076536017
1.1172722006124307,-519.6311076536017
1.1182653314574194,-519.6311076536017
1.1192584623024082,-519.6311076536017
1.120251593147397,-519.6311076536017
1.121244723992386,-519.6311076536017
1.1222378548373748,-519.6311076536017
1.1232309856823637,-274.6311076536017
1.1242241165273523,502.3688923463983
1.1252172473723412,502.3688923463983
1.12621037821733,502.3688923463983
1.127203509062319,502.3688923463983
1.1281966399073078,502.3688923463983
1.1291897707522967,502.3688923463983
1.1301829015972853,503.3688923463983
1.1311760324422742,502.3688923463983
1.132169163287263,502.3688923463983
1.133162294132252,502.3688923463983
1.1341554249772408,-519.6311076536017
1.1351485558222296,-519.6311076536017
1.1361416866672183,-519.6311076536017
1.1371348175122071,-519.6311076536017
1.138127948357196,-519.6311076536017
1.1391210792021849,-519.6311076536017
1.1401142100471737,-519.6311076536017
1.1411073408921626,-519.6311076536017
1.1421004717371512,-519.6311076536017
1.14309360258214,-293.6311076536017
1.144086733427129,502.3688923463983
1.1450798642721178,502.3688923463983
1.1460729951171067,502.3688923463983
1.1470661259620953,502.3688923463983
1.1480592568070842,502.3688923463983
1.149052387652073,502.3688923463983
1.150045518497062,502.3688923463983
1.1510386493420508,502.3688923463983
1.1520317801870397,502.3688923463983
1.1530249110320283,502.3688923463983
1.1540180418770172,-519.6311076536017
1.155011172722006,-519.6311076536017
1.156004303566995,-519.6311076536017
1.1569974344119838,-519.6311076536017
1.1579905652569726,-519.6311076536017
1.1589836961019613,-519.6311076536017
1.1599768269469501,-519.6311076536017
1.160969957791939,-519.6311076536017
1.1619630886369279,-519.6311076536017
1.1629562194819167,-387.6311076536017
1.1639493503269056,502.3688923463983
1.1649424811718943,503.3688923463983
1.1659356120168831,502.3688923463983
1.166928742861872,502.3688923463983
1.1679218737068608,502.3688923463983
1.1689150045518497,503.3688923463983
1.1699081353968386,502.3688923463983
1.1709012662418272,502.3688923463983
1.171894397086816,502.3688923463983
1.172887527931805,502.3688923463983
1.1738806587767938,-519.6311076536017
1.1748737896217827,-519.6311076536017
1.1758669204667713,-519.6311076536017
1.1768600513117602,-519.6311076536017
1.177853182156749,-519.6311076536017
1.178846313001738,-519.6311076536017
1.1798394438467268,-519.6311076536017
1.1808325746917157,-519.6311076536017
1.1818257055367043,-519.6311076536017
1.1828188363816932,-416.6311076536017
1.183811967226682,502.3688923463983
1.184805098071671,502.3688923463983
1.1857982289166598,502.3688923463983
1.1867913597616486,502.3688923463983
1.1877844906066373,502.3688923463983
1.1887776214516261,503.3688923463983
1.189770752296615,503.3688923463983
1.1907638831416039,502.3688923463983
1.1917570139865927,502.3688923463983
1.1927501448315816,502.3688923463983
1.1937432756765702,-519.6311076536017
1.194736406521559,-519.6311076536017
1.195729537366548,-519.6311076536017
1.1967226682115368,-519.6311076536017
1.1977157990565257,-519.6311076536017
1.1987089299015146,-519.6311076536017
1.1997020607465032,-519.6311076536017
1.200695191591492,-519.6311076536017
1.201688322436481,-519.6311076536017
1.2026814532814698,-431.6311076536017
1.2036745841264587,502.3688923463983
1.2046677149714475,502.3688923463983
1.2056608458164362,502.3688923463983
1.206653976661425,502.3688923463983
1.207647107506414,502.3688923463983
1.2086402383514028,502.3688923463983
1.2096333691963916,502.3688923463983
1.2106265000413803,502.3688923463983
1.2116196308863691,502.3688923463983
1.212612761731358,502.3688923463983
1.2136058925763469,-519.6311076536017
1.2145990234213357,-519.6311076536017
1.2155921542663246,-519.6311076536017
1.2165852851113133,-519.6311076536017
1.2175784159563021,-519.6311076536017
1.218571546801291,-519.6311076536017
1.2195646776462798,-519.6311076536017
1.2205578084912687,-519.6311076536017
1.2215509393362576,-519.6311076536017
1.2225440701812462,-519.6311076536017
1.223537201026235,502.3688923463983
1.224530331871224,503.3688923463983
1.2255234627162128,502.3688923463983
1.2265165935612017,502.3688923463983
1.2275097244061905,502.3688923463983
1.2285028552511792,502.3688923463983
1.229495986096168,503.3688923463983
1.230489116941157,502.3688923463983
1.2314822477861458,502.3688923463983
1.2324753786311347,502.3688923463983
1.2334685094761235,-519.6311076536017
1.2344616403211122,-519.6311076536017
1.235454771166101,-519.6311076536017
1.23644790201109,-519.6311076536017
1.2374410328560788,-519.6311076536017
1.2384341637010676,-519.6311076536017
1.2394272945460565,-519.6311076536017
1.2404204253910451,-519.6311076536017
1.241413556236034,-519.6311076536017
1.2424066870810229,-474.6311076536017
1.2433998179260117,502.3688923463983
1.2443929487710006,502.3688923463983
1.2453860796159892,502.3688923463983
1.246379210460978,502.3688923463983
1.247372341305967,502.3688923463983
1.2483654721509558,502.3688923463983
1.2493586029959447,502.3688923463983
1.2503517338409336,502.3688923463983
1.2513448646859222,502.3688923463983
1.252337995530911,502.3688923463983
1.2533311263759,-519.6311076536017
1.2543242572208888,-519.6311076536017
1.2553173880658777,-519.6311076536017
1.2563105189108665,-519.6311076536017
1.2573036497558552,-519.6311076536017
1.258296780600844,-519.6311076536017
1.259289911445833,-519.6311076536017
1.2602830422908218,-519.6311076536017
1.2612761731358106,-519.6311076536017
1.2622693039807995,-429.6311076536017
1.2632624348257881,502.3688923463983
1.264255565670777,503.3688923463983
1.2652486965157659,502.3688923463983
1.2662418273607547,502.3688923463983
1.2672349582057436,502.3688923463983
1.2682280890507325,502.3688923463983
1.2692212198957211,502.3688923463983
1.27021435074071,502.3688923463983
1.2712074815856989,502.3688923463983
1.2722006124306877,502.3688923463983
1.2731937432756766,-519.6311076536017
1.2741868741206652,-519.6311076536017
1.275180004965654,-519.6311076536017
1.276173135810643,-519.6311076536017
1.2771662666556318,-519.6311076536017
1.2781593975006207,-519.6311076536017
1.2791525283456096,-519.6311076536017
1.2801456591905982,-519.6311076536017
1.281138790035587,-519.6311076536017
1.282131920880576,-519.6311076536017
1.2831250517255648,502.3688923463983
1.2841181825705537,502.3688923463983
1.2851113134155425,502.3688923463983
1.2861044442605312,502.3688923463983
1.28709757510552,502.3688923463983
1.288090705950509,503.3688923463983
1.2890838367954978,503.3688923463983
1.2900769676404866,502.3688923463983
1.2910700984854755,502.3688923463983
1.2920632293304641,502.3688923463983
1.293056360175453,-519.6311076536017
1.2940494910204419,-519.6311076536017
1.2950426218654307,-519.6311076536017
1.2960357527104196,-519.6311076536017
1.2970288835554085,-519.6311076536017
1.298022014400397,-519.6311076536017
1.299015145245386,-519.6311076536017
1.3000082760903748,-519.6311076536017
1.3010014069353637,-519.6311076536017
1.3019945377803526,-519.6311076536017
1.3029876686253412,502.3688923463983
1.30398079947033,503.3688923463983
1.304973930315319,502.3688923463983
1.3059670611603078,502.3688923463983
1.3069601920052967,502.3688923463983
1.3079533228502855,502.3688923463983
1.3089464536952742,502.3688923463983
1.309939584540263,502.3688923463983
1.310932715385252,502.3688923463983
1.3119258462302408,502.3688923463983
1.3129189770752296,-519.6311076536017
1.3139121079202185,-519.6311076536017
1.3149052387652072,-519.6311076536017
1.315898369610196,-519.6311076536017
1.3168915004551849,-519.6311076536017
1.3178846313001737,-519.6311076536017
1.3188777621451626,-519.6311076536017
1.3198708929901515,-519.6311076536017
1.3208640238351401,-519.6311076536017
1.321857154680129,-519.6311076536017
1.3228502855251179,502.3688923463983
1.3238434163701067,502.3688923463983
1.3248365472150956,502.3688923463983
1.3258296780600844,502.3688923463983
1.326822808905073,502.3688923463983
1.327815939750062,502.3688923463983
1.3288090705950508,503.3688923463983
1.3298022014400397,502.3688923463983
1.3307953322850286,502.3688923463983
1.3317884631300174,502.3688923463983
1.332781593975006,-519.6311076536017
1.333774724819995,-519.6311076536017
1.3347678556649838,-519.6311076536017
1.3357609865099727,-519.6311076536017
1.3367541173549615,-519.6311076536017
1.3377472481999502,-519.6311076536017
1.338740379044939,-519.6311076536017
1.339733509889928,-519.6311076536017
1.3407266407349168,-519.6311076536017
1.3417197715799056,-519.6311076536017
1.3427129024248945,502.3688923463983
1.3437060332698831,502.3688923463983
1.344699164114872,502.3688923463983
1.3456922949598609,502.3688923463983
1.3466854258048497,502.3688923463983
1.3476785566498386,502.3688923463983
1.3486716874948275,502.3688923463983
1.349664818339816,502.3688923463983
1.350657949184805,502.3688923463983
1.3516510800297938,502.3688923463983
1.3526442108747827,-519.6311076536017
1.3536373417197716,-519.6311076536017
1.3546304725647604,-519.6311076536017
1.355623603409749,-519.6311076536017
1.356616734254738,-519.6311076536017
1.3576098650997268,-519.6311076536017
1.3586029959447157,-519.6311076536017
1.3595961267897045,-519.6311076536017
1.3605892576346934,-519.6311076536017
1.361582388479682,-519.6311076536017
1.362575519324671,502.3688923463983
1.3635686501696598,502.3688923463983
1.3645617810146486,502.3688923463983
1.3655549118596375,502.3688923463983
1.3665480427046264,502.3688923463983
1.367541173549615,502.3688923463983
1.3685343043946039,502.3688923463983
1.3695274352395927,502.3688923463983
1.3705205660845816,502.3688923463983
1.3715136969295705,502.3688923463983
1.3725068277745591,-519.6311076536017
1.373499958619548,-519.6311076536017
1.3744930894645369,-519.6311076536017
1.3754862203095257,-519.6311076536017
1.3764793511545146,-519.6311076536017
1.3774724819995035,-519.6311076536017
1.378465612844492,-519.6311076536017
1.379458743689481,-519.6311076536017
1.3804518745344698,-519.6311076536017
1.3814450053794587,-519.6311076536017
1.3824381362244476,502.3688923463983
1.3834312670694364,503.3688923463983
1.384424397914425,502.3688923463983
1.385417528759414,502.3688923463983
1.3864106596044028,502.3688923463983
1.3874037904493917,502.3688923463983
1.3883969212943805,503.3688923463983
1.3893900521393694,502.3688923463983
1.390383182984358,502.3688923463983
1.391376313829347,502.3688923463983
1.3923694446743358,-519.6311076536017
1.3933625755193246,-519.6311076536017
1.3943557063643135,-519.6311076536017
1.3953488372093024,-519.6311076536017
1.396341968054291,-519.6311076536017
1.3973350988992799,-519.6311076536017
1.3983282297442687,-519.6311076536017
1.3993213605892576,-519.6311076536017
1.4003144914342465,-519.6311076536017
1.401307622279235,-519.6311076536017
1.402300753124224,502.3688923463983
1.4032938839692128,503.3688923463983
1.4042870148142017,502.3688923463983
1.4052801456591906,502.3688923463983
1.4062732765041794,502.3688923463983
1.407266407349168,502.3688923463983
1.408259538194157,503.3688923463983
1.4092526690391458,502.3688923463983
1.4102457998841347,502.3688923463983
1.4112389307291235,502.3688923463983
1.4122320615741124,-519.6311076536017
1.413225192419101,-519.6311076536017
1.41421832326409,-519.6311076536017
1.4152114541090788,-519.6311076536017
1.4162045849540676,-519.6311076536017
1.4171977157990565,-519.6311076536017
1.4181908466440454,-519.6311076536017
1.419183977489034,-519.6311076536017
1.4201771083340229,-519.6311076536017
1.4211702391790118,-519.6311076536017
1.4221633700240006,502.3688923463983
1.4231565008689895,502.3688923463983
1.4241496317139783,502.3688923463983
1.425142762558967,502.3688923463983
1.4261358934039559,502.3688923463983
1.4271290242489447,502.3688923463983
1.4281221550939336,503.3688923463983
1.4291152859389225,502.3688923463983
1.430108416783911,502.3688923463983
1.4311015476289,502.3688923463983
1.4320946784738888,-519.6311076536017
1.4330878093188777,-519.6311076536017
1.4340809401638666,-519.6311076536017
1.4350740710088554,-519.6311076536017
1.436067201853844,-519.6311076536017
1.437060332698833,-519.6311076536017
1.4380534635438218,-519.6311076536017
1.4390465943888107,-519.6311076536017
1.4400397252337995,-519.6311076536017
1.4410328560787884,-519.6311076536017
1.442025986923777,502.3688923463983
1.443019117768766,502.3688923463983
1.4440122486137548,502.3688923463983
1.4450053794587436,502.3688923463983
1.4459985103037325,502.3688923463983
1.4469916411487214,502.3688923463983
1.44798477199371,502.3688923463983
1.4489779028386989,502.3688923463983
1.4499710336836877,502.3688923463983
1.4509641645286766,502.3688923463983
1.4519572953736655,-519.6311076536017
1.4529504262186543,-519.6311076536017
1.453943557063643,-519.6311076536017
1.4549366879086318,-519.6311076536017
1.4559298187536207,-519.6311076536017
1.4569229495986096,-519.6311076536017
1.4579160804435984,-519.6311076536017
1.4589092112885873,-519.6311076536017
1.459902342133576,-519.6311076536017
1.4608954729785648,-519.6311076536017
1.4618886038235537,502.3688923463983
1.4628817346685425,503.3688923463983
1.4638748655135314,502.3688923463983
1.46486799635852,502.3688923463983
1.465861127203509,502.3688923463983
1.4668542580484978,502.3688923463983
1.4678473888934866,502.3688923463983
1.4688405197384755,502.3688923463983
1.4698336505834644,502.3688923463983
1.470826781428453,502.3688923463983
1.4718199122734419,-519.6311076536017
1.4728130431184308,-519.6311076536017
1.4738061739634196,-519.6311076536017
1.4747993048084085,-519.6311076536017
1.4757924356533973,-519.6311076536017
1.476785566498386,-519.6311076536017
1.4777786973433749,-519.6311076536017
1.4787718281883637,-519.6311076536017
1.4797649590333526,-519.6311076536017
1.4807580898783415,-519.6311076536017
1.4817512207233303,502.3688923463983
1.482744351568319,503.3688923463983
1.4837374824133078,502.3688923463983
1.4847306132582967,502.3688923463983
1.4857237441032856,502.3688923463983
1.4867168749482744,503.3688923463983
1.4877100057932633,502.3688923463983
1.488703136638252,502.3688923463983
1.4896962674832408,502.3688923463983
1.4906893983282297,502.3688923463983
1.4916825291732185,-519.6311076536017
1.4926756600182074,-519.6311076536017
1.4936687908631963,-519.6311076536017
1.494661921708185,-519.6311076536017
1.4956550525531738,-519.6311076536017
1.4966481833981626,-519.6311076536017
1.4976413142431515,-519.6311076536017
1.4986344450881404,-519.6311076536017
1.499627575933129,-519.6311076536017
1.5006207067781179,-64.6311076536017
1.5016138376231067,502.3688923463983
1.5026069684680956,503.3688923463983
1.5036000993130845,502.3688923463983
1.5045932301580733,502.3688923463983
1.505586361003062,502.3688923463983
1.5065794918480508,502.3688923463983
1.5075726226930397,503.3688923463983
1.5085657535380286,502.3688923463983
1.5095588843830174,502.3688923463983
1.5105520152280063,502.3688923463983
1.511545146072995,-519.6311076536017
1.5125382769179838,-519.6311076536017
1.5135314077629727,-519.6311076536017
1.5145245386079615,-519.6311076536017
1.5155176694529504,-519.6311076536017
1.5165108002979393,-519.6311076536017
1.517503931142928,-519.6311076536017
1.5184970619879168,-519.6311076536017
1.5194901928329057,-519.6311076536017
1.5204833236778945,-519.6311076536017
1.5214764545228834,502.3688923463983
1.5224695853678722,502.3688923463983
1.523462716212861,502.3688923463983
1.5244558470578498,502.3688923463983
1.5254489779028386,502.3688923463983
1.5264421087478275,502.3688923463983
1.5274352395928164,503.3688923463983
1.528428370437805,502.3688923463983
1.5294215012827939,502.3688923463983
1.5304146321277827,386.3688923463983
1.5314077629727716,-519.6311076536017
1.5324008938177605,-519.6311076536017
1.5333940246627493,-519.6311076536017
1.534387155507738,-519.6311076536017
1.5353802863527268,-519.6311076536017
1.5363734171977157,-519.6311076536017
1.5373665480427046,-519.6311076536017
1.5383596788876934,-519.6311076536017
1.5393528097326823,-519.6311076536017
1.540345940577671,-519.6311076536017
1.5413390714226598,502.3688923463983
1.5423322022676487,502.3688923463983
1.5433253331126375,502.3688923463983
1.5443184639576264,502.3688923463983
1.5453115948026153,502.3688923463983
1.546304725647604,502.3688923463983
1.5472978564925928,502.3688923463983
1.5482909873375816,502.3688923463983
1.5492841181825705,502.3688923463983
1.5502772490275594,502.3688923463983
1.5512703798725482,-519.6311076536017
1.5522635107175369,-519.6311076536017
1.5532566415625257,-519.6311076536017
1.5542497724075146,-519.6311076536017
1.5552429032525035,-519.6311076536017
1.5562360340974923,-519.6311076536017
1.557229164942481,-519.6311076536017
1.5582222957874698,-519.6311076536017
1.5592154266324587,-519.6311076536017
1.5602085574774476,-90.6311076536017
1.5612016883224364,502.3688923463983
1.5621948191674253,502.3688923463983
1.563187950012414,502.3688923463983
1.5641810808574028,502.3688923463983
1.5651742117023917,502.3688923463983
1.5661673425473805,502.3688923463983
1.5671604733923694,502.3688923463983
1.5681536042373583,502.3688923463983
1.569146735082347,502.3688923463983
1.5701398659273358,502.3688923463983
1.5711329967723247,-519.6311076536017
1.5721261276173135,-519.6311076536017
1.5731192584623024,-519.6311076536017
1.5741123893072912,-519.6311076536017
1.57510552015228,-519.6311076536017
1.5760986509972688,-519.6311076536017
1.5770917818422576,-519.6311076536017
1.5780849126872465,-519.6311076536017
1.5790780435322354,-519.6311076536017
1.5800711743772242,-519.6311076536017
1.5810643052222129,502.3688923463983
1.5820574360672017,503.3688923463983
1.5830505669121906,502.3688923463983
1.5840436977571795,502.3688923463983
1.5850368286021683,502.3688923463983
1.5860299594471572,503.3688923463983
1.5870230902921458,503.3688923463983
1.5880162211371347,502.3688923463983
1.5890093519821236,502.3688923463983
1.5900024828271124,502.3688923463983
1.5909956136721013,-519.6311076536017
1.59198874451709,-519.6311076536017
1.5929818753620788,-519.6311076536017
1.5939750062070677,-519.6311076536017
1.5949681370520565,-519.6311076536017
1.5959612678970454,-519.6311076536017
1.5969543987420343,-519.6311076536017
1.597947529587023,-519.6311076536017
1.5989406604320118,-519.6311076536017
1.5999337912770006,-519.6311076536017
1.6009269221219895,502.3688923463983
1.6019200529669784,503.3688923463983
1.6029131838119672,502.3688923463983
1.6039063146569559,502.3688923463983
1.6048994455019447,502.3688923463983
1.6058925763469336,502.3688923463983
1.6068857071919225,503.3688923463983
1.6078788380369113,502.3688923463983
1.6088719688819002,502.3688923463983
1.6098650997268888,502.3688923463983
1.6108582305718777,-519.6311076536017
1.6118513614168666,-519.6311076536017
1.6128444922618554,-519.6311076536017
1.6138376231068443,-519.6311076536017
1.6148307539518332,-519.6311076536017
1.6158238847968218,-519.6311076536017
1.6168170156418107,-519.6311076536017
1.6178101464867995,-519.6311076536017
1.6188032773317884,-519.6311076536017
1.6197964081767773,-259.6311076536017
1.6207895390217661,502.3688923463983
1.6217826698667548,502.3688923463983
1.6227758007117437,502.3688923463983
1.6237689315567325,502.3688923463983
1.6247620624017214,502.3688923463983
1.6257551932467103,502.3688923463983
1.626748324091699,503.3688923463983
1.6277414549366878,502.3688923463983
1.6287345857816766,502.3688923463983
1.6297277166266655,502.3688923463983
1.6307208474716544,-519.6311076536017
1.6317139783166432,-519.6311076536017
1.6327071091616319,-519.6311076536017
1.6337002400066207,-519.6311076536017
1.6346933708516096,-519.6311076536017
1.6356865016965985,-519.6311076536017
1.6366796325415873,-519.6311076536017
1.6376727633865762,-519.6311076536017
1.6386658942315648,-519.6311076536017
1.6396590250765537,-519.6311076536017
1.6406521559215426,502.3688923463983
1.6416452867665314,502.3688923463983
1.6426384176115203,502.3688923463983
1.6436315484565092,502.3688923463983
1.6446246793014978,502.3688923463983
1.6456178101464867,502.3688923463983
1.6466109409914755,502.3688923463983
1.6476040718364644,502.3688923463983
1.6485972026814533,502.3688923463983
1.6495903335264421,502.3688923463983
1.6505834643714308,-519.6311076536017
1.6515765952164196,-519.6311076536017
1.6525697260614085,-519.6311076536017
1.6535628569063974,-519.6311076536017
1.6545559877513862,-519.6311076536017
1.6555491185963749,-519.6311076536017
1.6565422494413637,-519.6311076536017
1.6575353802863526,-519.6311076536017
1.6585285111313415,-519.6311076536017
1.6595216419763303,-519.6311076536017
1.6605147728213192,502.3688923463983
1.6615079036663079,503.3688923463983
1.6625010345112967,502.3688923463983
1.6634941653562856,502.3688923463983
1.6644872962012744,502.3688923463983
1.6654804270462633,503.3688923463983
1.6664735578912522,502.3688923463983
1.6674666887362408,502.3688923463983
1.6684598195812297,502.3688923463983
1.6694529504262186,502.3688923463983
1.6704460812712074,-519.6311076536017
1.6714392121161963,-519.6311076536017
1.6724323429611851,-519.6311076536017
1.6734254738061738,-519.6311076536017
1.6744186046511627,-519.6311076536017
1.6754117354961515,-519.6311076536017
1.6764048663411404,-519.6311076536017
1.6773979971861293,-519.6311076536017
1.6783911280311181,-519.6311076536017
1.6793842588761068,-336.6311076536017
1.6803773897210956,502.3688923463983
1.6813705205660845,503.3688923463983
1.6823636514110734,502.3688923463983
1.6833567822560622,502.3688923463983
1.6843499131010509,502.3688923463983
1.6853430439460397,503.3688923463983
1.6863361747910286,502.3688923463983
1.6873293056360175,502.3688923463983
1.6883224364810063,502.3688923463983
1.6893155673259952,502.3688923463983
1.6903086981709838,-519.6311076536017
1.6913018290159727,-519.6311076536017
1.6922949598609616,-519.6311076536017
1.6932880907059504,-519.6311076536017
1.6942812215509393,-519.6311076536017
1.6952743523959282,-519.6311076536017
1.6962674832409168,-519.6311076536017
1.6972606140859057,-519.6311076536017
1.6982537449308945,-519.6311076536017
1.6992468757758834,-519.6311076536017
1.7002400066208723,502.3688923463983
1.7012331374658611,503.3688923463983
1.7022262683108498,502.3688923463983
1.7032193991558386,502.3688923463983
1.7042125300008275,502.3688923463983
1.7052056608458164,502.3688923463983
1.7061987916908052,502.3688923463983
1.707191922535794,502.3688923463983
1.7081850533807827,502.3688923463983
1.7091781842257716,502.3688923463983
1.7101713150707605,-519.6311076536017
1.7111644459157493,-519.6311076536017
1.7121575767607382,-519.6311076536017
1.713150707605727,-519.6311076536017
1.7141438384507157,-519.6311076536017
1.7151369692957046,-519.6311076536017
1.7161301001406934,-519.6311076536017
1.7171232309856823,-519.6311076536017
1.7181163618306712,-519.6311076536017
1.7191094926756598,-519.6311076536017
1.7201026235206487,502.3688923463983
1.7210957543656376,502.3688923463983
1.7220888852106264,502.3688923463983
1.7230820160556153,502.3688923463983
1.7240751469006041,502.3688923463983
1.7250682777455928,503.3688923463983
1.7260614085905817,503.3688923463983
1.7270545394355705,502.3688923463983
1.7280476702805594,502.3688923463983
1.7290408011255483,502.3688923463983
1.7300339319705371,-519.6311076536017
1.7310270628155258,-519.6311076536017
1.7320201936605146,-519.6311076536017
1.7330133245055035,-519.6311076536017
1.7340064553504924,-519.6311076536017
1.7349995861954812,-519.6311076536017
1.73599271704047,-519.6311076536017
1.7369858478854587,-519.6311076536017
1.7379789787304476,-519.6311076536017
1.7389721095754365,-387.6311076536017
1.7399652404204253,502.3688923463983
1.7409583712654142,502.3688923463983
1.741951502110403,502.3688923463983
1.7429446329553917,502.3688923463983
1.7439377638003806,502.3688923463983
1.7449308946453694,502.3688923463983
1.7459240254903583,502.3688923463983
1.7469171563353472,502.3688923463983
1.747910287180336,502.3688923463983
1.7489034180253247,502.3688923463983
1.7498965488703135,-519.6311076536017
1.7508896797153024,-519.6311076536017
1.7518828105602913,-519.6311076536017
1.7528759414052801,-519.6311076536017
1.7538690722502688,-519.6311076536017
1.7548622030952576,-519.6311076536017
1.7558553339402465,-519.6311076536017
1.7568484647852354,-519.6311076536017
1.7578415956302242,-519.6311076536017
1.758834726475213,-519.6311076536017
1.7598278573202017,502.3688923463983
1.7608209881651906,503.3688923463983
1.7618141190101795,502.3688923463983
1.7628072498551683,502.3688923463983
1.7638003807001572,502.3688923463983
1.764793511545146,502.3688923463983
1.7657866423901347,502.3688923463983
1.7667797732351236,502.3688923463983
1.7677729040801125,502.3688923463983
1.7687660349251013,502.3688923463983
1.7697591657700902,-519.6311076536017
1.770752296615079,-519.6311076536017
1.7717454274600677,-519.6311076536017
1.7727385583050566,-519.6311076536017
1.7737316891500454,-519.6311076536017
1.7747248199950343,-519.6311076536017
1.7757179508400232,-519.6311076536017
1.776711081685012,-519.6311076536017
1.7777042125300007,-519.6311076536017
1.7786973433749895,-519.6311076536017
1.7796904742199784,502.3688923463983
1.7806836050649673,503.3688923463983
1.7816767359099561,502.3688923463983
1.7826698667549448,502.3688923463983
1.7836629975999336,502.3688923463983
1.7846561284449225,502.3688923463983
1.7856492592899114,502.3688923463983
1.7866423901349002,502.3688923463983
1.787635520979889,502.3688923463983
1.7886286518248777,502.3688923463983
1.7896217826698666,-519.6311076536017
1.7906149135148555,-519.6311076536017
1.7916080443598443,-519.6311076536017
1.7926011752048332,-519.6311076536017
1.793594306049822,-519.6311076536017
1.7945874368948107,-519.6311076536017
1.7955805677397996,-519.6311076536017
1.7965736985847884,-519.6311076536017
1.7975668294297773,-519.6311076536017
1.7985599602747662,-367.6311076536017
1.799553091119755,502.3688923463983
1.8005462219647437,503.3688923463983
1.8015393528097325,502.3688923463983
1.8025324836547214,502.3688923463983
1.8035256144997103,502.3688923463983
1.8045187453446991,502.3688923463983
1.805511876189688,502.3688923463983
1.8065050070346766,502.3688923463983
1.8074981378796655,502.3688923463983
1.8084912687246544,502.3688923463983
1.8094843995696432,-519.6311076536017
1.810477530414632,-519.6311076536017
1.8114706612596208,-519.6311076536017
1.8124637921046096,-519.6311076536017
1.8134569229495985,-519.6311076536017
1.8144500537945873,-519.6311076536017
1.8154431846395762,-519.6311076536017
1.816436315484565,-519.6311076536017
1.8174294463295537,-519.6311076536017
1.8184225771745426,-519.6311076536017
1.8194157080195315,502.3688923463983
1.8204088388645203,502.3688923463983
1.8214019697095092,502.3688923463983
1.822395100554498,502.3688923463983
1.8233882313994867,502.3688923463983
1.8243813622444756,502.3688923463983
1.8253744930894644,503.3688923463983
1.8263676239344533,502.3688923463983
1.8273607547794422,502.3688923463983
1.828353885624431,502.3688923463983
1.8293470164694197,-519.6311076536017
1.8303401473144085,-519.6311076536017
1.8313332781593974,-519.6311076536017
1.8323264090043863,-519.6311076536017
1.8333195398493751,-519.6311076536017
1.834312670694364,-519.6311076536017
1.8353058015393526,-519.6311076536017
1.8362989323843415,-519.6311076536017
1.8372920632293304,-519.6311076536017
1.8382851940743192,-519.6311076536017
1.839278324919308,502.3688923463983
1.840271455764297,502.3688923463983
1.8412645866092856,502.3688923463983
1.8422577174542745,502.3688923463983
1.8432508482992633,502.3688923463983
1.8442439791442522,502.3688923463983
1.845237109989241,502.3688923463983
1.8462302408342297,502.3688923463983
1.8472233716792186,502.3688923463983
1.8482165025242074,502.3688923463983
1.8492096333691963,-519.6311076536017
1.8502027642141852,-519.6311076536017
1.851195895059174,-519.6311076536017
1.8521890259041627,-519.6311076536017
1.8531821567491515,-519.6311076536017
1.8541752875941404,-519.6311076536017
1.8551684184391293,-519.6311076536017
1.8561615492841181,-519.6311076536017
1.857154680129107,-519.6311076536017
1.8581478109740956,-493.6311076536017
1.8591409418190845,502.3688923463983
1.8601340726640734,502.3688923463983
1.8611272035090622,502.3688923463983
1.862120334354051,502.3688923463983
1.86311346519904,502.3688923463983
1.8641065960440286,502.3688923463983
1.8650997268890175,503.3688923463983
1.8660928577340063,502.3688923463983
1.8670859885789952,502.3688923463983
1.868079119423984,502.3688923463983
1.869072250268973,-519.6311076536017
1.8700653811139616,-519.6311076536017
1.8710585119589505,-519.6311076536017
1.8720516428039393,-519.6311076536017
1.8730447736489282,-519.6311076536017
1.874037904493917,-519.6311076536017
1.875031035338906,-519.6311076536017
1.8760241661838946,-519.6311076536017
1.8770172970288834,-519.6311076536017
1.8780104278738723,-519.6311076536017
1.8790035587188612,502.3688923463983
1.87999668956385,502.3688923463983
1.8809898204088387,502.3688923463983
1.8819829512538275,502.3688923463983
1.8829760820988164,502.3688923463983
1.8839692129438053,503.3688923463983
1.8849623437887941,502.3688923463983
1.885955474633783,502.3688923463983
1.8869486054787716,502.3688923463983
1.8879417363237605,502.3688923463983
1.8889348671687494,-519.6311076536017
1.8899279980137382,-519.6311076536017
1.890921128858727,-519.6311076536017
1.891914259703716,-519.6311076536017
1.8929073905487046,-519.6311076536017
1.8939005213936935,-519.6311076536017
1.8948936522386823,-519.6311076536017
1.8958867830836712,-519.6311076536017
1.89687991392866,-519.6311076536017
1.897873044773649,-519.6311076536017
1.8988661756186376,502.3688923463983
1.8998593064636264,503.3688923463983
1.9008524373086153,502.3688923463983
1.9018455681536042,502.3688923463983
1.902838698998593,502.3688923463983
1.903831829843582,502.3688923463983
1.9048249606885705,503.3688923463983
1.9058180915335594,502.3688923463983
1.9068112223785483,502.3688923463983
1.9078043532235371,502.3688923463983
1.908797484068526,-519.6311076536017
1.9097906149135147,-519.6311076536017
1.9107837457585035,-519.6311076536017
1.9117768766034924,-519.6311076536017
1.9127700074484812,-519.6311076536017
1.9137631382934701,-519.6311076536017
1.914756269138459,-519.6311076536017
1.9157493999834476,-519.6311076536017
1.9167425308284365,-519.6311076536017
1.9177356616734254,-440.6311076536017
1.9187287925184142,502.3688923463983
1.919721923363403,502.3688923463983
1.920715054208392,502.3688923463983
1.9217081850533806,502.3688923463983
1.9227013158983695,502.3688923463983
1.9236944467433583,502.3688923463983
1.9246875775883472,503.3688923463983
1.925680708433336,502.3688923463983
1.926673839278325,502.3688923463983
1.9276669701233136,502.3688923463983
1.9286601009683024,-519.6311076536017
1.9296532318132913,-519.6311076536017
1.9306463626582802,-519.6311076536017
1.931639493503269,-519.6311076536017
1.9326326243482579,-519.6311076536017
1.9336257551932465,-519.6311076536017
1.9346188860382354,-519.6311076536017
1.9356120168832243,-519.6311076536017
1.9366051477282131,-519.6311076536017
1.937598278573202,-519.6311076536017
1.9385914094181906,502.3688923463983
1.9395845402631795,502.3688923463983
1.9405776711081684,502.3688923463983
1.9415708019531572,502.3688923463983
1.942563932798146,502.3688923463983
1.943557063643135,502.3688923463983
1.9445501944881236,502.3688923463983
1.9455433253331125,502.3688923463983
1.9465364561781013,502.3688923463983
1.9475295870230902,502.3688923463983
1.948522717868079,-519.6311076536017
1.949515848713068,-519.6311076536017
1.9505089795580566,-519.6311076536017
1.9515021104030454,-519.6311076536017
1.9524952412480343,-519.6311076536017
1.9534883720930232,-519.6311076536017
1.954481502938012,-519.6311076536017
1.955474633783001,-519.6311076536017
1.9564677646279895,-519.6311076536017
1.9574608954729784,-519.6311076536017
1.9584540263179673,502.3688923463983
1.9594471571629561,503.3688923463983
1.960440288007945,502.3688923463983
1.9614334188529339,502.3688923463983
1.9624265496979225,502.3688923463983
1.9634196805429114,502.3688923463983
1.9644128113879002,502.3688923463983
1.9654059422328891,502.3688923463983
1.966399073077878,502.3688923463983
1.9673922039228668,502.3688923463983
1.9683853347678555,-519.6311076536017
1.9693784656128444,-519.6311076536017
1.9703715964578332,-519.6311076536017
1.971364727302822,-519.6311076536017
1.972357858147811,-519.6311076536017
1.9733509889927996,-519.6311076536017
1.9743441198377885,-519.6311076536017
1.9753372506827773,-519.6311076536017
1.9763303815277662,-519.6311076536017
1.977323512372755,-519.6311076536017
1.978316643217744,502.3688923463983
1.9793097740627326,503.3688923463983
1.9803029049077214,502.3688923463983
1.9812960357527103,502.3688923463983
1.9822891665976992,502.3688923463983
1.983282297442688,503.3688923463983
1.984275428287677,502.3688923463983
1.9852685591326655,502.3688923463983
1.9862616899776544,502.3688923463983
1.9872548208226433,502.3688923463983
1.9882479516676321,-519.6311076536017
1.989241082512621,-519.6311076536017
1.9902342133576099,-519.6311076536017
1.9912273442025985,-519.6311076536017
1.9922204750475874,-519.6311076536017
1.9932136058925762,-519.6311076536017
1.994206736737565,-519.6311076536017
1.995199867582554,-519.6311076536017
1.9961929984275428,-519.6311076536017
1.9971861292725315,-519.6311076536017
1.9981792601175203,502.3688923463983
1.9991723909625092,503.3688923463983
2.000165521807498,502.3688923463983
2.001158652652487,502.3688923463983
2.002151783497476,502.3688923463983
2.0031449143424647,502.3688923463983
2.0041380451874535,503.3688923463983
2.005131176032442,502.3688923463983
2.006124306877431,502.3688923463983
2.0071174377224197,502.3688923463983
2.0081105685674085,-519.6311076536017
2.0091036994123974,-519.6311076536017
2.0100968302573863,-519.6311076536017
2.011089961102375,-519.6311076536017
2.012083091947364,-519.6311076536017
2.013076222792353,-519.6311076536017
2.0140693536373417,-519.6311076536017
2.0150624844823306,-519.6311076536017
2.0160556153273195,-519.6311076536017
2.017048746172308,-519.6311076536017
2.0180418770172968,502.3688923463983
2.0190350078622856,502.3688923463983
2.0200281387072745,502.3688923463983
2.0210212695522634,502.3688923463983
2.022014400397252,502.3688923463983
2.023007531242241,502.3688923463983
2.02400066208723,503.3688923463983
2.024993792932219,502.3688923463983
2.0259869237772077,502.3688923463983
2.0269800546221965,502.3688923463983
2.0279731854671854,-519.6311076536017
2.028966316312174,-519.6311076536017
2.0299594471571627,-519.6311076536017
2.0309525780021516,-519.6311076536017
2.0319457088471404,-519.6311076536017
2.0329388396921293,-519.6311076536017
2.033931970537118,-519.6311076536017
2.034925101382107,-519.6311076536017
2.035918232227096,-519.6311076536017
2.0369113630720848,-519.6311076536017
2.0379044939170736,502.3688923463983
2.0388976247620625,502.3688923463983
2.039890755607051,502.3688923463983
2.0408838864520398,502.3688923463983
2.0418770172970286,502.3688923463983
2.0428701481420175,502.3688923463983
2.0438632789870064,502.3688923463983
2.0448564098319952,502.3688923463983
2.045849540676984,502.3688923463983
2.046842671521973,502.3688923463983
2.047835802366962,-519.6311076536017
2.0488289332119507,-519.6311076536017
2.0498220640569396,-519.6311076536017
2.0508151949019284,-519.6311076536017
2.051808325746917,-519.6311076536017
2.0528014565919057,-519.6311076536017
2.0537945874368946,-519.6311076536017
2.0547877182818834,-519.6311076536017
2.0557808491268723,-519.6311076536017
2.056773979971861,-519.6311076536017
2.05776711081685,502.3688923463983
2.058760241661839,502.3688923463983
2.0597533725068278,502.3688923463983
2.0607465033518166,502.3688923463983
2.0617396341968055,502.3688923463983
2.0627327650417944,502.3688923463983
2.063725895886783,502.3688923463983
2.0647190267317717,502.3688923463983
2.0657121575767605,502.3688923463983
2.0667052884217494,502.3688923463983
2.0676984192667383,-519.6311076536017
2.068691550111727,-519.6311076536017
2.069684680956716,-519.6311076536017
2.070677811801705,-519.6311076536017
2.0716709426466937,-519.6311076536017
2.0726640734916826,-519.6311076536017
2.0736572043366714,-519.6311076536017
2.07465033518166,-519.6311076536017
2.0756434660266487,-519.6311076536017
2.0766365968716376,-519.6311076536017
2.0776297277166265,502.3688923463983
2.0786228585616153,502.3688923463983
2.079615989406604,502.3688923463983
2.080609120251593,502.3688923463983
2.081602251096582,502.3688923463983
2.082595381941571,502.3688923463983
2.0835885127865597,502.3688923463983
2.0845816436315485,502.3688923463983
2.0855747744765374,502.3688923463983
2.086567905321526,502.3688923463983
2.0875610361665147,-519.6311076536017
2.0885541670115035,-519.6311076536017
2.0895472978564924,-519.6311076536017
2.0905404287014813,-519.6311076536017
2.09153355954647,-519.6311076536017
2.092526690391459,-519.6311076536017
2.093519821236448,-519.6311076536017
2.0945129520814367,-519.6311076536017
2.0955060829264256,-519.6311076536017
2.0964992137714145,-519.6311076536017
2.097492344616403,502.3688923463983
2.0984854754613917,503.3688923463983
2.0994786063063806,502.3688923463983
2.1004717371513695,502.3688923463983
2.1014648679963583,502.3688923463983
2.102457998841347,502.3688923463983
2.103451129686336,503.3688923463983
2.104444260531325,502.3688923463983
2.105437391376314,502.3688923463983
2.1064305222213027,502.3688923463983
2.1074236530662915,-519.6311076536017
2.1084167839112804,-519.6311076536017
2.109409914756269,-519.6311076536017
2.1104030456012577,-519.6311076536017
2.1113961764462466,-519.6311076536017
2.1123893072912354,-519.6311076536017
2.1133824381362243,-519.6311076536017
2.114375568981213,-519.6311076536017
2.115368699826202,-519.6311076536017
2.116361830671191,-519.6311076536017
2.1173549615161797,502.3688923463983
2.1183480923611686,502.3688923463983
2.1193412232061575,502.3688923463983
2.1203343540511463,502.3688923463983
2.1213274848961348,502.3688923463983
2.1223206157411236,502.3688923463983
2.1233137465861125,502.3688923463983
2.1243068774311014,502.3688923463983
2.1253000082760902,502.3688923463983
2.126293139121079,502.3688923463983
2.127286269966068,-519.6311076536017
2.128279400811057,-519.6311076536017
2.1292725316560457,-519.6311076536017
2.1302656625010346,-519.6311076536017
2.1312587933460234,-519.6311076536017
2.132251924191012,-519.6311076536017
2.1332450550360007,-519.6311076536017
2.1342381858809896,-519.6311076536017
2.1352313167259784,-519.6311076536017
2.1362244475709673,-519.6311076536017
2.137217578415956,502.3688923463983
2.138210709260945,502.3688923463983
2.139203840105934,502.3688923463983
2.1401969709509228,502.3688923463983
2.1411901017959116,502.3688923463983
2.1421832326409005,502.3688923463983
2.1431763634858894,502.3688923463983
2.144169494330878,502.3688923463983
2.1451626251758666,502.3688923463983
2.1461557560208555,502.3688923463983
2.1471488868658444,-519.6311076536017
2.1481420177108332,-519.6311076536017
2.149135148555822,-519.6311076536017
2.150128279400811,-519.6311076536017
2.1511214102458,-519.6311076536017
2.1521145410907887,-519.6311076536017
2.1531076719357776,-519.6311076536017
2.1541008027807664,-519.6311076536017
2.1550939336257553,-519.6311076536017
2.1560870644707437,-519.6311076536017
2.1570801953157326,502.3688923463983
2.1580733261607215,503.3688923463983
2.1590664570057103,502.3688923463983
2.160059587850699,502.3688923463983
2.161052718695688,502.3688923463983
2.162045849540677,502.3688923463983
2.1630389803856658,502.3688923463983
2.1640321112306546,502.3688923463983
2.1650252420756435,502.3688923463983
2.1660183729206324,502.3688923463983
2.167011503765621,-519.6311076536017
2.1680046346106097,-519.6311076536017
2.1689977654555985,-519.6311076536017
2.1699908963005874,-519.6311076536017
2.1709840271455763,-519.6311076536017
2.171977157990565,-519.6311076536017
2.172970288835554,-519.6311076536017
2.173963419680543,-519.6311076536017
2.1749565505255317,-519.6311076536017
2.1759496813705206,-519.6311076536017
2.1769428122155094,503.3688923463983
2.1779359430604983,502.3688923463983
2.1789290739054867,502.3688923463983
2.1799222047504756,502.3688923463983
2.1809153355954645,502.3688923463983
2.1819084664404533,502.3688923463983
2.182901597285442,502.3688923463983
2.183894728130431,502.3688923463983
2.18488785897542,502.3688923463983
2.185880989820409,502.3688923463983
2.1868741206653977,-519.6311076536017
2.1878672515103865,-519.6311076536017
2.1888603823553754,-519.6311076536017
2.1898535132003643,-519.6311076536017
2.1908466440453527,-519.6311076536017
2.1918397748903415,-519.6311076536017
2.1928329057353304,-519.6311076536017
2.1938260365803193,-519.6311076536017
2.194819167425308,-519.6311076536017
2.195812298270297,-519.6311076536017
2.196805429115286,502.3688923463983
2.1977985599602747,503.3688923463983
2.1987916908052636,502.3688923463983
2.1997848216502525,502.3688923463983
2.2007779524952413,502.3688923463983
2.2017710833402298,502.3688923463983
2.2027642141852186,502.3688923463983
2.2037573450302075,502.3688923463983
2.2047504758751963,502.3688923463983
2.205743606720185,502.3688923463983
2.206736737565174,-519.6311076536017
2.207729868410163,-519.6311076536017
2.208722999255152,-519.6311076536017
2.2097161301001407,-519.6311076536017
2.2107092609451295,-519.6311076536017
2.2117023917901184,-519.6311076536017
2.2126955226351073,-519.6311076536017
2.2136886534800957,-519.6311076536017
2.2146817843250846,-519.6311076536017
2.2156749151700734,-519.6311076536017
2.2166680460150623,502.3688923463983
2.217661176860051,502.3688923463983
2.21865430770504,502.3688923463983
2.219647438550029,502.3688923463983
2.2206405693950177,502.3688923463983
2.2216337002400066,502.3688923463983
2.2226268310849955,503.3688923463983
2.2236199619299843,502.3688923463983
2.224613092774973,502.3688923463983
2.2256062236199616,502.3688923463983
2.2265993544649505,-519.6311076536017
2.2275924853099394,-519.6311076536017
2.2285856161549282,-519.6311076536017
2.229578746999917,-519.6311076536017
2.230571877844906,-519.6311076536017
2.231565008689895,-519.6311076536017
2.2325581395348837,-519.6311076536017
2.2335512703798726,-519.6311076536017
2.2345444012248614,-519.6311076536017
2.2355375320698503,-519.6311076536017
2.2365306629148387,502.3688923463983
2.2375237937598276,503.3688923463983
2.2385169246048164,502.3688923463983
2.2395100554498053,502.3688923463983
2.240503186294794,502.3688923463983
2.241496317139783,502.3688923463983
2.242489447984772,502.3688923463983
2.2434825788297608,502.3688923463983
2.2444757096747496,502.3688923463983
2.2454688405197385,502.3688923463983
2.2464619713647274,-519.6311076536017
2.2474551022097162,-519.6311076536017
2.2484482330547046,-519.6311076536017
2.2494413638996935,-519.6311076536017
2.2504344947446824,-519.6311076536017
2.2514276255896712,-519.6311076536017
2.25242075643466,-519.6311076536017
2.253413887279649,-519.6311076536017
2.254407018124638,-519.6311076536017
2.2554001489696267,-519.6311076536017
2.2563932798146156,502.3688923463983
2.2573864106596044,503.3688923463983
2.2583795415045933,502.3688923463983
2.2593726723495817,502.3688923463983
2.2603658031945706,502.3688923463983
2.2613589340395595,502.3688923463983
2.2623520648845483,502.3688923463983
2.263345195729537,502.3688923463983
2.264338326574526,502.3688923463983
2.265331457419515,502.3688923463983
2.266324588264504,-519.6311076536017
2.2673177191094926,-519.6311076536017
2.2683108499544815,-519.6311076536017
2.2693039807994704,-519.6311076536017
2.2702971116444592,-519.6311076536017
2.2712902424894477,-519.6311076536017
2.2722833733344365,-519.6311076536017
2.2732765041794254,-519.6311076536017
2.2742696350244143,-519.6311076536017
2.275262765869403,-519.6311076536017
2.276255896714392,502.3688923463983
2.277249027559381,503.3688923463983
2.2782421584043697,502.3688923463983
2.2792352892493586,502.3688923463983
2.2802284200943475,502.3688923463983
2.2812215509393363,503.3688923463983
2.282214681784325,502.3688923463983
2.2832078126293136,502.3688923463983
2.2842009434743025,502.3688923463983
2.2851940743192913,502.3688923463983
2.28618720516428,-519.6311076536017
2.287180336009269,-519.6311076536017
2.288173466854258,-519.6311076536017
2.289166597699247,-519.6311076536017
2.2901597285442357,-519.6311076536017
2.2911528593892245,-519.6311076536017
2.2921459902342134,-519.6311076536017
2.2931391210792023,-519.6311076536017
2.2941322519241907,-519.6311076536017
2.2951253827691795,-519.6311076536017
2.2961185136141684,502.3688923463983
2.2971116444591573,503.3688923463983
2.298104775304146,502.3688923463983
2.299097906149135,502.3688923463983
2.300091036994124,502.3688923463983
2.3010841678391127,502.3688923463983
2.3020772986841016,503.3688923463983
2.3030704295290905,502.3688923463983
2.3040635603740793,502.3688923463983
2.305056691219068,502.3688923463983
2.3060498220640566,-519.6311076536017
2.3070429529090455,-519.6311076536017
2.3080360837540344,-519.6311076536017
2.309029214599023,-519.6311076536017
2.310022345444012,-519.6311076536017
2.311015476289001,-519.6311076536017
2.31200860713399,-519.6311076536017
2.3130017379789787,-519.6311076536017
2.3139948688239675,-519.6311076536017
2.3149879996689564,-519.6311076536017
2.3159811305139453,502.3688923463983
2.316974261358934,502.3688923463983
2.3179673922039226,502.3688923463983
2.3189605230489114,502.3688923463983
2.3199536538939003,502.3688923463983
2.320946784738889,502.3688923463983
2.321939915583878,503.3688923463983
2.322933046428867,502.3688923463983
2.3239261772738558,502.3688923463983
2.3249193081188446,502.3688923463983
2.3259124389638335,-519.6311076536017
2.3269055698088223,-519.6311076536017
2.327898700653811,-519.6311076536017
2.3288918314987996,-519.6311076536017
2.3298849623437885,-519.6311076536017
2.3308780931887774,-519.6311076536017
2.3318712240337662,-519.6311076536017
2.332864354878755,-519.6311076536017
2.333857485723744,-519.6311076536017
2.334850616568733,-519.6311076536017
2.3358437474137217,502.3688923463983
2.3368368782587106,503.3688923463983
2.3378300091036994,502.3688923463983
2.3388231399486883,502.3688923463983
2.339816270793677,502.3688923463983
2.3408094016386656,502.3688923463983
2.3418025324836544,502.3688923463983
2.3427956633286433,502.3688923463983
2.343788794173632,502.3688923463983
2.344781925018621,502.3688923463983
2.34577505586361,-519.6311076536017
2.3467681867085988,-519.6311076536017
2.3477613175535876,-519.6311076536017
2.3487544483985765,-519.6311076536017
2.3497475792435654,-519.6311076536017
2.3507407100885542,-519.6311076536017
2.3517338409335427,-519.6311076536017
2.3527269717785315,-519.6311076536017
2.3537201026235204,-519.6311076536017
2.3547132334685092,-519.6311076536017
2.355706364313498,502.3688923463983
2.356699495158487,502.3688923463983
2.357692626003476,502.3688923463983
2.3586857568484647,502.3688923463983
2.3596788876934536,502.3688923463983
2.3606720185384424,502.3688923463983
2.3616651493834313,502.3688923463983
2.36265828022842,502.3688923463983
2.3636514110734086,502.3688923463983
2.3646445419183975,502.3688923463983
2.3656376727633863,-519.6311076536017
2.366630803608375,-519.6311076536017
2.367623934453364,-519.6311076536017
2.368617065298353,-519.6311076536017
2.369610196143342,-519.6311076536017
2.3706033269883307,-519.6311076536017
2.3715964578333195,-519.6311076536017
2.3725895886783084,-519.6311076536017
2.3735827195232972,-519.6311076536017
2.374575850368286,-519.6311076536017
2.3755689812132745,502.3688923463983
2.3765621120582634,503.3688923463983
2.3775552429032523,502.3688923463983
2.378548373748241,502.3688923463983
2.37954150459323,502.3688923463983
2.380534635438219,502.3688923463983
2.3815277662832077,503.3688923463983
2.3825208971281966,502.3688923463983
2.3835140279731855,502.3688923463983
2.3845071588181743,502.3688923463983
2.385500289663163,-519.6311076536017
2.3864934205081516,-519.6311076536017
2.3874865513531405,-519.6311076536017
2.3884796821981293,-519.6311076536017
2.389472813043118,-519.6311076536017
2.390465943888107,-519.6311076536017
2.391459074733096,-519.6311076536017
2.392452205578085,-519.6311076536017
2.3934453364230737,-519.6311076536017
2.3944384672680625,-519.6311076536017
2.3954315981130514,502.3688923463983
2.3964247289580403,503.3688923463983
2.397417859803029,502.3688923463983
2.3984109906480175,502.3688923463983
2.3994041214930064,502.3688923463983
2.4003972523379953,502.3688923463983
2.401390383182984,503.3688923463983
2.402383514027973,502.3688923463983
2.403376644872962,502.3688923463983
2.4043697757179507,502.3688923463983
2.4053629065629396,-519.6311076536017
2.4063560374079285,-519.6311076536017
2.4073491682529173,-519.6311076536017
2.408342299097906,-519.6311076536017
2.409335429942895,-519.6311076536017
2.4103285607878835,-519.6311076536017
2.4113216916328724,-519.6311076536017
2.412314822477861,-519.6311076536017
2.41330795332285,-519.6311076536017
2.414301084167839,-519.6311076536017
2.415294215012828,502.3688923463983
2.4162873458578167,502.3688923463983
2.4172804767028055,502.3688923463983
2.4182736075477944,502.3688923463983
2.4192667383927833,502.3688923463983
2.420259869237772,502.3688923463983
2.4212530000827606,503.3688923463983
2.4222461309277494,502.3688923463983
2.4232392617727383,502.3688923463983
2.424232392617727,502.3688923463983
2.425225523462716,-519.6311076536017
2.426218654307705,-519.6311076536017
2.4272117851526938,-519.6311076536017
2.4282049159976826,-519.6311076536017
2.4291980468426715,-519.6311076536017
2.4301911776876604,-519.6311076536017
2.431184308532649,-519.6311076536017
2.432177439377638,-519.6311076536017
2.4331705702226265,-519.6311076536017
2.4341637010676154,-519.6311076536017
2.4351568319126042,502.3688923463983
2.436149962757593,502.3688923463983
2.437143093602582,502.3688923463983
2.438136224447571,502.3688923463983
2.4391293552925597,502.3688923463983
2.4401224861375486,502.3688923463983
2.4411156169825374,502.3688923463983
2.4421087478275263,502.3688923463983
2.443101878672515,502.3688923463983
2.444095009517504,502.3688923463983
2.4450881403624924,-519.6311076536017
2.4460812712074813,-519.6311076536017
2.44707440205247,-519.6311076536017
2.448067532897459,-519.6311076536017
2.449060663742448,-519.6311076536017
2.4500537945874368,-519.6311076536017
2.4510469254324256,-519.6311076536017
2.4520400562774145,-519.6311076536017
2.4530331871224034,-519.6311076536017
2.4540263179673922,-519.6311076536017
2.455019448812381,502.3688923463983
2.4560125796573695,503.3688923463983
2.4570057105023584,502.3688923463983
2.4579988413473473,502.3688923463983
2.458991972192336,502.3688923463983
2.459985103037325,503.3688923463983
2.460978233882314,502.3688923463983
2.4619713647273027,502.3688923463983
2.4629644955722916,502.3688923463983
2.4639576264172804,502.3688923463983
2.4649507572622693,-519.6311076536017
2.465943888107258,-519.6311076536017
2.466937018952247,-519.6311076536017
2.4679301497972355,-519.6311076536017
2.4689232806422243,-519.6311076536017
2.469916411487213,-519.6311076536017
2.470909542332202,-519.6311076536017
2.471902673177191,-519.6311076536017
2.47289580402218,-519.6311076536017
2.4738889348671687,-519.6311076536017
2.4748820657121575,502.3688923463983
2.4758751965571464,502.3688923463983
2.4768683274021353,502.3688923463983
2.477861458247124,502.3688923463983
2.478854589092113,502.3688923463983
2.4798477199371014,502.3688923463983
2.4808408507820903,502.3688923463983
2.481833981627079,502.3688923463983
2.482827112472068,502.3688923463983
2.483820243317057,502.3688923463983
2.4848133741620457,-519.6311076536017
2.4858065050070346,-519.6311076536017
2.4867996358520235,-519.6311076536017
2.4877927666970123,-519.6311076536017
2.488785897542001,-519.6311076536017
2.48977902838699,-519.6311076536017
2.4907721592319785,-519.6311076536017
2.4917652900769673,-519.6311076536017
2.492758420921956,-519.6311076536017
2.493751551766945,-519.6311076536017
2.494744682611934,502.3688923463983
2.495737813456923,503.3688923463983
2.4967309443019117,502.3688923463983
2.4977240751469005,502.3688923463983
2.4987172059918894,502.3688923463983
2.4997103368368783,502.3688923463983
2.500703467681867,503.3688923463983
2.501696598526856,502.3688923463983
2.5026897293718444,502.3688923463983
2.5036828602168333,502.3688923463983
2.504675991061822,-519.6311076536017
2.505669121906811,-519.6311076536017
2.5066622527518,-519.6311076536017
2.5076553835967887,-519.6311076536017
2.5086485144417776,-519.6311076536017
2.5096416452867665,-519.6311076536017
2.5106347761317553,-519.6311076536017
2.511627906976744,-519.6311076536017
2.512621037821733,-519.6311076536017
2.5136141686667215,-519.6311076536017
2.5146072995117104,502.3688923463983
2.5156004303566992,502.3688923463983
2.516593561201688,502.3688923463983
2.517586692046677,502.3688923463983
2.518579822891666,502.3688923463983
2.5195729537366547,502.3688923463983
2.5205660845816436,503.3688923463983
2.5215592154266324,502.3688923463983
2.5225523462716213,502.3688923463983
2.52354547711661,502.3688923463983
2.524538607961599,-519.6311076536017
2.5255317388065874,-519.6311076536017
2.5265248696515763,-519.6311076536017
2.527518000496565,-519.6311076536017
2.528511131341554,-519.6311076536017
2.529504262186543,-519.6311076536017
2.5304973930315318,-519.6311076536017
2.5314905238765206,-519.6311076536017
2.5324836547215095,-519.6311076536017
2.5334767855664984,-519.6311076536017
2.5344699164114872,502.3688923463983
2.535463047256476,502.3688923463983
2.536456178101465,502.3688923463983
2.5374493089464534,502.3688923463983
2.5384424397914422,502.3688923463983
2.539435570636431,502.3688923463983
2.54042870148142,502.3688923463983
2.541421832326409,502.3688923463983
2.5424149631713977,502.3688923463983
2.5434080940163866,502.3688923463983
2.5444012248613754,-519.6311076536017
2.5453943557063643,-519.6311076536017
2.546387486551353,-519.6311076536017
2.547380617396342,-519.6311076536017
2.5483737482413304,-519.6311076536017
2.5493668790863193,-519.6311076536017
2.550360009931308,-519.6311076536017
2.551353140776297,-519.6311076536017
2.552346271621286,-519.6311076536017
2.5533394024662748,-519.6311076536017
2.5543325333112636,502.3688923463983
2.5553256641562525,502.3688923463983
2.5563187950012414,502.3688923463983
2.5573119258462302,502.3688923463983
2.558305056691219,502.3688923463983
2.559298187536208,502.3688923463983
2.5602913183811964,503.3688923463983
2.5612844492261853,502.3688923463983
2.562277580071174,502.3688923463983
2.563270710916163,502.3688923463983
2.564263841761152,-519.6311076536017
2.5652569726061407,-519.6311076536017
2.5662501034511296,-519.6311076536017
2.5672432342961184,-519.6311076536017
2.5682363651411073,-519.6311076536017
2.569229495986096,-519.6311076536017
2.570222626831085,-519.6311076536017
2.571215757676074,-519.6311076536017
2.5722088885210623,-519.6311076536017
2.573202019366051,-519.6311076536017
2.57419515021104,502.3688923463983
2.575188281056029,503.3688923463983
2.576181411901018,502.3688923463983
2.5771745427460067,502.3688923463983
2.5781676735909955,502.3688923463983
2.5791608044359844,502.3688923463983
2.5801539352809733,502.3688923463983
2.581147066125962,502.3688923463983
2.582140196970951,502.3688923463983
2.5831333278159394,502.3688923463983
2.5841264586609283,-519.6311076536017
2.585119589505917,-519.6311076536017
2.586112720350906,-519.6311076536017
2.587105851195895,-519.6311076536017
2.5880989820408837,-519.6311076536017
2.5890921128858726,-519.6311076536017
2.5900852437308615,-519.6311076536017
2.5910783745758503,-519.6311076536017
2.592071505420839,-519.6311076536017
2.593064636265828,-519.6311076536017
2.594057767110817,502.3688923463983
2.5950508979558053,503.3688923463983
2.596044028800794,502.3688923463983
2.597037159645783,502.3688923463983
2.598030290490772,502.3688923463983
2.599023421335761,502.3688923463983
2.6000165521807497,503.3688923463983
2.6010096830257385,502.3688923463983
2.6020028138707274,502.3688923463983
2.6029959447157163,502.3688923463983
2.603989075560705,-519.6311076536017
2.604982206405694,-519.6311076536017
2.6059753372506824,-519.6311076536017
2.6069684680956713,-519.6311076536017
2.60796159894066,-519.6311076536017
2.608954729785649,-519.6311076536017
2.609947860630638,-519.6311076536017
2.6109409914756267,-519.6311076536017
2.6119341223206156,-519.6311076536017
2.6129272531656045,-519.6311076536017
2.6139203840105933,502.3688923463983
2.614913514855582,502.3688923463983
2.615906645700571,502.3688923463983
2.61689977654556,502.3688923463983
2.6178929073905484,502.3688923463983
2.6188860382355372,502.3688923463983
2.619879169080526,503.3688923463983
2.620872299925515,502.3688923463983
2.621865430770504,502.3688923463983
2.6228585616154927,502.3688923463983
2.6238516924604816,-519.6311076536017
2.6248448233054704,-519.6311076536017
2.6258379541504593,-519.6311076536017
2.626831084995448,-519.6311076536017
2.627824215840437,-519.6311076536017
2.628817346685426,-519.6311076536017
2.6298104775304143,-519.6311076536017
2.630803608375403,-519.6311076536017
2.631796739220392,-519.6311076536017
2.632789870065381,-519.6311076536017
2.6337830009103698,502.3688923463983
2.6347761317553586,503.3688923463983
2.6357692626003475,502.3688923463983
2.6367623934453364,502.3688923463983
2.6377555242903252,502.3688923463983
2.638748655135314,502.3688923463983
2.639741785980303,502.3688923463983
2.6407349168252914,502.3688923463983
2.6417280476702802,502.3688923463983
2.642721178515269,502.3688923463983
2.643714309360258,-519.6311076536017
2.644707440205247,-519.6311076536017
2.6457005710502357,-519.6311076536017
2.6466937018952246,-519.6311076536017
2.6476868327402134,-519.6311076536017
2.6486799635852023,-519.6311076536017
2.649673094430191,-519.6311076536017
2.65066622527518,-519.6311076536017
2.651659356120169,-519.6311076536017
2.6526524869651573,-519.6311076536017
2.653645617810146,502.3688923463983
2.654638748655135,503.3688923463983
2.655631879500124,502.3688923463983
2.656625010345113,502.3688923463983
2.6576181411901016,502.3688923463983
2.6586112720350905,502.3688923463983
2.6596044028800794,503.3688923463983
2.6605975337250682,502.3688923463983
2.661590664570057,502.3688923463983
2.662583795415046,502.3688923463983
2.663576926260035,-519.6311076536017
2.6645700571050233,-519.6311076536017
2.665563187950012,-519.6311076536017
2.666556318795001,-519.6311076536017
2.66754944963999,-519.6311076536017
2.6685425804849787,-519.6311076536017
2.6695357113299676,-519.6311076536017
2.6705288421749565,-519.6311076536017
2.6715219730199453,-519.6311076536017
2.672515103864934,-519.6311076536017
2.673508234709923,502.3688923463983
2.674501365554912,503.3688923463983
2.6754944963999003,502.3688923463983
2.676487627244889,502.3688923463983
2.677480758089878,502.3688923463983
2.678473888934867,502.3688923463983
2.679467019779856,502.3688923463983
2.6804601506248447,502.3688923463983
2.6814532814698335,502.3688923463983
2.6824464123148224,502.3688923463983
2.6834395431598113,-519.6311076536017
2.6844326740048,-519.6311076536017
2.685425804849789,-519.6311076536017
2.686418935694778,-519.6311076536017
2.6874120665397663,-519.6311076536017
2.688405197384755,-519.6311076536017
2.689398328229744,-519.6311076536017
2.690391459074733,-519.6311076536017
2.6913845899197217,-519.6311076536017
2.6923777207647106,-519.6311076536017
2.6933708516096995,502.3688923463983
2.6943639824546883,503.3688923463983
2.695357113299677,502.3688923463983
2.696350244144666,502.3688923463983
2.697343374989655,502.3688923463983
2.698336505834644,502.3688923463983
2.699329636679632,503.3688923463983
2.700322767524621,502.3688923463983
2.70131589836961,502.3688923463983
2.702309029214599,502.3688923463983
2.7033021600595877,-519.6311076536017
2.7042952909045765,-519.6311076536017
2.7052884217495654,-519.6311076536017
2.7062815525945543,-519.6311076536017
2.707274683439543,-519.6311076536017
2.708267814284532,-519.6311076536017
2.709260945129521,-519.6311076536017
2.7102540759745093,-519.6311076536017
2.711247206819498,-519.6311076536017
2.712240337664487,-519.6311076536017
2.713233468509476,502.3688923463983
2.7142265993544648,502.3688923463983
2.7152197301994536,502.3688923463983
2.7162128610444425,502.3688923463983
2.7172059918894313,502.3688923463983
2.71819912273442,502.3688923463983
2.719192253579409,503.3688923463983
2.720185384424398,502.3688923463983
2.721178515269387,502.3688923463983
2.7221716461143752,502.3688923463983
2.723164776959364,-519.6311076536017
2.724157907804353,-519.6311076536017
2.725151038649342,-519.6311076536017
2.7261441694943307,-519.6311076536017
2.7271373003393196,-519.6311076536017
2.7281304311843084,-519.6311076536017
2.7291235620292973,-519.6311076536017
2.730116692874286,-519.6311076536017
2.731109823719275,-519.6311076536017
2.732102954564264,-519.6311076536017
2.7330960854092528,502.3688923463983
2.734089216254241,502.3688923463983
2.73508234709923,502.3688923463983
2.736075477944219,502.3688923463983
2.7370686087892078,502.3688923463983
2.7380617396341966,502.3688923463983
2.7390548704791855,502.3688923463983
2.7400480013241744,502.3688923463983
2.7410411321691632,502.3688923463983
2.742034263014152,502.3688923463983
2.743027393859141,-519.6311076536017
2.74402052470413,-519.6311076536017
2.7450136555491182,-519.6311076536017
2.746006786394107,-519.6311076536017
2.746999917239096,-519.6311076536017
2.747993048084085,-519.6311076536017
2.7489861789290737,-519.6311076536017
2.7499793097740626,-519.6311076536017
2.7509724406190514,-519.6311076536017
2.7519655714640403,-519.6311076536017
2.752958702309029,502.3688923463983
2.753951833154018,503.3688923463983
2.754944963999007,502.3688923463983
2.7559380948439958,502.3688923463983
2.756931225688984,502.3688923463983
2.757924356533973,502.3688923463983
2.758917487378962,502.3688923463983
2.759910618223951,502.3688923463983
2.7609037490689396,502.3688923463983
2.7618968799139285,502.3688923463983
2.7628900107589174,-519.6311076536017
2.7638831416039062,-519.6311076536017
2.764876272448895,-519.6311076536017
2.765869403293884,-519.6311076536017
2.766862534138873,-519.6311076536017
2.7678556649838613,-519.6311076536017
2.76884879582885,-519.6311076536017
2.769841926673839,-519.6311076536017
2.770835057518828,-519.6311076536017
2.7718281883638167,-519.6311076536017
2.7728213192088056,502.3688923463983
2.7738144500537945,503.3688923463983
2.7748075808987833,502.3688923463983
2.775800711743772,502.3688923463983
2.776793842588761,502.3688923463983
2.77778697343375,503.3688923463983
2.778780104278739,502.3688923463983
2.779773235123727,502.3688923463983
2.780766365968716,502.3688923463983
2.781759496813705,502.3688923463983
2.782752627658694,-519.6311076536017
2.7837457585036827,-519.6311076536017
2.7847388893486715,-519.6311076536017
2.7857320201936604,-519.6311076536017
2.7867251510386493,-519.6311076536017
2.787718281883638,-519.6311076536017
2.788711412728627,-519.6311076536017
2.789704543573616,-519.6311076536017
2.7906976744186047,-519.6311076536017
2.791690805263593,-519.6311076536017
2.792683936108582,502.3688923463983
2.793677066953571,503.3688923463983
2.7946701977985597,502.3688923463983
2.7956633286435486,502.3688923463983
2.7966564594885375,502.3688923463983
2.7976495903335263,502.3688923463983
2.798642721178515,503.3688923463983
2.799635852023504,502.3688923463983
2.800628982868493,502.3688923463983
2.801622113713482,502.3688923463983
2.80261524455847,-519.6311076536017
2.803608375403459,-519.6311076536017
2.804601506248448,-519.6311076536017
2.805594637093437,-519.6311076536017
2.8065877679384257,-519.6311076536017
2.8075808987834145,-519.6311076536017
2.8085740296284034,-519.6311076536017
2.8095671604733923,-519.6311076536017
2.810560291318381,-519.6311076536017
2.81155342216337,-519.6311076536017
2.812546553008359,502.3688923463983
2.8135396838533477,502.3688923463983
2.814532814698336,502.3688923463983
2.815525945543325,502.3688923463983
2.816519076388314,502.3688923463983
2.8175122072333028,502.3688923463983
2.8185053380782916,503.3688923463983
2.8194984689232805,502.3688923463983
2.8204915997682694,502.3688923463983
2.821484730613258,502.3688923463983
2.822477861458247,-519.6311076536017
2.823470992303236,-519.6311076536017
2.824464123148225,-519.6311076536017
2.8254572539932137,-519.6311076536017
2.826450384838202,-519.6311076536017
2.827443515683191,-519.6311076536017
2.82843664652818,-519.6311076536017
2.8294297773731687,-519.6311076536017
2.8304229082181576,-519.6311076536017
2.8314160390631464,-519.6311076536017
2.8324091699081353,502.3688923463983
2.833402300753124,502.3688923463983
2.834395431598113,502.3688923463983
2.835388562443102,502.3688923463983
2.8363816932880908,502.3688923463983
2.837374824133079,502.3688923463983
2.838367954978068,502.3688923463983
2.839361085823057,502.3688923463983
2.8403542166680458,502.3688923463983
2.8413473475130346,502.3688923463983
2.8423404783580235,-519.6311076536017
2.8433336092030124,-519.6311076536017
2.8443267400480012,-519.6311076536017
2.84531987089299,-519.6311076536017
2.846313001737979,-519.6311076536017
2.847306132582968,-519.6311076536017
2.8482992634279567,-519.6311076536017
2.849292394272945,-519.6311076536017
2.850285525117934,-519.6311076536017
2.851278655962923,-519.6311076536017
2.8522717868079117,502.3688923463983
2.8532649176529006,502.3688923463983
2.8542580484978894,502.3688923463983
2.8552511793428783,502.3688923463983
2.856244310187867,502.3688923463983
2.857237441032856,502.3688923463983
2.858230571877845,502.3688923463983
2.8592237027228338,502.3688923463983
2.860216833567822,502.3688923463983
2.861209964412811,502.3688923463983
2.8622030952578,-519.6311076536017
2.863196226102789,-519.6311076536017
2.8641893569477777,-519.6311076536017
2.8651824877927665,-519.6311076536017
2.8661756186377554,-519.6311076536017
2.8671687494827442,-519.6311076536017
2.868161880327733,-519.6311076536017
2.869155011172722,-519.6311076536017
2.870148142017711,-519.6311076536017
2.8711412728626997,-519.6311076536017
2.872134403707688,502.3688923463983
2.873127534552677,502.3688923463983
2.874120665397666,502.3688923463983
2.8751137962426547,502.3688923463983
2.8761069270876436,502.3688923463983
2.8771000579326325,502.3688923463983
2.8780931887776213,503.3688923463983
2.87908631962261,502.3688923463983
2.880079450467599,502.3688923463983
2.881072581312588,502.3688923463983
2.882065712157577,-519.6311076536017
2.8830588430025657,-519.6311076536017
2.884051973847554,-519.6311076536017
2.885045104692543,-519.6311076536017
2.886038235537532,-519.6311076536017
2.8870313663825207,-519.6311076536017
2.8880244972275095,-519.6311076536017
2.8890176280724984,-519.6311076536017
2.8900107589174873,-519.6311076536017
2.891003889762476,-519.6311076536017
2.891997020607465,502.3688923463983
2.892990151452454,503.3688923463983
2.8939832822974427,502.3688923463983
2.894976413142431,502.3688923463983
2.89596954398742,502.3688923463983
2.896962674832409,502.3688923463983
2.8979558056773977,502.3688923463983
2.8989489365223866,502.3688923463983
2.8999420673673755,502.3688923463983
2.9009351982123643,502.3688923463983
2.901928329057353,-519.6311076536017
2.902921459902342,-519.6311076536017
2.903914590747331,-519.6311076536017
2.90490772159232,-519.6311076536017
2.9059008524373087,-519.6311076536017
2.906893983282297,-519.6311076536017
2.907887114127286,-519.6311076536017
2.908880244972275,-519.6311076536017
2.9098733758172637,-519.6311076536017
2.9108665066622526,-519.6311076536017
2.9118596375072414,502.3688923463983
2.9128527683522303,502.3688923463983
2.913845899197219,502.3688923463983
2.914839030042208,502.3688923463983
2.915832160887197,502.3688923463983
2.9168252917321857,502.3688923463983
2.9178184225771746,503.3688923463983
2.918811553422163,502.3688923463983
2.919804684267152,502.3688923463983
2.9207978151121408,502.3688923463983
2.9217909459571296,-519.6311076536017
2.9227840768021185,-519.6311076536017
2.9237772076471074,-519.6311076536017
2.9247703384920962,-519.6311076536017
2.925763469337085,-519.6311076536017
2.926756600182074,-519.6311076536017
2.927749731027063,-519.6311076536017
2.9287428618720517,-519.6311076536017
2.92973599271704,-519.6311076536017
2.930729123562029,-519.6311076536017
2.931722254407018,502.3688923463983
2.9327153852520067,502.3688923463983
2.9337085160969956,502.3688923463983
2.9347016469419844,502.3688923463983
2.9356947777869733,502.3688923463983
2.936687908631962,502.3688923463983
2.937681039476951,502.3688923463983
2.93867417032194,502.3688923463983
2.9396673011669288,502.3688923463983
2.9406604320119176,502.3688923463983
2.941653562856906,-519.6311076536017
2.942646693701895,-519.6311076536017
2.9436398245468838,-519.6311076536017
2.9446329553918726,-519.6311076536017
2.9456260862368615,-519.6311076536017
2.9466192170818504,-519.6311076536017
2.9476123479268392,-519.6311076536017
2.948605478771828,-519.6311076536017
2.949598609616817,-519.6311076536017
2.950591740461806,-519.6311076536017
2.9515848713067947,502.3688923463983
2.9525780021517836,502.3688923463983
2.953571132996772,502.3688923463983
2.954564263841761,502.3688923463983
2.9555573946867497,502.3688923463983
2.9565505255317386,502.3688923463983
2.9575436563767274,502.3688923463983
2.9585367872217163,502.3688923463983
2.959529918066705,502.3688923463983
2.960523048911694,502.3688923463983
2.961516179756683,-519.6311076536017
2.9625093106016718,-519.6311076536017
2.9635024414466606,-519.6311076536017
2.964495572291649,-519.6311076536017
2.965488703136638,-519.6311076536017
2.966481833981627,-519.6311076536017
2.9674749648266157,-519.6311076536017
2.9684680956716045,-519.6311076536017
2.9694612265165934,-519.6311076536017
2.9704543573615823,-519.6311076536017
2.971447488206571,502.3688923463983
2.97244061905156,503.3688923463983
2.973433749896549,502.3688923463983
2.9744268807415377,502.3688923463983
2.9754200115865266,502.3688923463983
2.976413142431515,502.3688923463983
2.977406273276504,503.3688923463983
2.9783994041214927,502.3688923463983
2.9793925349664816,502.3688923463983
2.9803856658114705,502.3688923463983
2.9813787966564593,-519.6311076536017
2.982371927501448,-519.6311076536017
2.983365058346437,-519.6311076536017
2.984358189191426,-519.6311076536017
2.985351320036415,-519.6311076536017
2.9863444508814037,-519.6311076536017
2.9873375817263925,-519.6311076536017
2.988330712571381,-519.6311076536017
2.98932384341637,-519.6311076536017
2.9903169742613587,-519.6311076536017
2.9913101051063475,502.3688923463983
2.9923032359513364,503.3688923463983
2.9932963667963253,502.3688923463983
2.994289497641314,502.3688923463983
2.995282628486303,502.3688923463983
2.996275759331292,502.3688923463983
2.9972688901762807,503.3688923463983
2.9982620210212696,502.3688923463983
2.999255151866258,502.3688923463983
3.000248282711247,502.3688923463983
3.0012414135562357,-519.6311076536017
3.0022345444012246,-519.6311076536017
3.0032276752462135,-519.6311076536017
3.0042208060912023,-519.6311076536017
3.005213936936191,-519.6311076536017
3.00620706778118,-519.6311076536017
3.007200198626169,-519.6311076536017
3.008193329471158,-519.6311076536017
3.0091864603161467,-519.6311076536017
3.0101795911611355,-519.6311076536017
3.011172722006124,502.3688923463983
3.012165852851113,502.3688923463983
3.0131589836961017,502.3688923463983
3.0141521145410906,502.3688923463983
3.0151452453860794,502.3688923463983
3.0161383762310683,502.3688923463983
3.017131507076057,503.3688923463983
3.018124637921046,502.3688923463983
3.019117768766035,502.3688923463983
3.0201108996110237,502.3688923463983
3.0211040304560126,-519.6311076536017
3.022097161301001,-519.6311076536017
3.02309029214599,-519.6311076536017
3.0240834229909788,-519.6311076536017
3.0250765538359676,-519.6311076536017
3.0260696846809565,-519.6311076536017
3.0270628155259454,-519.6311076536017
3.0280559463709342,-519.6311076536017
3.029049077215923,-519.6311076536017
3.030042208060912,-519.6311076536017
3.031035338905901,502.3688923463983
3.0320284697508897,502.3688923463983
3.0330216005958786,502.3688923463983
3.034014731440867,502.3688923463983
3.035007862285856,502.3688923463983
3.0360009931308447,502.3688923463983
3.0369941239758336,502.3688923463983
3.0379872548208224,502.3688923463983
3.0389803856658113,502.3688923463983
3.0399735165108,502.3688923463983
3.040966647355789,-519.6311076536017
3.041959778200778,-519.6311076536017
3.0429529090457668,-519.6311076536017
3.0439460398907556,-519.6311076536017
3.0449391707357445,-519.6311076536017
3.045932301580733,-519.6311076536017
3.046925432425722,-519.6311076536017
3.0479185632707106,-519.6311076536017
3.0489116941156995,-519.6311076536017
3.0499048249606884,-519.6311076536017
3.0508979558056772,502.3688923463983
3.051891086650666,503.3688923463983
3.052884217495655,502.3688923463983
3.053877348340644,502.3688923463983
3.0548704791856327,502.3688923463983
3.0558636100306216,502.3688923463983
3.05685674087561,502.3688923463983
3.057849871720599,502.3688923463983
3.0588430025655877,502.3688923463983
3.0598361334105766,502.3688923463983
3.0608292642555655,-519.6311076536017
3.0618223951005543,-519.6311076536017
3.062815525945543,-519.6311076536017
3.063808656790532,-519.6311076536017
3.064801787635521,-519.6311076536017
3.06579491848051,-519.6311076536017
3.0667880493254986,-519.6311076536017
3.0677811801704875,-519.6311076536017
3.068774311015476,-519.6311076536017
3.069767441860465,-519.6311076536017
3.0707605727054537,502.3688923463983
3.0717537035504425,502.3688923463983
3.0727468343954314,502.3688923463983
3.0737399652404203,502.3688923463983
3.074733096085409,502.3688923463983
3.075726226930398,503.3688923463983
3.076719357775387,503.3688923463983
3.0777124886203757,502.3688923463983
3.0787056194653646,502.3688923463983
3.0796987503103535,502.3688923463983
3.080691881155342,-519.6311076536017
3.0816850120003307,-519.6311076536017
3.0826781428453196,-519.6311076536017
3.0836712736903085,-519.6311076536017
3.0846644045352973,-519.6311076536017
3.085657535380286,-519.6311076536017
3.086650666225275,-519.6311076536017
3.087643797070264,-519.6311076536017
3.088636927915253,-519.6311076536017
3.0896300587602417,-519.6311076536017
3.0906231896052305,502.3688923463983
3.091616320450219,503.3688923463983
3.092609451295208,502.3688923463983
3.0936025821401967,502.3688923463983
3.0945957129851855,502.3688923463983
3.0955888438301744,502.3688923463983
3.0965819746751633,503.3688923463983
3.097575105520152,502.3688923463983
3.098568236365141,502.3688923463983
3.09956136721013,502.3688923463983
3.1005544980551187,-519.6311076536017
3.1015476289001076,-519.6311076536017
3.1025407597450965,-519.6311076536017
3.103533890590085,-519.6311076536017
3.1045270214350738,-519.6311076536017
3.1055201522800626,-519.6311076536017
3.1065132831250515,-519.6311076536017
3.1075064139700403,-519.6311076536017
3.108499544815029,-519.6311076536017
3.109492675660018,-519.6311076536017
3.110485806505007,502.3688923463983
3.111478937349996,502.3688923463983
3.1124720681949847,502.3688923463983
3.1134651990399735,502.3688923463983
3.114458329884962,502.3688923463983
3.115451460729951,502.3688923463983
3.1164445915749397,502.3688923463983
3.1174377224199286,502.3688923463983
3.1184308532649174,502.3688923463983
3.1194239841099063,502.3688923463983
3.120417114954895,-519.6311076536017
3.121410245799884,-519.6311076536017
3.122403376644873,-519.6311076536017
3.1233965074898618,-519.6311076536017
3.1243896383348506,-519.6311076536017
3.1253827691798395,-519.6311076536017
3.126375900024828,-519.6311076536017
3.1273690308698168,-519.6311076536017
3.1283621617148056,-519.6311076536017
3.1293552925597945,-519.6311076536017
3.1303484234047834,502.3688923463983
3.1313415542497722,502.3688923463983
3.132334685094761,502.3688923463983
3.13332781593975,502.3688923463983
3.134320946784739,502.3688923463983
3.1353140776297277,502.3688923463983
3.1363072084747166,502.3688923463983
3.1373003393197054,502.3688923463983
3.138293470164694,502.3688923463983
3.1392866010096827,502.3688923463983
3.1402797318546716,-519.6311076536017
3.1412728626996604,-519.6311076536017
3.1422659935446493,-519.6311076536017
3.143259124389638,-519.6311076536017
3.144252255234627,-519.6311076536017
3.145245386079616,-519.6311076536017
3.1462385169246048,-519.6311076536017
3.1472316477695936,-519.6311076536017
3.1482247786145825,-519.6311076536017
3.149217909459571,-519.6311076536017
3.15021104030456,502.3688923463983
3.1512041711495486,502.3688923463983
3.1521973019945375,502.3688923463983
3.1531904328395264,502.3688923463983
3.1541835636845152,502.3688923463983
3.155176694529504,502.3688923463983
3.156169825374493,502.3688923463983
3.157162956219482,502.3688923463983
3.1581560870644707,502.3688923463983
3.1591492179094596,502.3688923463983
3.1601423487544484,-519.6311076536017
3.161135479599437,-519.6311076536017
3.1621286104444257,-519.6311076536017
3.1631217412894146,-519.6311076536017
3.1641148721344035,-519.6311076536017
3.1651080029793923,-519.6311076536017
3.166101133824381,-519.6311076536017
3.16709426466937,-519.6311076536017
3.168087395514359,-519.6311076536017
3.169080526359348,-519.6311076536017
3.1700736572043366,502.3688923463983
3.1710667880493255,503.3688923463983
3.1720599188943144,502.3688923463983
3.173053049739303,502.3688923463983
3.1740461805842917,502.3688923463983
3.1750393114292805,502.3688923463983
3.1760324422742694,502.3688923463983
3.1770255731192583,502.3688923463983
3.178018703964247,502.3688923463983
3.179011834809236,502.3688923463983
3.180004965654225,-519.6311076536017
3.1809980964992137,-519.6311076536017
3.1819912273442026,-519.6311076536017
3.1829843581891915,-519.6311076536017
3.18397748903418,-519.6311076536017
3.1849706198791687,-519.6311076536017
3.1859637507241576,-519.6311076536017
3.1869568815691465,-519.6311076536017
3.1879500124141353,-519.6311076536017
3.188943143259124,-519.6311076536017
3.189936274104113,502.3688923463983
3.190929404949102,503.3688923463983
3.191922535794091,502.3688923463983
