Time,EMG
0.0,1.0622628951746833
0.0009983527180152747,0.06226289517468331
0.0019967054360305494,-1.9377371048253167
0.002995058154045824,-3.9377371048253167
0.003993410872061099,-5.937737104825317
0.004991763590076374,-6.937737104825317
0.005990116308091648,-7.937737104825317
0.006988469026106923,-7.937737104825317
0.007986821744122198,-4.937737104825317
0.008985174462137473,-2.9377371048253167
0.009983527180152748,-0.9377371048253167
0.010981879898168023,0.06226289517468331
0.011980232616183296,3.0622628951746833
0.01297858533419857,4.062262895174683
0.013976938052213846,6.062262895174683
0.01497529077022912,8.062262895174683
0.015973643488244395,5.062262895174683
0.01697199620625967,5.062262895174683
0.017970348924274945,5.062262895174683
0.01896870164229022,1.0622628951746833
0.019967054360305495,0.06226289517468331
0.02096540707832077,0.06226289517468331
0.021963759796336045,-3.9377371048253167
0.02296211251435132,-3.9377371048253167
0.02396046523236659,-4.937737104825317
0.024958817950381868,-5.937737104825317
0.02595717066839714,-3.9377371048253167
0.026955523386412418,-4.937737104825317
0.02795387610442769,-6.937737104825317
0.028952228822442968,-3.9377371048253167
0.02995058154045824,-1.9377371048253167
0.030948934258473518,-1.9377371048253167
0.03194728697648879,2.0622628951746833
0.032945639694504064,5.062262895174683
0.03394399241251934,7.062262895174683
0.03494234513053462,4.062262895174683
0.03594069784854989,6.062262895174683
0.036939050566565164,6.062262895174683
0.03793740328458044,8.062262895174683
0.03893575600259572,4.062262895174683
0.03993410872061099,1.0622628951746833
0.040932461438626264,-3.9377371048253167
0.04193081415664154,-2.9377371048253167
0.04292916687465681,-2.9377371048253167
0.04392751959267209,-4.937737104825317
0.04492587231068736,-4.937737104825317
0.04592422502870264,-4.937737104825317
0.04692257774671791,-6.937737104825317
0.04792093046473318,-6.937737104825317
0.04891928318274846,-3.9377371048253167
0.049917635900763736,-2.9377371048253167
0.05091598861877901,1.0622628951746833
0.05191434133679428,3.0622628951746833
0.05291269405480956,5.062262895174683
0.053911046772824836,7.062262895174683
0.05490939949084011,6.062262895174683
0.05590775220885538,5.062262895174683
0.056906104926870656,5.062262895174683
0.057904457644885936,5.062262895174683
0.05890281036290121,4.062262895174683
0.05990116308091648,-0.9377371048253167
0.060899515798931755,0.06226289517468331
0.061897868516947036,-3.9377371048253167
0.0628962212349623,-3.9377371048253167
0.06389457395297758,-5.937737104825317
0.06489292667099286,-5.937737104825317
0.06589127938900813,-3.9377371048253167
0.06688963210702341,-4.937737104825317
0.06788798482503867,-5.937737104825317
0.06888633754305395,-3.9377371048253167
0.06988469026106923,-0.9377371048253167
0.0708830429790845,1.0622628951746833
0.07188139569709978,1.0622628951746833
0.07287974841511505,6.062262895174683
0.07387810113313033,8.062262895174683
0.07487645385114561,5.062262895174683
0.07587480656916087,6.062262895174683
0.07687315928717615,6.062262895174683
0.07787151200519143,5.062262895174683
0.0788698647232067,4.062262895174683
0.07986821744122198,-1.9377371048253167
0.08086657015923725,-1.9377371048253167
0.08186492287725253,-3.9377371048253167
0.08286327559526781,-2.9377371048253167
0.08386162831328307,-3.9377371048253167
0.08485998103129835,-6.937737104825317
0.08585833374931362,-4.937737104825317
0.0868566864673289,-7.937737104825317
0.08785503918534418,-5.937737104825317
0.08885339190335945,-1.9377371048253167
0.08985174462137473,-0.9377371048253167
0.09085009733938999,1.0622628951746833
0.09184845005740527,2.0622628951746833
0.09284680277542055,5.062262895174683
0.09384515549343582,8.062262895174683
0.0948435082114511,8.062262895174683
0.09584186092946637,6.062262895174683
0.09684021364748165,5.062262895174683
0.09783856636549693,4.062262895174683
0.09883691908351219,2.0622628951746833
0.09983527180152747,0.06226289517468331
0.10083362451954275,-0.9377371048253167
0.10183197723755802,-2.9377371048253167
0.1028303299555733,-2.9377371048253167
0.10382868267358857,-2.9377371048253167
0.10482703539160385,-4.937737104825317
0.10582538810961913,-6.937737104825317
0.10682374082763439,-6.937737104825317
0.10782209354564967,-4.937737104825317
0.10882044626366494,-3.9377371048253167
0.10981879898168022,-1.9377371048253167
0.1108171516996955,-0.9377371048253167
0.11181550441771076,1.0622628951746833
0.11281385713572605,3.0622628951746833
0.11381220985374131,7.062262895174683
0.11481056257175659,6.062262895174683
0.11580891528977187,6.062262895174683
0.11680726800778714,6.062262895174683
0.11780562072580242,6.062262895174683
0.1188039734438177,1.0622628951746833
0.11980232616183296,2.0622628951746833
0.12080067887984824,-1.9377371048253167
0.12179903159786351,-2.9377371048253167
0.12279738431587879,-4.937737104825317
0.12379573703389407,-6.937737104825317
0.12479408975190934,-4.937737104825317
0.1257924424699246,-3.9377371048253167
0.1267907951879399,-6.937737104825317
0.12778914790595516,-5.937737104825317
0.12878750062397043,-2.9377371048253167
0.12978585334198572,-0.9377371048253167
0.130784206060001,0.06226289517468331
0.13178255877801626,1.0622628951746833
0.13278091149603155,6.062262895174683
0.13377926421404682,7.062262895174683
0.13477761693206208,6.062262895174683
0.13577596965007735,5.062262895174683
0.13677432236809264,4.062262895174683
0.1377726750861079,6.062262895174683
0.13877102780412318,3.0622628951746833
0.13976938052213847,2.0622628951746833
0.14076773324015374,-0.9377371048253167
0.141766085958169,-3.9377371048253167
0.1427644386761843,-3.9377371048253167
0.14376279139419956,-4.937737104825317
0.14476114411221483,-6.937737104825317
0.1457594968302301,-4.937737104825317
0.1467578495482454,-4.937737104825317
0.14775620226626066,-6.937737104825317
0.14875455498427592,-1.9377371048253167
0.14975290770229122,-1.9377371048253167
0.15075126042030648,-0.9377371048253167
0.15174961313832175,4.062262895174683
0.15274796585633704,6.062262895174683
0.1537463185743523,7.062262895174683
0.15474467129236757,7.062262895174683
0.15574302401038287,3.0622628951746833
0.15674137672839814,6.062262895174683
0.1577397294464134,6.062262895174683
0.15873808216442867,4.062262895174683
0.15973643488244396,2.0622628951746833
0.16073478760045923,-0.9377371048253167
0.1617331403184745,-2.9377371048253167
0.1627314930364898,-2.9377371048253167
0.16372984575450505,-4.937737104825317
0.16472819847252032,-5.937737104825317
0.16572655119053561,-4.937737104825317
0.16672490390855088,-6.937737104825317
0.16772325662656615,-7.937737104825317
0.1687216093445814,-2.9377371048253167
0.1697199620625967,-0.9377371048253167
0.17071831478061197,2.0622628951746833
0.17171666749862724,3.0622628951746833
0.17271502021664253,6.062262895174683
0.1737133729346578,6.062262895174683
0.17471172565267307,6.062262895174683
0.17571007837068836,5.062262895174683
0.17670843108870363,4.062262895174683
0.1777067838067189,6.062262895174683
0.1787051365247342,4.062262895174683
0.17970348924274945,0.06226289517468331
0.18070184196076472,-1.9377371048253167
0.18170019467877999,-2.9377371048253167
0.18269854739679528,-2.9377371048253167
0.18369690011481055,-3.9377371048253167
0.1846952528328258,-6.937737104825317
0.1856936055508411,-3.9377371048253167
0.18669195826885637,-6.937737104825317
0.18769031098687164,-6.937737104825317
0.18868866370488693,-0.9377371048253167
0.1896870164229022,-0.9377371048253167
0.19068536914091747,1.0622628951746833
0.19168372185893273,0.06226289517468331
0.19268207457694803,6.062262895174683
0.1936804272949633,7.062262895174683
0.19467878001297856,8.062262895174683
0.19567713273099385,5.062262895174683
0.19667548544900912,4.062262895174683
0.19767383816702438,6.062262895174683
0.19867219088503968,1.0622628951746833
0.19967054360305495,0.06226289517468331
0.2006688963210702,-0.9377371048253167
0.2016672490390855,-4.937737104825317
0.20266560175710077,-1.9377371048253167
0.20366395447511604,-4.937737104825317
0.2046623071931313,-2.9377371048253167
0.2056606599111466,-3.9377371048253167
0.20665901262916186,-5.937737104825317
0.20765736534717713,-7.937737104825317
0.20865571806519242,-2.9377371048253167
0.2096540707832077,-1.9377371048253167
0.21065242350122296,1.0622628951746833
0.21165077621923825,2.0622628951746833
0.21264912893725352,4.062262895174683
0.21364748165526878,5.062262895174683
0.21464583437328408,7.062262895174683
0.21564418709129934,6.062262895174683
0.2166425398093146,5.062262895174683
0.21764089252732988,6.062262895174683
0.21863924524534517,2.0622628951746833
0.21963759796336044,0.06226289517468331
0.2206359506813757,-1.9377371048253167
0.221634303399391,-2.9377371048253167
0.22263265611740626,-4.937737104825317
0.22363100883542153,-3.9377371048253167
0.22462936155343682,-2.9377371048253167
0.2256277142714521,-6.937737104825317
0.22662606698946736,-6.937737104825317
0.22762441970748262,-5.937737104825317
0.22862277242549792,-2.9377371048253167
0.22962112514351318,-0.9377371048253167
0.23061947786152845,2.0622628951746833
0.23161783057954374,3.0622628951746833
0.232616183297559,5.062262895174683
0.23361453601557428,7.062262895174683
0.23461288873358957,6.062262895174683
0.23561124145160484,3.0622628951746833
0.2366095941696201,5.062262895174683
0.2376079468876354,5.062262895174683
0.23860629960565066,3.0622628951746833
0.23960465232366593,0.06226289517468331
0.2406030050416812,-1.9377371048253167
0.2416013577596965,-2.9377371048253167
0.24259971047771176,-2.9377371048253167
0.24359806319572702,-4.937737104825317
0.24459641591374232,-4.937737104825317
0.24559476863175758,-6.937737104825317
0.24659312134977285,-7.937737104825317
0.24759147406778814,-2.9377371048253167
0.2485898267858034,-2.9377371048253167
0.24958817950381867,-0.9377371048253167
0.25058653222183397,1.0622628951746833
0.2515848849398492,4.062262895174683
0.2525832376578645,5.062262895174683
0.2535815903758798,6.062262895174683
0.25457994309389503,6.062262895174683
0.2555782958119103,6.062262895174683
0.2565766485299256,4.062262895174683
0.25757500124794086,7.062262895174683
0.25857335396595615,2.0622628951746833
0.25957170668397145,3.0622628951746833
0.2605700594019867,-1.9377371048253167
0.261568412120002,-2.9377371048253167
0.2625667648380173,-4.937737104825317
0.2635651175560325,-4.937737104825317
0.2645634702740478,-4.937737104825317
0.2655618229920631,-4.937737104825317
0.26656017571007834,-4.937737104825317
0.26755852842809363,-3.9377371048253167
0.2685568811461089,-1.9377371048253167
0.26955523386412417,-0.9377371048253167
0.27055358658213946,1.0622628951746833
0.2715519393001547,1.0622628951746833
0.27255029201817,5.062262895174683
0.2735486447361853,6.062262895174683
0.2745469974542005,5.062262895174683
0.2755453501722158,4.062262895174683
0.2765437028902311,6.062262895174683
0.27754205560824635,6.062262895174683
0.27854040832626165,4.062262895174683
0.27953876104427694,1.0622628951746833
0.2805371137622922,-1.9377371048253167
0.2815354664803075,-2.9377371048253167
0.28253381919832277,-3.9377371048253167
0.283532171916338,-4.937737104825317
0.2845305246343533,-7.937737104825317
0.2855288773523686,-4.937737104825317
0.28652723007038383,-3.9377371048253167
0.2875255827883991,-7.937737104825317
0.2885239355064144,-3.9377371048253167
0.28952228822442966,-2.9377371048253167
0.29052064094244495,-1.9377371048253167
0.2915189936604602,3.0622628951746833
0.2925173463784755,8.062262895174683
0.2935156990964908,4.062262895174683
0.294514051814506,7.062262895174683
0.2955124045325213,5.062262895174683
0.2965107572505366,5.062262895174683
0.29750910996855184,6.062262895174683
0.29850746268656714,4.062262895174683
0.29950581540458243,0.06226289517468331
0.30050416812259767,-0.9377371048253167
0.30150252084061296,-1.9377371048253167
0.30250087355862826,-2.9377371048253167
0.3034992262766435,-7.937737104825317
0.3044975789946588,-6.937737104825317
0.3054959317126741,-4.937737104825317
0.3064942844306893,-5.937737104825317
0.3074926371487046,-7.937737104825317
0.3084909898667199,-2.9377371048253167
0.30948934258473515,-2.9377371048253167
0.31048769530275044,0.06226289517468331
0.31148604802076574,3.0622628951746833
0.312484400738781,7.062262895174683
0.31348275345679627,7.062262895174683
0.3144811061748115,7.062262895174683
0.3154794588928268,3.0622628951746833
0.3164778116108421,5.062262895174683
0.31747616432885734,5.062262895174683
0.31847451704687263,2.0622628951746833
0.3194728697648879,1.0622628951746833
0.32047122248290316,-0.9377371048253167
0.32146957520091846,-1.9377371048253167
0.32246792791893375,-4.937737104825317
0.323466280636949,-3.9377371048253167
0.3244646333549643,-3.9377371048253167
0.3254629860729796,-4.937737104825317
0.3264613387909948,-7.937737104825317
0.3274596915090101,-6.937737104825317
0.3284580442270254,-1.9377371048253167
0.32945639694504064,-0.9377371048253167
0.33045474966305594,1.0622628951746833
0.33145310238107123,1.0622628951746833
0.33245145509908647,5.062262895174683
0.33344980781710176,9.062262895174683
0.33444816053511706,5.062262895174683
0.3354465132531323,5.062262895174683
0.3364448659711476,5.062262895174683
0.3374432186891628,6.062262895174683
0.3384415714071781,4.062262895174683
0.3394399241251934,1.0622628951746833
0.34043827684320865,-2.9377371048253167
0.34143662956122395,-1.9377371048253167
0.34243498227923924,-2.9377371048253167
0.3434333349972545,-4.937737104825317
0.3444316877152698,-5.937737104825317
0.34543004043328507,-4.937737104825317
0.3464283931513003,-7.937737104825317
0.3474267458693156,-5.937737104825317
0.3484250985873309,-2.9377371048253167
0.34942345130534613,-2.9377371048253167
0.3504218040233614,0.06226289517468331
0.3514201567413767,2.0622628951746833
0.35241850945939196,7.062262895174683
0.35341686217740725,8.062262895174683
0.35441521489542255,8.062262895174683
0.3554135676134378,5.062262895174683
0.3564119203314531,4.062262895174683
0.3574102730494684,5.062262895174683
0.3584086257674836,2.0622628951746833
0.3594069784854989,3.0622628951746833
0.36040533120351415,-1.9377371048253167
0.36140368392152944,-2.9377371048253167
0.36240203663954473,-2.9377371048253167
0.36340038935755997,-7.937737104825317
0.36439874207557527,-3.9377371048253167
0.36539709479359056,-4.937737104825317
0.3663954475116058,-6.937737104825317
0.3673938002296211,-5.937737104825317
0.3683921529476364,-2.9377371048253167
0.3693905056656516,-1.9377371048253167
0.3703888583836669,1.0622628951746833
0.3713872111016822,1.0622628951746833
0.37238556381969745,4.062262895174683
0.37338391653771275,7.062262895174683
0.37438226925572804,6.062262895174683
0.3753806219737433,5.062262895174683
0.37637897469175857,5.062262895174683
0.37737732740977387,5.062262895174683
0.3783756801277891,3.0622628951746833
0.3793740328458044,2.0622628951746833
0.3803723855638197,-1.9377371048253167
0.38137073828183493,-1.9377371048253167
0.3823690909998502,-3.9377371048253167
0.38336744371786546,-6.937737104825317
0.38436579643588076,-4.937737104825317
0.38536414915389605,-3.9377371048253167
0.3863625018719113,-6.937737104825317
0.3873608545899266,-6.937737104825317
0.3883592073079419,-2.9377371048253167
0.3893575600259571,-0.9377371048253167
0.3903559127439724,-0.9377371048253167
0.3913542654619877,1.0622628951746833
0.39235261818000294,6.062262895174683
0.39335097089801824,7.062262895174683
0.39434932361603353,7.062262895174683
0.39534767633404877,5.062262895174683
0.39634602905206406,6.062262895174683
0.39734438177007936,7.062262895174683
0.3983427344880946,2.0622628951746833
0.3993410872061099,2.0622628951746833
0.4003394399241252,-1.9377371048253167
0.4013377926421404,-2.9377371048253167
0.4023361453601557,-2.9377371048253167
0.403334498078171,-5.937737104825317
0.40433285079618625,-4.937737104825317
0.40533120351420154,-6.937737104825317
0.40632955623221684,-7.937737104825317
0.4073279089502321,-5.937737104825317
0.40832626166824737,-0.9377371048253167
0.4093246143862626,-1.9377371048253167
0.4103229671042779,0.06226289517468331
0.4113213198222932,3.0622628951746833
0.41231967254030844,7.062262895174683
0.41331802525832373,8.062262895174683
0.414316377976339,6.062262895174683
0.41531473069435426,2.0622628951746833
0.41631308341236956,4.062262895174683
0.41731143613038485,5.062262895174683
0.4183097888484001,2.0622628951746833
0.4193081415664154,1.0622628951746833
0.4203064942844307,-0.9377371048253167
0.4213048470024459,-2.9377371048253167
0.4223031997204612,-4.937737104825317
0.4233015524384765,-6.937737104825317
0.42429990515649174,-3.9377371048253167
0.42529825787450704,-3.9377371048253167
0.42629661059252233,-7.937737104825317
0.42729496331053757,-3.9377371048253167
0.42829331602855286,-3.9377371048253167
0.42929166874656816,-1.9377371048253167
0.4302900214645834,4.062262895174683
0.4312883741825987,4.062262895174683
0.4322867269006139,6.062262895174683
0.4332850796186292,7.062262895174683
0.4342834323366445,5.062262895174683
0.43528178505465975,6.062262895174683
0.43628013777267505,5.062262895174683
0.43727849049069034,6.062262895174683
0.4382768432087056,1.0622628951746833
0.4392751959267209,0.06226289517468331
0.44027354864473617,-3.9377371048253167
0.4412719013627514,-1.9377371048253167
0.4422702540807667,-4.937737104825317
0.443268606798782,-4.937737104825317
0.44426695951679723,-5.937737104825317
0.4452653122348125,-6.937737104825317
0.4462636649528278,-6.937737104825317
0.44726201767084306,-6.937737104825317
0.44826037038885835,-1.9377371048253167
0.44925872310687365,-2.9377371048253167
0.4502570758248889,1.0622628951746833
0.4512554285429042,2.0622628951746833
0.4522537812609195,5.062262895174683
0.4532521339789347,6.062262895174683
0.45425048669695,6.062262895174683
0.45524883941496525,6.062262895174683
0.45624719213298054,6.062262895174683
0.45724554485099583,8.062262895174683
0.45824389756901107,1.0622628951746833
0.45924225028702637,0.06226289517468331
0.46024060300504166,-2.9377371048253167
0.4612389557230569,-4.937737104825317
0.4622373084410722,-3.9377371048253167
0.4632356611590875,-3.9377371048253167
0.4642340138771027,-2.9377371048253167
0.465232366595118,-4.937737104825317
0.4662307193131333,-8.937737104825317
0.46722907203114855,-4.937737104825317
0.46822742474916385,-1.9377371048253167
0.46922577746717914,0.06226289517468331
0.4702241301851944,4.062262895174683
0.47122248290320967,1.0622628951746833
0.47222083562122497,2.0622628951746833
0.4732191883392402,6.062262895174683
0.4742175410572555,7.062262895174683
0.4752158937752708,4.062262895174683
0.47621424649328603,6.062262895174683
0.4772125992113013,6.062262895174683
0.47821095192931656,1.0622628951746833
0.47920930464733186,1.0622628951746833
0.48020765736534715,0.06226289517468331
0.4812060100833624,-2.9377371048253167
0.4822043628013777,-4.937737104825317
0.483202715519393,-5.937737104825317
0.4842010682374082,-4.937737104825317
0.4851994209554235,-3.9377371048253167
0.4861977736734388,-5.937737104825317
0.48719612639145404,-3.9377371048253167
0.48819447910946934,-1.9377371048253167
0.48919283182748463,-0.9377371048253167
0.49019118454549987,0.06226289517468331
0.49118953726351516,3.0622628951746833
0.49218788998153046,5.062262895174683
0.4931862426995457,6.062262895174683
0.494184595417561,7.062262895174683
0.4951829481355763,4.062262895174683
0.4961813008535915,6.062262895174683
0.4971796535716068,8.062262895174683
0.4981780062896221,1.0622628951746833
0.49917635900763735,1.0622628951746833
0.5001747117256526,-0.9377371048253167
0.5011730644436679,-3.9377371048253167
0.5021714171616832,-5.937737104825317
0.5031697698796984,-6.937737104825317
0.5041681225977137,-5.937737104825317
0.505166475315729,-4.937737104825317
0.5061648280337443,-7.937737104825317
0.5071631807517596,-5.937737104825317
0.5081615334697749,-1.9377371048253167
0.5091598861877901,-1.9377371048253167
0.5101582389058054,1.0622628951746833
0.5111565916238207,3.0622628951746833
0.512154944341836,6.062262895174683
0.5131532970598512,9.062262895174683
0.5141516497778664,6.062262895174683
0.5151500024958817,5.062262895174683
0.516148355213897,7.062262895174683
0.5171467079319123,5.062262895174683
0.5181450606499276,3.0622628951746833
0.5191434133679429,0.06226289517468331
0.5201417660859581,-2.9377371048253167
0.5211401188039734,-2.9377371048253167
0.5221384715219887,-3.9377371048253167
0.523136824240004,-4.937737104825317
0.5241351769580193,-3.9377371048253167
0.5251335296760345,-4.937737104825317
0.5261318823940497,-7.937737104825317
0.527130235112065,-6.937737104825317
0.5281285878300803,-2.9377371048253167
0.5291269405480956,-0.9377371048253167
0.5301252932661109,1.0622628951746833
0.5311236459841262,3.0622628951746833
0.5321219987021414,5.062262895174683
0.5331203514201567,8.062262895174683
0.534118704138172,7.062262895174683
0.5351170568561873,4.062262895174683
0.5361154095742026,6.062262895174683
0.5371137622922177,5.062262895174683
0.538112115010233,1.0622628951746833
0.5391104677282483,0.06226289517468331
0.5401088204462636,0.06226289517468331
0.5411071731642789,-1.9377371048253167
0.5421055258822942,-3.9377371048253167
0.5431038786003094,-6.937737104825317
0.5441022313183247,-5.937737104825317
0.54510058403634,-6.937737104825317
0.5460989367543553,-5.937737104825317
0.5470972894723706,-5.937737104825317
0.5480956421903859,-1.9377371048253167
0.549093994908401,-2.9377371048253167
0.5500923476264163,0.06226289517468331
0.5510907003444316,1.0622628951746833
0.5520890530624469,5.062262895174683
0.5530874057804622,9.062262895174683
0.5540857584984775,7.062262895174683
0.5550841112164927,5.062262895174683
0.556082463934508,6.062262895174683
0.5570808166525233,4.062262895174683
0.5580791693705386,2.0622628951746833
0.5590775220885539,1.0622628951746833
0.5600758748065691,-3.9377371048253167
0.5610742275245844,-1.9377371048253167
0.5620725802425997,-5.937737104825317
0.563070932960615,-7.937737104825317
0.5640692856786302,-1.9377371048253167
0.5650676383966455,-4.937737104825317
0.5660659911146607,-6.937737104825317
0.567064343832676,-6.937737104825317
0.5680626965506913,-2.9377371048253167
0.5690610492687066,-1.9377371048253167
0.5700594019867219,1.0622628951746833
0.5710577547047372,1.0622628951746833
0.5720561074227524,5.062262895174683
0.5730544601407677,7.062262895174683
0.574052812858783,7.062262895174683
0.5750511655767983,5.062262895174683
0.5760495182948135,6.062262895174683
0.5770478710128288,5.062262895174683
0.578046223730844,1.0622628951746833
0.5790445764488593,0.06226289517468331
0.5800429291668746,-0.9377371048253167
0.5810412818848899,-3.9377371048253167
0.5820396346029052,-5.937737104825317
0.5830379873209204,-4.937737104825317
0.5840363400389357,-3.9377371048253167
0.585034692756951,-5.937737104825317
0.5860330454749663,-7.937737104825317
0.5870313981929816,-4.937737104825317
0.5880297509109969,-2.9377371048253167
0.589028103629012,-2.9377371048253167
0.5900264563470273,2.0622628951746833
0.5910248090650426,2.0622628951746833
0.5920231617830579,5.062262895174683
0.5930215145010732,7.062262895174683
0.5940198672190885,7.062262895174683
0.5950182199371037,4.062262895174683
0.596016572655119,6.062262895174683
0.5970149253731343,6.062262895174683
0.5980132780911496,1.0622628951746833
0.5990116308091649,3.0622628951746833
0.6000099835271802,-1.9377371048253167
0.6010083362451953,-2.9377371048253167
0.6020066889632106,-3.9377371048253167
0.6030050416812259,-3.9377371048253167
0.6040033943992412,-6.937737104825317
0.6050017471172565,-3.9377371048253167
0.6060000998352717,-4.937737104825317
0.606998452553287,-7.937737104825317
0.6079968052713023,-2.9377371048253167
0.6089951579893176,-3.9377371048253167
0.6099935107073329,1.0622628951746833
0.6109918634253482,2.0622628951746833
0.6119902161433634,5.062262895174683
0.6129885688613786,7.062262895174683
0.6139869215793939,7.062262895174683
0.6149852742974092,5.062262895174683
0.6159836270154245,5.062262895174683
0.6169819797334398,6.062262895174683
0.617980332451455,3.0622628951746833
0.6189786851694703,1.0622628951746833
0.6199770378874856,0.06226289517468331
0.6209753906055009,-3.9377371048253167
0.6219737433235162,-6.937737104825317
0.6229720960415315,-5.937737104825317
0.6239704487595467,-2.9377371048253167
0.624968801477562,-4.937737104825317
0.6259671541955772,-2.9377371048253167
0.6269655069135925,-5.937737104825317
0.6279638596316078,-2.9377371048253167
0.628962212349623,-3.9377371048253167
0.6299605650676383,0.06226289517468331
0.6309589177856536,3.0622628951746833
0.6319572705036689,6.062262895174683
0.6329556232216842,7.062262895174683
0.6339539759396995,6.062262895174683
0.6349523286577147,6.062262895174683
0.63595068137573,6.062262895174683
0.6369490340937453,6.062262895174683
0.6379473868117606,3.0622628951746833
0.6389457395297758,0.06226289517468331
0.6399440922477911,-1.9377371048253167
0.6409424449658063,-3.9377371048253167
0.6419407976838216,-5.937737104825317
0.6429391504018369,-5.937737104825317
0.6439375031198522,-3.9377371048253167
0.6449358558378675,-7.937737104825317
0.6459342085558828,-7.937737104825317
0.646932561273898,-3.9377371048253167
0.6479309139919133,-2.9377371048253167
0.6489292667099286,0.06226289517468331
0.6499276194279439,0.06226289517468331
0.6509259721459592,3.0622628951746833
0.6519243248639743,7.062262895174683
0.6529226775819896,7.062262895174683
0.6539210303000049,6.062262895174683
0.6549193830180202,4.062262895174683
0.6559177357360355,6.062262895174683
0.6569160884540508,7.062262895174683
0.657914441172066,2.0622628951746833
0.6589127938900813,0.06226289517468331
0.6599111466080966,0.06226289517468331
0.6609094993261119,-3.9377371048253167
0.6619078520441272,-4.937737104825317
0.6629062047621425,-6.937737104825317
0.6639045574801576,-2.9377371048253167
0.6649029101981729,-6.937737104825317
0.6659012629161882,-6.937737104825317
0.6668996156342035,-4.937737104825317
0.6678979683522188,-2.9377371048253167
0.6688963210702341,0.06226289517468331
0.6698946737882493,2.0622628951746833
0.6708930265062646,2.0622628951746833
0.6718913792242799,4.062262895174683
0.6728897319422952,8.062262895174683
0.6738880846603105,6.062262895174683
0.6748864373783257,5.062262895174683
0.675884790096341,6.062262895174683
0.6768831428143562,6.062262895174683
0.6778814955323715,0.06226289517468331
0.6788798482503868,0.06226289517468331
0.6798782009684021,-2.9377371048253167
0.6808765536864173,-2.9377371048253167
0.6818749064044326,-2.9377371048253167
0.6828732591224479,-4.937737104825317
0.6838716118404632,-5.937737104825317
0.6848699645584785,-4.937737104825317
0.6858683172764938,-7.937737104825317
0.686866669994509,-5.937737104825317
0.6878650227125243,-2.9377371048253167
0.6888633754305395,-1.9377371048253167
0.6898617281485548,0.06226289517468331
0.6908600808665701,3.0622628951746833
0.6918584335845854,6.062262895174683
0.6928567863026006,9.062262895174683
0.6938551390206159,8.062262895174683
0.6948534917386312,5.062262895174683
0.6958518444566465,5.062262895174683
0.6968501971746618,4.062262895174683
0.697848549892677,-0.9377371048253167
0.6988469026106923,3.0622628951746833
0.6998452553287076,0.06226289517468331
0.7008436080467229,-1.9377371048253167
0.7018419607647381,-3.9377371048253167
0.7028403134827534,-6.937737104825317
0.7038386662007686,-6.937737104825317
0.7048370189187839,-4.937737104825317
0.7058353716367992,-7.937737104825317
0.7068337243548145,-6.937737104825317
0.7078320770728298,-3.9377371048253167
0.7088304297908451,0.06226289517468331
0.7098287825088603,2.0622628951746833
0.7108271352268756,2.0622628951746833
0.7118254879448909,6.062262895174683
0.7128238406629062,6.062262895174683
0.7138221933809215,5.062262895174683
0.7148205460989367,6.062262895174683
0.7158188988169519,5.062262895174683
0.7168172515349672,4.062262895174683
0.7178156042529825,3.0622628951746833
0.7188139569709978,1.0622628951746833
0.7198123096890131,-2.9377371048253167
0.7208106624070283,-1.9377371048253167
0.7218090151250436,-2.9377371048253167
0.7228073678430589,-5.937737104825317
0.7238057205610742,-3.9377371048253167
0.7248040732790895,-3.9377371048253167
0.7258024259971048,-6.937737104825317
0.7268007787151199,-7.937737104825317
0.7277991314331352,-2.9377371048253167
0.7287974841511505,-1.9377371048253167
0.7297958368691658,2.0622628951746833
0.7307941895871811,2.0622628951746833
0.7317925423051964,6.062262895174683
0.7327908950232116,7.062262895174683
0.7337892477412269,5.062262895174683
0.7347876004592422,5.062262895174683
0.7357859531772575,5.062262895174683
0.7367843058952728,6.062262895174683
0.7377826586132881,3.0622628951746833
0.7387810113313033,-0.9377371048253167
0.7397793640493185,-2.9377371048253167
0.7407777167673338,-2.9377371048253167
0.7417760694853491,-4.937737104825317
0.7427744222033644,-4.937737104825317
0.7437727749213796,-3.9377371048253167
0.7447711276393949,-4.937737104825317
0.7457694803574102,-6.937737104825317
0.7467678330754255,-4.937737104825317
0.7477661857934408,0.06226289517468331
0.7487645385114561,-1.9377371048253167
0.7497628912294713,0.06226289517468331
0.7507612439474866,1.0622628951746833
0.7517595966655019,4.062262895174683
0.7527579493835171,4.062262895174683
0.7537563021015324,7.062262895174683
0.7547546548195477,5.062262895174683
0.7557530075375629,6.062262895174683
0.7567513602555782,6.062262895174683
0.7577497129735935,2.0622628951746833
0.7587480656916088,2.0622628951746833
0.7597464184096241,-2.9377371048253167
0.7607447711276394,-1.9377371048253167
0.7617431238456546,-3.9377371048253167
0.7627414765636699,-5.937737104825317
0.7637398292816852,-4.937737104825317
0.7647381819997005,-5.937737104825317
0.7657365347177157,-6.937737104825317
0.7667348874357309,-6.937737104825317
0.7677332401537462,-3.9377371048253167
0.7687315928717615,0.06226289517468331
0.7697299455897768,1.0622628951746833
0.7707282983077921,3.0622628951746833
0.7717266510258074,7.062262895174683
0.7727250037438226,7.062262895174683
0.7737233564618379,5.062262895174683
0.7747217091798532,5.062262895174683
0.7757200618978685,4.062262895174683
0.7767184146158838,7.062262895174683
0.777716767333899,2.0622628951746833
0.7787151200519142,1.0622628951746833
0.7797134727699295,-1.9377371048253167
0.7807118254879448,-3.9377371048253167
0.7817101782059601,-5.937737104825317
0.7827085309239754,-3.9377371048253167
0.7837068836419907,-2.9377371048253167
0.7847052363600059,-4.937737104825317
0.7857035890780212,-7.937737104825317
0.7867019417960365,-4.937737104825317
0.7877002945140518,-4.937737104825317
0.7886986472320671,-1.9377371048253167
0.7896969999500824,1.0622628951746833
0.7906953526680975,3.0622628951746833
0.7916937053861128,6.062262895174683
0.7926920581041281,6.062262895174683
0.7936904108221434,6.062262895174683
0.7946887635401587,5.062262895174683
0.7956871162581739,7.062262895174683
0.7966854689761892,7.062262895174683
0.7976838216942045,2.0622628951746833
0.7986821744122198,0.06226289517468331
0.7996805271302351,0.06226289517468331
0.8006788798482504,-1.9377371048253167
0.8016772325662656,-4.937737104825317
0.8026755852842808,-7.937737104825317
0.8036739380022961,-4.937737104825317
0.8046722907203114,-4.937737104825317
0.8056706434383267,-6.937737104825317
0.806668996156342,-6.937737104825317
0.8076673488743572,-2.9377371048253167
0.8086657015923725,-0.9377371048253167
0.8096640543103878,1.0622628951746833
0.8106624070284031,1.0622628951746833
0.8116607597464184,5.062262895174683
0.8126591124644337,7.062262895174683
0.8136574651824489,6.062262895174683
0.8146558179004642,5.062262895174683
0.8156541706184794,7.062262895174683
0.8166525233364947,7.062262895174683
0.81765087605451,3.0622628951746833
0.8186492287725252,0.06226289517468331
0.8196475814905405,0.06226289517468331
0.8206459342085558,-2.9377371048253167
0.8216442869265711,-4.937737104825317
0.8226426396445864,-6.937737104825317
0.8236409923626017,-3.9377371048253167
0.8246393450806169,-6.937737104825317
0.8256376977986322,-7.937737104825317
0.8266360505166475,-5.937737104825317
0.8276344032346628,-1.9377371048253167
0.828632755952678,-2.9377371048253167
0.8296311086706933,0.06226289517468331
0.8306294613887085,2.0622628951746833
0.8316278141067238,5.062262895174683
0.8326261668247391,6.062262895174683
0.8336245195427544,6.062262895174683
0.8346228722607697,5.062262895174683
0.835621224978785,8.062262895174683
0.8366195776968002,7.062262895174683
0.8376179304148155,1.0622628951746833
0.8386162831328308,3.0622628951746833
0.8396146358508461,-2.9377371048253167
0.8406129885688614,-2.9377371048253167
0.8416113412868765,-3.9377371048253167
0.8426096940048918,-6.937737104825317
0.8436080467229071,-3.9377371048253167
0.8446063994409224,-4.937737104825317
0.8456047521589377,-7.937737104825317
0.846603104876953,-5.937737104825317
0.8476014575949682,0.06226289517468331
0.8485998103129835,0.06226289517468331
0.8495981630309988,1.0622628951746833
0.8505965157490141,4.062262895174683
0.8515948684670294,6.062262895174683
0.8525932211850447,7.062262895174683
0.8535915739030598,6.062262895174683
0.8545899266210751,3.0622628951746833
0.8555882793390904,4.062262895174683
0.8565866320571057,7.062262895174683
0.857584984775121,1.0622628951746833
0.8585833374931363,0.06226289517468331
0.8595816902111515,-1.9377371048253167
0.8605800429291668,-1.9377371048253167
0.8615783956471821,-2.9377371048253167
0.8625767483651974,-4.937737104825317
0.8635751010832127,-3.9377371048253167
0.8645734538012279,-4.937737104825317
0.8655718065192431,-7.937737104825317
0.8665701592372584,-3.9377371048253167
0.8675685119552737,-2.9377371048253167
0.868566864673289,-2.9377371048253167
0.8695652173913043,1.0622628951746833
0.8705635701093195,2.0622628951746833
0.8715619228273348,4.062262895174683
0.8725602755453501,6.062262895174683
0.8735586282633654,6.062262895174683
0.8745569809813807,3.0622628951746833
0.875555333699396,6.062262895174683
0.8765536864174112,7.062262895174683
0.8775520391354265,3.0622628951746833
0.8785503918534417,2.0622628951746833
0.879548744571457,0.06226289517468331
0.8805470972894723,-2.9377371048253167
0.8815454500074876,-2.9377371048253167
0.8825438027255028,-7.937737104825317
0.8835421554435181,-7.937737104825317
0.8845405081615334,-5.937737104825317
0.8855388608795487,-7.937737104825317
0.886537213597564,-4.937737104825317
0.8875355663155792,-3.9377371048253167
0.8885339190335945,0.06226289517468331
0.8895322717516098,3.0622628951746833
0.890530624469625,3.0622628951746833
0.8915289771876403,6.062262895174683
0.8925273299056556,6.062262895174683
0.8935256826236708,6.062262895174683
0.8945240353416861,5.062262895174683
0.8955223880597014,5.062262895174683
0.8965207407777167,3.0622628951746833
0.897519093495732,1.0622628951746833
0.8985174462137473,1.0622628951746833
0.8995157989317625,-0.9377371048253167
0.9005141516497778,-2.9377371048253167
0.9015125043677931,-3.9377371048253167
0.9025108570858084,-3.9377371048253167
0.9035092098038237,-3.9377371048253167
0.904507562521839,-5.937737104825317
0.9055059152398541,-6.937737104825317
0.9065042679578694,-7.937737104825317
0.9075026206758847,0.06226289517468331
0.9085009733939,-0.9377371048253167
0.9094993261119153,0.06226289517468331
0.9104976788299305,2.0622628951746833
0.9114960315479458,4.062262895174683
0.9124943842659611,5.062262895174683
0.9134927369839764,6.062262895174683
0.9144910897019917,5.062262895174683
0.915489442420007,8.062262895174683
0.9164877951380221,6.062262895174683
0.9174861478560374,2.0622628951746833
0.9184845005740527,2.0622628951746833
0.919482853292068,-2.9377371048253167
0.9204812060100833,-3.9377371048253167
0.9214795587280986,-5.937737104825317
0.9224779114461138,-4.937737104825317
0.9234762641641291,-3.9377371048253167
0.9244746168821444,-3.9377371048253167
0.9254729696001597,-6.937737104825317
0.926471322318175,-4.937737104825317
0.9274696750361903,-0.9377371048253167
0.9284680277542054,-1.9377371048253167
0.9294663804722207,1.0622628951746833
0.930464733190236,2.0622628951746833
0.9314630859082513,6.062262895174683
0.9324614386262666,9.062262895174683
0.9334597913442818,4.062262895174683
0.9344581440622971,3.0622628951746833
0.9354564967803124,6.062262895174683
0.9364548494983277,6.062262895174683
0.937453202216343,1.0622628951746833
0.9384515549343583,-1.9377371048253167
0.9394499076523735,-2.9377371048253167
0.9404482603703888,-2.9377371048253167
0.941446613088404,-2.9377371048253167
0.9424449658064193,-4.937737104825317
0.9434433185244346,-3.9377371048253167
0.9444416712424499,-5.937737104825317
0.9454400239604651,-7.937737104825317
0.9464383766784804,-5.937737104825317
0.9474367293964957,-3.9377371048253167
0.948435082114511,-3.9377371048253167
0.9494334348325263,0.06226289517468331
0.9504317875505416,2.0622628951746833
0.9514301402685568,5.062262895174683
0.9524284929865721,9.062262895174683
0.9534268457045874,8.062262895174683
0.9544251984226026,4.062262895174683
0.9554235511406179,5.062262895174683
0.9564219038586331,3.0622628951746833
0.9574202565766484,2.0622628951746833
0.9584186092946637,0.06226289517468331
0.959416962012679,0.06226289517468331
0.9604153147306943,-3.9377371048253167
0.9614136674487096,-3.9377371048253167
0.9624120201667248,-6.937737104825317
0.9634103728847401,-5.937737104825317
0.9644087256027554,-3.9377371048253167
0.9654070783207707,-3.9377371048253167
0.966405431038786,-4.937737104825317
0.9674037837568012,-3.9377371048253167
0.9684021364748164,-1.9377371048253167
0.9694004891928317,-0.9377371048253167
0.970398841910847,3.0622628951746833
0.9713971946288623,6.062262895174683
0.9723955473468776,7.062262895174683
0.9733939000648929,6.062262895174683
0.9743922527829081,4.062262895174683
0.9753906055009234,5.062262895174683
0.9763889582189387,4.062262895174683
0.977387310936954,3.0622628951746833
0.9783856636549693,-1.9377371048253167
0.9793840163729844,-1.9377371048253167
0.9803823690909997,-1.9377371048253167
0.981380721809015,-2.9377371048253167
0.9823790745270303,-4.937737104825317
0.9833774272450456,-5.937737104825317
0.9843757799630609,-7.937737104825317
0.9853741326810761,-9.937737104825317
0.9863724853990914,-5.937737104825317
0.9873708381171067,-2.9377371048253167
0.988369190835122,-4.937737104825317
0.9893675435531373,-4.937737104825317
0.9903658962711526,-1.9377371048253167
0.9913642489891678,3.0622628951746833
0.992362601707183,12.062262895174683
0.9933609544251983,17.062262895174683
0.9943593071432136,15.062262895174683
0.9953576598612289,12.062262895174683
0.9963560125792442,6.062262895174683
0.9973543652972594,4.062262895174683
0.9983527180152747,4.062262895174683
0.99935107073329,3.0622628951746833
1.0003494234513053,-1.9377371048253167
1.0013477761693206,-9.937737104825317
1.0023461288873359,-8.937737104825317
1.0033444816053512,-7.937737104825317
1.0043428343233665,-7.937737104825317
1.0053411870413815,-7.937737104825317
1.0063395397593968,-6.937737104825317
1.0073378924774121,-2.9377371048253167
1.0083362451954274,-2.9377371048253167
1.0093345979134427,0.06226289517468331
1.010332950631458,3.0622628951746833
1.0113313033494733,4.062262895174683
1.0123296560674886,7.062262895174683
1.0133280087855039,5.062262895174683
1.0143263615035192,5.062262895174683
1.0153247142215345,7.062262895174683
1.0163230669395498,6.062262895174683
1.0173214196575648,3.0622628951746833
1.0183197723755801,0.06226289517468331
1.0193181250935954,-1.9377371048253167
1.0203164778116107,-3.9377371048253167
1.021314830529626,-5.937737104825317
1.0223131832476413,-4.937737104825317
1.0233115359656566,-3.9377371048253167
1.024309888683672,-7.937737104825317
1.0253082414016872,-7.937737104825317
1.0263065941197025,-2.9377371048253167
1.0273049468377178,2.0622628951746833
1.0283032995557329,-0.9377371048253167
1.0293016522737481,-8.937737104825317
1.0303000049917634,0.06226289517468331
1.0312983577097787,14.062262895174683
1.032296710427794,14.062262895174683
1.0332950631458093,1.0622628951746833
1.0342934158638246,4.062262895174683
1.03529176858184,16.062262895174683
1.0362901212998552,10.062262895174683
1.0372884740178705,-2.9377371048253167
1.0382868267358858,-5.937737104825317
1.039285179453901,-8.937737104825317
1.0402835321719162,-4.937737104825317
1.0412818848899315,-2.9377371048253167
1.0422802376079467,-3.9377371048253167
1.043278590325962,0.06226289517468331
1.0442769430439773,-0.9377371048253167
1.0452752957619926,-7.937737104825317
1.046273648480008,-3.9377371048253167
1.0472720011980232,-3.9377371048253167
1.0482703539160385,-1.9377371048253167
1.0492687066340538,-5.937737104825317
1.050267059352069,-2.9377371048253167
1.0512654120700842,1.0622628951746833
1.0522637647880995,2.0622628951746833
1.0532621175061148,10.062262895174683
1.05426047022413,5.062262895174683
1.0552588229421453,2.0622628951746833
1.0562571756601606,-43.93773710482532
1.057255528378176,36.06226289517468
1.0582538810961912,65.06226289517468
1.0592522338142065,4.062262895174683
1.0602505865322218,-37.93773710482532
1.0612489392502371,-55.93773710482532
1.0622472919682524,-36.93773710482532
1.0632456446862675,-3.9377371048253167
1.0642439974042828,39.06226289517468
1.065242350122298,53.06226289517468
1.0662407028403134,56.06226289517468
1.0672390555583287,8.062262895174683
1.068237408276344,-29.937737104825317
1.0692357609943592,-19.937737104825317
1.0702341137123745,6.062262895174683
1.0712324664303898,12.062262895174683
1.0722308191484051,2.0622628951746833
1.0732291718664204,-4.937737104825317
1.0742275245844355,-5.937737104825317
1.0752258773024508,-1.9377371048253167
1.076224230020466,-2.9377371048253167
1.0772225827384814,-11.937737104825317
1.0782209354564967,-13.937737104825317
1.079219288174512,-14.937737104825317
1.0802176408925273,-11.937737104825317
1.0812159936105425,-43.93773710482532
1.0822143463285578,-7.937737104825317
1.0832126990465731,32.06226289517468
1.0842110517645884,32.06226289517468
1.0852094044826037,1.0622628951746833
1.0862077572006188,-14.937737104825317
1.087206109918634,-14.937737104825317
1.0882044626366494,5.062262895174683
1.0892028153546647,4.062262895174683
1.09020116807268,28.062262895174683
1.0911995207906953,25.062262895174683
1.0921978735087106,-34.93773710482532
1.0931962262267259,-10.937737104825317
1.0941945789447411,-5.937737104825317
1.0951929316627564,-26.937737104825317
1.0961912843807717,-35.93773710482532
1.0971896370987868,-9.937737104825317
1.098187989816802,-3.9377371048253167
1.0991863425348174,58.06226289517468
1.1001846952528327,101.06226289517468
1.101183047970848,31.062262895174683
1.1021814006888633,-43.93773710482532
1.1031797534068786,-54.93773710482532
1.1041781061248939,40.06226289517468
1.1051764588429092,87.06226289517468
1.1061748115609245,38.06226289517468
1.1071731642789397,-19.937737104825317
1.108171516996955,-56.93773710482532
1.1091698697149701,-34.93773710482532
1.1101682224329854,-6.937737104825317
1.1111665751510007,6.062262895174683
1.112164927869016,-17.937737104825317
1.1131632805870313,-43.93773710482532
1.1141616333050466,-30.937737104825317
1.1151599860230619,-18.937737104825317
1.1161583387410772,-66.93773710482532
1.1171566914590925,-11.937737104825317
1.1181550441771078,38.06226289517468
1.119153396895123,-19.937737104825317
1.1201517496131381,68.06226289517468
1.1211501023311534,99.06226289517468
1.1221484550491687,79.06226289517468
1.123146807767184,13.062262895174683
1.1241451604851993,-45.93773710482532
1.1251435132032146,-8.937737104825317
1.12614186592123,77.06226289517468
1.1271402186392452,-12.937737104825317
1.1281385713572605,-63.93773710482532
1.1291369240752758,-2.9377371048253167
1.130135276793291,-7.937737104825317
1.1311336295113064,-27.937737104825317
1.1321319822293214,-12.937737104825317
1.1331303349473367,5.062262895174683
1.134128687665352,-8.937737104825317
1.1351270403833673,-15.937737104825317
1.1361253931013826,-4.937737104825317
1.137123745819398,-16.937737104825317
1.1381220985374132,-5.937737104825317
1.1391204512554285,35.06226289517468
1.1401188039734438,19.062262895174683
1.141117156691459,-62.93773710482532
1.1421155094094744,-82.93773710482532
1.1431138621274894,3.0622628951746833
1.1441122148455047,-7.937737104825317
1.14511056756352,105.06226289517468
1.1461089202815353,116.06226289517468
1.1471072729995506,-43.93773710482532
1.148105625717566,-38.93773710482532
1.1491039784355812,-16.937737104825317
1.1501023311535965,-64.93773710482532
1.1511006838716118,-97.93773710482532
1.152099036589627,-41.93773710482532
1.1530973893076424,67.06226289517468
1.1540957420256577,136.06226289517468
1.1550940947436728,105.06226289517468
1.156092447461688,68.06226289517468
1.1570908001797033,30.062262895174683
1.1580891528977186,-44.93773710482532
1.159087505615734,-46.93773710482532
1.1600858583337492,-50.93773710482532
1.1610842110517645,-57.93773710482532
1.1620825637697798,-81.93773710482532
1.163080916487795,-91.93773710482532
1.1640792692058104,9.062262895174683
1.1650776219238257,-92.93773710482532
1.1660759746418408,-71.93773710482532
1.167074327359856,41.06226289517468
1.1680726800778714,36.06226289517468
1.1690710327958866,172.06226289517468
1.170069385513902,84.06226289517468
1.1710677382319172,69.06226289517468
1.1720660909499325,71.06226289517468
1.1730644436679478,20.062262895174683
1.1740627963859631,71.06226289517468
1.1750611491039784,109.06226289517468
1.1760595018219937,8.062262895174683
1.177057854540009,-119.93773710482532
1.178056207258024,-246.93773710482532
1.1790545599760394,-121.93773710482532
1.1800529126940547,89.06226289517468
1.18105126541207,121.06226289517468
1.1820496181300852,43.06226289517468
1.1830479708481005,-2.9377371048253167
1.1840463235661158,-14.937737104825317
1.1850446762841311,-1.9377371048253167
1.1860430290021464,-15.937737104825317
1.1870413817201617,-41.93773710482532
1.188039734438177,-90.93773710482532
1.189038087156192,-103.93773710482532
1.1900364398742074,-28.937737104825317
1.1910347925922227,45.06226289517468
1.192033145310238,158.06226289517468
1.1930314980282533,73.06226289517468
1.1940298507462686,-15.937737104825317
1.1950282034642838,-73.93773710482532
1.1960265561822991,-118.93773710482532
1.1970249089003144,33.06226289517468
1.1980232616183297,26.062262895174683
1.199021614336345,-21.937737104825317
1.2000199670543603,104.06226289517468
1.2010183197723754,96.06226289517468
1.2020166724903907,-78.93773710482532
1.203015025208406,-60.93773710482532
1.2040133779264213,-42.93773710482532
1.2050117306444366,86.06226289517468
1.2060100833624519,52.06226289517468
1.2070084360804672,1.0622628951746833
1.2080067887984824,27.062262895174683
1.2090051415164977,12.062262895174683
1.210003494234513,-209.93773710482532
1.2110018469525283,-129.93773710482532
1.2120001996705434,10.062262895174683
1.2129985523885587,152.06226289517468
1.213996905106574,227.06226289517468
1.2149952578245893,20.062262895174683
1.2159936105426046,-94.93773710482532
1.2169919632606199,-129.93773710482532
1.2179903159786352,-86.93773710482532
1.2189886686966505,33.06226289517468
1.2199870214146658,48.06226289517468
1.220985374132681,25.062262895174683
1.2219837268506963,-92.93773710482532
1.2229820795687116,-54.93773710482532
1.2239804322867267,107.06226289517468
1.224978785004742,136.06226289517468
1.2259771377227573,25.062262895174683
1.2269754904407726,-129.93773710482532
1.2279738431587879,-103.93773710482532
1.2289721958768032,136.06226289517468
1.2299705485948185,100.06226289517468
1.2309689013128338,59.06226289517468
1.231967254030849,91.06226289517468
1.2329656067488644,41.06226289517468
1.2339639594668796,-97.93773710482532
1.2349623121848947,-74.93773710482532
1.23596066490291,10.062262895174683
1.2369590176209253,-8.937737104825317
1.2379573703389406,0.06226289517468331
1.238955723056956,-75.93773710482532
1.2399540757749712,-151.93773710482532
1.2409524284929865,-48.93773710482532
1.2419507812110018,6.062262895174683
1.242949133929017,117.06226289517468
1.2439474866470324,118.06226289517468
1.2449458393650477,36.06226289517468
1.245944192083063,-200.93773710482532
1.246942544801078,-182.93773710482532
1.2479408975190933,-156.93773710482532
1.2489392502371086,0.06226289517468331
1.249937602955124,495.0622628951747
1.2509359556731392,269.0622628951747
1.2519343083911545,-111.93773710482532
1.2529326611091698,-302.9377371048253
1.253931013827185,-48.93773710482532
1.2549293665452004,105.06226289517468
1.2559277192632157,17.062262895174683
1.256926071981231,150.06226289517468
1.257924424699246,76.06226289517468
1.2589227774172613,-75.93773710482532
1.2599211301352766,-97.93773710482532
1.260919482853292,-179.93773710482532
1.2619178355713072,-142.93773710482532
1.2629161882893225,72.06226289517468
1.2639145410073378,171.06226289517468
1.264912893725353,-83.93773710482532
1.2659112464433684,-178.93773710482532
1.2669095991613837,-70.93773710482532
1.267907951879399,69.06226289517468
1.2689063045974143,208.06226289517468
1.2699046573154293,289.0622628951747
1.2709030100334446,31.062262895174683
1.27190136275146,-41.93773710482532
1.2728997154694752,3.0622628951746833
1.2738980681874905,-121.93773710482532
1.2748964209055058,-223.93773710482532
1.275894773623521,-121.93773710482532
1.2768931263415364,182.06226289517468
1.2778914790595517,165.06226289517468
1.278889831777567,-34.93773710482532
1.2798881844955823,-255.93773710482532
1.2808865372135974,-177.93773710482532
1.2818848899316126,-5.937737104825317
1.282883242649628,35.06226289517468
1.2838815953676432,290.0622628951747
1.2848799480856585,420.0622628951747
1.2858783008036738,263.0622628951747
1.2868766535216891,-36.93773710482532
1.2878750062397044,-138.93773710482532
1.2888733589577197,-181.93773710482532
1.289871711675735,-203.93773710482532
1.2908700643937503,-240.93773710482532
1.2918684171117656,-274.9377371048253
1.2928667698297807,-76.93773710482532
1.293865122547796,196.06226289517468
1.2948634752658112,278.0622628951747
1.2958618279838265,204.06226289517468
1.2968601807018418,67.06226289517468
1.2978585334198571,-292.9377371048253
1.2988568861378724,-220.93773710482532
1.2998552388558877,33.06226289517468
1.300853591573903,62.06226289517468
1.3018519442919183,-190.93773710482532
1.3028502970099336,-101.93773710482532
1.3038486497279487,104.06226289517468
1.304847002445964,253.06226289517468
1.3058453551639793,64.06226289517468
1.3068437078819946,137.06226289517468
1.3078420606000098,161.06226289517468
1.3088404133180251,74.06226289517468
1.3098387660360404,-95.93773710482532
1.3108371187540557,-218.93773710482532
1.311835471472071,-252.93773710482532
1.3128338241900863,300.0622628951747
1.3138321769081016,35.06226289517468
1.314830529626117,-81.93773710482532
1.315828882344132,-166.93773710482532
1.3168272350621473,-135.93773710482532
1.3178255877801626,61.06226289517468
1.3188239404981779,91.06226289517468
1.3198222932161932,-89.93773710482532
1.3208206459342084,29.062262895174683
1.3218189986522237,88.06226289517468
1.322817351370239,-46.93773710482532
1.3238157040882543,136.06226289517468
1.3248140568062696,101.06226289517468
1.325812409524285,-51.93773710482532
1.3268107622423,28.062262895174683
1.3278091149603153,46.06226289517468
1.3288074676783306,54.06226289517468
1.3298058203963459,26.062262895174683
1.3308041731143612,148.06226289517468
1.3318025258323765,-12.937737104825317
1.3328008785503918,-177.93773710482532
1.333799231268407,-392.9377371048253
1.3347975839864223,-111.93773710482532
1.3357959367044376,279.0622628951747
1.336794289422453,251.06226289517468
1.3377926421404682,4.062262895174683
1.3387909948584833,-10.937737104825317
1.3397893475764986,34.06226289517468
1.3407877002945139,33.06226289517468
1.3417860530125292,-51.93773710482532
1.3427844057305445,-71.93773710482532
1.3437827584485598,-348.9377371048253
1.344781111166575,-319.9377371048253
1.3457794638845904,-423.9377371048253
1.3467778166026056,-142.93773710482532
1.347776169320621,515.0622628951746
1.3487745220386362,515.0622628951746
1.3497728747566513,239.06226289517468
1.3507712274746666,175.06226289517468
1.351769580192682,-136.93773710482532
1.3527679329106972,-427.9377371048253
1.3537662856287125,-255.93773710482532
1.3547646383467278,131.06226289517468
1.355762991064743,310.0622628951747
1.3567613437827584,162.06226289517468
1.3577596965007737,102.06226289517468
1.358758049218789,-143.93773710482532
1.3597564019368042,-255.93773710482532
1.3607547546548195,-121.93773710482532
1.3617531073728346,21.062262895174683
1.36275146009085,275.0622628951747
1.3637498128088652,108.06226289517468
1.3647481655268805,5.062262895174683
1.3657465182448958,-124.93773710482532
1.366744870962911,-184.93773710482532
1.3677432236809264,-161.93773710482532
1.3687415763989417,-69.93773710482532
1.369739929116957,166.06226289517468
1.3707382818349723,216.06226289517468
1.3717366345529876,-11.937737104825317
1.3727349872710026,-20.937737104825317
1.373733339989018,60.06226289517468
1.3747316927070332,-6.937737104825317
1.3757300454250485,-102.93773710482532
1.3767283981430638,-169.93773710482532
1.377726750861079,-5.937737104825317
1.3787251035790944,44.06226289517468
1.3797234562971097,-68.93773710482532
1.380721809015125,-102.93773710482532
1.3817201617331403,-55.93773710482532
1.3827185144511556,164.06226289517468
1.3837168671691709,114.06226289517468
1.384715219887186,12.062262895174683
1.3857135726052012,230.06226289517468
1.3867119253232165,-66.93773710482532
1.3877102780412318,-157.93773710482532
1.388708630759247,-84.93773710482532
1.3897069834772624,198.06226289517468
1.3907053361952777,100.06226289517468
1.391703688913293,230.06226289517468
1.3927020416313083,-45.93773710482532
1.3937003943493236,-199.93773710482532
1.3946987470673389,-59.93773710482532
1.395697099785354,88.06226289517468
1.3966954525033692,-88.93773710482532
1.3976938052213845,-95.93773710482532
1.3986921579393998,-60.93773710482532
1.3996905106574151,-84.93773710482532
1.4006888633754304,-182.93773710482532
1.4016872160934457,226.06226289517468
1.402685568811461,329.0622628951747
1.4036839215294763,60.06226289517468
1.4046822742474916,-204.93773710482532
1.4056806269655069,-150.93773710482532
1.4066789796835222,6.062262895174683
1.4076773324015373,71.06226289517468
1.4086756851195525,2.0622628951746833
1.4096740378375678,-39.93773710482532
1.4106723905555831,-8.937737104825317
1.4116707432735984,-72.93773710482532
1.4126690959916137,-106.93773710482532
1.413667448709629,-197.93773710482532
1.4146658014276443,-74.93773710482532
1.4156641541456596,199.06226289517468
1.416662506863675,10.062262895174683
1.4176608595816902,25.062262895174683
1.4186592122997053,403.0622628951747
1.4196575650177206,310.0622628951747
1.4206559177357359,40.06226289517468
1.4216542704537511,-144.93773710482532
1.4226526231717664,-155.93773710482532
1.4236509758897817,-117.93773710482532
1.424649328607797,34.06226289517468
1.4256476813258123,114.06226289517468
1.4266460340438276,-210.93773710482532
1.427644386761843,-264.9377371048253
1.4286427394798582,-471.9377371048253
1.4296410921978735,-116.93773710482532
1.4306394449158886,214.06226289517468
1.4316377976339039,429.0622628951747
1.4326361503519192,397.0622628951747
1.4336345030699345,174.06226289517468
1.4346328557879497,-71.93773710482532
1.435631208505965,165.06226289517468
1.4366295612239803,-7.937737104825317
1.4376279139419956,-118.93773710482532
1.438626266660011,-49.93773710482532
1.4396246193780262,16.062262895174683
1.4406229720960415,81.06226289517468
1.4416213248140566,-9.937737104825317
1.4426196775320719,-162.93773710482532
1.4436180302500872,-102.93773710482532
1.4446163829681025,-130.93773710482532
1.4456147356861178,-135.93773710482532
1.446613088404133,-74.93773710482532
1.4476114411221483,16.062262895174683
1.4486097938401636,28.062262895174683
1.449608146558179,35.06226289517468
1.4506064992761942,-76.93773710482532
1.4516048519942095,72.06226289517468
1.4526032047122248,49.06226289517468
1.4536015574302399,-56.93773710482532
1.4545999101482552,-165.93773710482532
1.4555982628662705,-72.93773710482532
1.4565966155842858,324.0622628951747
1.457594968302301,198.06226289517468
1.4585933210203164,25.062262895174683
1.4595916737383317,-32.93773710482532
1.460590026456347,-7.937737104825317
1.4615883791743622,-20.937737104825317
1.4625867318923775,-34.93773710482532
1.4635850846103928,-1.9377371048253167
1.464583437328408,49.06226289517468
1.4655817900464232,74.06226289517468
1.4665801427644385,0.06226289517468331
1.4675784954824538,-147.93773710482532
1.468576848200469,-238.93773710482532
1.4695752009184844,42.06226289517468
1.4705735536364997,356.0622628951747
1.471571906354515,225.06226289517468
1.4725702590725303,42.06226289517468
1.4735686117905455,-157.93773710482532
1.4745669645085608,-302.9377371048253
1.4755653172265761,-392.9377371048253
1.4765636699445912,-259.9377371048253
1.4775620226626065,396.0622628951747
1.4785603753806218,444.0622628951747
1.479558728098637,73.06226289517468
1.4805570808166524,-101.93773710482532
1.4815554335346677,-141.93773710482532
1.482553786252683,-108.93773710482532
1.4835521389706983,23.062262895174683
1.4845504916887136,-4.937737104825317
1.4855488444067289,-68.93773710482532
1.4865471971247441,-147.93773710482532
1.4875455498427592,-27.937737104825317
1.4885439025607745,140.06226289517468
1.4895422552787898,-5.937737104825317
1.490540607996805,230.06226289517468
1.4915389607148204,209.06226289517468
1.4925373134328357,41.06226289517468
1.493535666150851,-135.93773710482532
1.4945340188688663,-0.9377371048253167
1.4955323715868816,30.062262895174683
1.4965307243048969,-62.93773710482532
1.4975290770229122,-94.93773710482532
1.4985274297409275,-130.93773710482532
1.4995257824589425,-59.93773710482532
1.5005241351769578,34.06226289517468
1.5015224878949731,156.06226289517468
1.5025208406129884,46.06226289517468
1.5035191933310037,-122.93773710482532
1.504517546049019,-219.93773710482532
1.5055158987670343,-156.93773710482532
1.5065142514850496,173.06226289517468
1.5075126042030649,224.06226289517468
1.5085109569210802,34.06226289517468
1.5095093096390955,88.06226289517468
1.5105076623571105,12.062262895174683
1.5115060150751258,-77.93773710482532
1.5125043677931411,-12.937737104825317
1.5135027205111564,4.062262895174683
1.5145010732291717,-33.93773710482532
1.515499425947187,259.0622628951747
1.5164977786652023,186.06226289517468
1.5174961313832176,-92.93773710482532
1.5184944841012329,-322.9377371048253
1.5194928368192482,-198.93773710482532
1.5204911895372635,-225.93773710482532
1.5214895422552788,289.0622628951747
1.5224878949732938,502.0622628951747
1.5234862476913091,68.06226289517468
1.5244846004093244,-97.93773710482532
1.5254829531273397,-57.93773710482532
1.526481305845355,-43.93773710482532
1.5274796585633703,-133.93773710482532
1.5284780112813856,-123.93773710482532
1.529476363999401,-98.93773710482532
1.5304747167174162,20.062262895174683
1.5314730694354315,49.06226289517468
1.5324714221534468,-132.93773710482532
1.5334697748714619,56.06226289517468
1.5344681275894771,134.06226289517468
1.5354664803074924,124.06226289517468
1.5364648330255077,68.06226289517468
1.537463185743523,-114.93773710482532
1.5384615384615383,-76.93773710482532
1.5394598911795536,4.062262895174683
1.540458243897569,-12.937737104825317
1.5414565966155842,-36.93773710482532
1.5424549493335995,-35.93773710482532
1.5434533020516148,-3.9377371048253167
1.54445165476963,-2.9377371048253167
1.5454500074876452,-4.937737104825317
1.5464483602056605,9.062262895174683
1.5474467129236757,4.062262895174683
1.548445065641691,1.0622628951746833
1.5494434183597063,9.062262895174683
1.5504417710777216,14.062262895174683
1.551440123795737,17.062262895174683
1.5524384765137522,16.062262895174683
1.5534368292317675,4.062262895174683
1.5544351819497828,-12.937737104825317
1.555433534667798,-33.93773710482532
1.5564318873858134,-49.93773710482532
1.5574302401038285,-2.9377371048253167
1.5584285928218438,7.062262895174683
1.559426945539859,5.062262895174683
1.5604252982578743,-91.93773710482532
1.5614236509758896,-11.937737104825317
1.562422003693905,138.06226289517468
1.5634203564119202,162.06226289517468
1.5644187091299355,13.062262895174683
1.5654170618479508,-135.93773710482532
1.5664154145659661,-75.93773710482532
1.5674137672839814,143.06226289517468
1.5684121200019965,67.06226289517468
1.5694104727200118,27.062262895174683
1.570408825438027,-3.9377371048253167
1.5714071781560424,-47.93773710482532
1.5724055308740577,61.06226289517468
1.573403883592073,78.06226289517468
1.5744022363100882,-29.937737104825317
1.5754005890281035,-56.93773710482532
1.5763989417461188,-37.93773710482532
1.5773972944641341,-17.937737104825317
1.5783956471821494,-7.937737104825317
1.5793939999001647,-6.937737104825317
1.5803923526181798,-11.937737104825317
1.581390705336195,-31.937737104825317
1.5823890580542104,-74.93773710482532
1.5833874107722257,-73.93773710482532
1.584385763490241,-76.93773710482532
1.5853841162082563,47.06226289517468
1.5863824689262715,-4.937737104825317
1.5873808216442868,-30.937737104825317
1.5883791743623021,-52.93773710482532
1.5893775270803174,230.06226289517468
1.5903758797983327,119.06226289517468
1.5913742325163478,25.062262895174683
1.592372585234363,53.06226289517468
1.5933709379523784,-49.93773710482532
1.5943692906703937,-148.93773710482532
1.595367643388409,50.06226289517468
1.5963659961064243,165.06226289517468
1.5973643488244396,15.062262895174683
1.5983627015424549,-51.93773710482532
1.5993610542604701,-56.93773710482532
1.6003594069784854,-36.93773710482532
1.6013577596965007,-26.937737104825317
1.602356112414516,29.062262895174683
1.603354465132531,1.0622628951746833
1.6043528178505464,-14.937737104825317
1.6053511705685617,-19.937737104825317
1.606349523286577,-17.937737104825317
1.6073478760045923,-18.937737104825317
1.6083462287226076,-19.937737104825317
1.6093445814406229,-19.937737104825317
1.6103429341586382,-16.937737104825317
1.6113412868766535,-53.93773710482532
1.6123396395946687,-1.9377371048253167
1.613337992312684,-24.937737104825317
1.6143363450306991,-39.93773710482532
1.6153346977487144,-73.93773710482532
1.6163330504667297,-28.937737104825317
1.617331403184745,210.06226289517468
1.6183297559027603,242.06226289517468
1.6193281086207756,3.0622628951746833
1.6203264613387909,-204.93773710482532
1.6213248140568062,-202.93773710482532
1.6223231667748215,252.06226289517468
1.6233215194928368,318.0622628951747
1.624319872210852,50.06226289517468
1.6253182249288673,-71.93773710482532
1.6263165776468824,-80.93773710482532
1.6273149303648977,-74.93773710482532
1.628313283082913,-47.93773710482532
1.6293116358009283,-34.93773710482532
1.6303099885189436,-22.937737104825317
1.631308341236959,-16.937737104825317
1.6323066939549742,-11.937737104825317
1.6333050466729895,5.062262895174683
1.6343033993910048,5.062262895174683
1.63530175210902,-4.937737104825317
1.6363001048270354,8.062262895174683
1.6372984575450504,4.062262895174683
1.6382968102630657,-4.937737104825317
1.639295162981081,-4.937737104825317
1.6402935156990963,4.062262895174683
1.6412918684171116,-12.937737104825317
1.642290221135127,-31.937737104825317
1.6432885738531422,-28.937737104825317
1.6442869265711575,-45.93773710482532
1.6452852792891728,10.062262895174683
1.646283632007188,-40.93773710482532
1.6472819847252034,-22.937737104825317
1.6482803374432187,-1.9377371048253167
1.6492786901612337,-24.937737104825317
1.650277042879249,-62.93773710482532
1.6512753955972643,-99.93773710482532
1.6522737483152796,171.06226289517468
1.653272101033295,157.06226289517468
1.6542704537513102,109.06226289517468
1.6552688064693255,119.06226289517468
1.6562671591873408,91.06226289517468
1.657265511905356,28.062262895174683
1.6582638646233714,-59.93773710482532
1.6592622173413867,-58.93773710482532
1.6602605700594018,-39.93773710482532
1.661258922777417,-36.93773710482532
1.6622572754954323,-33.93773710482532
1.6632556282134476,-29.937737104825317
1.664253980931463,-27.937737104825317
1.6652523336494782,-24.937737104825317
1.6662506863674935,-18.937737104825317
1.6672490390855088,-9.937737104825317
1.668247391803524,-9.937737104825317
1.6692457445215394,-2.9377371048253167
1.6702440972395547,-1.9377371048253167
1.67124244995757,9.062262895174683
1.672240802675585,6.062262895174683
1.6732391553936004,-10.937737104825317
1.6742375081116156,-11.937737104825317
1.675235860829631,0.06226289517468331
1.6762342135476462,4.062262895174683
1.6772325662656615,-18.937737104825317
1.6782309189836768,24.062262895174683
1.6792292717016921,22.062262895174683
1.6802276244197074,-16.937737104825317
1.6812259771377227,-31.937737104825317
1.682224329855738,-12.937737104825317
1.683222682573753,56.06226289517468
1.6842210352917684,38.06226289517468
1.6852193880097837,-8.937737104825317
1.686217740727799,-2.9377371048253167
1.6872160934458142,34.06226289517468
1.6882144461638295,27.062262895174683
1.6892127988818448,0.06226289517468331
1.6902111515998601,-17.937737104825317
1.6912095043178754,-13.937737104825317
1.6922078570358907,-10.937737104825317
1.693206209753906,-15.937737104825317
1.6942045624719213,-3.9377371048253167
1.6952029151899364,7.062262895174683
1.6962012679079517,18.062262895174683
1.697199620625967,-4.937737104825317
1.6981979733439823,-31.937737104825317
1.6991963260619976,36.06226289517468
1.7001946787800128,2.0622628951746833
1.7011930314980281,-41.93773710482532
1.7021913842160434,-53.93773710482532
1.7031897369340587,56.06226289517468
1.704188089652074,-3.9377371048253167
1.7051864423700893,29.062262895174683
1.7061847950881044,33.06226289517468
1.7071831478061197,-11.937737104825317
1.708181500524135,-17.937737104825317
1.7091798532421503,-11.937737104825317
1.7101782059601656,-6.937737104825317
1.7111765586781809,-0.9377371048253167
1.7121749113961962,-0.9377371048253167
1.7131732641142114,4.062262895174683
1.7141716168322267,5.062262895174683
1.715169969550242,7.062262895174683
1.7161683222682573,4.062262895174683
1.7171666749862726,-9.937737104825317
1.7181650277042877,-14.937737104825317
1.719163380422303,-6.937737104825317
1.7201617331403183,12.062262895174683
1.7211600858583336,19.062262895174683
1.7221584385763489,4.062262895174683
1.7231567912943642,-34.93773710482532
1.7241551440123795,-31.937737104825317
1.7251534967303948,25.062262895174683
1.72615184944841,-31.937737104825317
1.7271502021664253,-40.93773710482532
1.7281485548844406,61.06226289517468
1.7291469076024557,77.06226289517468
1.730145260320471,6.062262895174683
1.7311436130384863,-8.937737104825317
1.7321419657565016,-35.93773710482532
1.7331403184745169,-29.937737104825317
1.7341386711925322,24.062262895174683
1.7351370239105475,11.062262895174683
1.7361353766285628,-46.93773710482532
1.737133729346578,-18.937737104825317
1.7381320820645934,113.06226289517468
1.7391304347826086,65.06226289517468
1.740128787500624,-3.9377371048253167
1.741127140218639,-26.937737104825317
1.7421254929366543,-27.937737104825317
1.7431238456546696,-34.93773710482532
1.744122198372685,-7.937737104825317
1.7451205510907002,-1.9377371048253167
1.7461189038087155,-25.937737104825317
1.7471172565267308,-34.93773710482532
1.748115609244746,-37.93773710482532
1.7491139619627614,-36.93773710482532
1.7501123146807767,-56.93773710482532
1.751110667398792,-50.93773710482532
1.752109020116807,-66.93773710482532
1.7531073728348223,149.06226289517468
1.7541057255528376,244.06226289517468
1.755104078270853,95.06226289517468
1.7561024309888682,-28.937737104825317
1.7571007837068835,1.0622628951746833
1.7580991364248988,20.062262895174683
1.759097489142914,-12.937737104825317
1.7600958418609294,-32.93773710482532
1.7610941945789447,-32.93773710482532
1.76209254729696,-23.937737104825317
1.7630909000149753,-21.937737104825317
1.7640892527329903,-23.937737104825317
1.7650876054510056,-28.937737104825317
1.766085958169021,-31.937737104825317
1.7670843108870362,-25.937737104825317
1.7680826636050515,9.062262895174683
1.7690810163230668,-67.93773710482532
1.770079369041082,-14.937737104825317
1.7710777217590974,95.06226289517468
1.7720760744771127,-8.937737104825317
1.773074427195128,54.06226289517468
1.7740727799131433,-2.9377371048253167
1.7750711326311583,10.062262895174683
1.7760694853491736,34.06226289517468
1.777067838067189,-0.9377371048253167
1.7780661907852042,-40.93773710482532
1.7790645435032195,23.062262895174683
1.7800628962212348,74.06226289517468
1.78106124893925,18.062262895174683
1.7820596016572654,-28.937737104825317
1.7830579543752807,-34.93773710482532
1.784056307093296,-31.937737104825317
1.7850546598113113,-20.937737104825317
1.7860530125293266,-8.937737104825317
1.7870513652473416,-11.937737104825317
1.788049717965357,-6.937737104825317
1.7890480706833722,4.062262895174683
1.7900464234013875,8.062262895174683
1.7910447761194028,6.062262895174683
1.7920431288374181,4.062262895174683
1.7930414815554334,6.062262895174683
1.7940398342734487,6.062262895174683
1.795038186991464,-10.937737104825317
1.7960365397094793,9.062262895174683
1.7970348924274946,12.062262895174683
1.7980332451455097,10.062262895174683
1.799031597863525,4.062262895174683
1.8000299505815403,-7.937737104825317
1.8010283032995555,-7.937737104825317
1.8020266560175708,-8.937737104825317
1.8030250087355861,-6.937737104825317
1.8040233614536014,-7.937737104825317
1.8050217141716167,-6.937737104825317
1.806020066889632,-4.937737104825317
1.8070184196076473,2.0622628951746833
1.8080167723256626,3.0622628951746833
1.809015125043678,0.06226289517468331
1.810013477761693,9.062262895174683
1.8110118304797083,6.062262895174683
1.8120101831977236,-33.93773710482532
1.8130085359157389,28.062262895174683
1.8140068886337541,22.062262895174683
1.8150052413517694,-2.9377371048253167
1.8160035940697847,-7.937737104825317
1.8170019467878,-26.937737104825317
1.8180002995058153,-1.9377371048253167
1.8189986522238306,30.062262895174683
1.819997004941846,37.06226289517468
1.820995357659861,-22.937737104825317
1.8219937103778763,-91.93773710482532
1.8229920630958916,-14.937737104825317
1.8239904158139069,-43.93773710482532
1.8249887685319222,-12.937737104825317
1.8259871212499375,-77.93773710482532
1.8269854739679527,-2.9377371048253167
1.827983826685968,207.06226289517468
1.8289821794039833,171.06226289517468
1.8299805321219986,54.06226289517468
1.830978884840014,-30.937737104825317
1.8319772375580292,-47.93773710482532
1.8329755902760443,-30.937737104825317
1.8339739429940596,-20.937737104825317
1.8349722957120749,-16.937737104825317
1.8359706484300902,-14.937737104825317
1.8369690011481055,-11.937737104825317
1.8379673538661208,-9.937737104825317
1.838965706584136,-5.937737104825317
1.8399640593021513,-9.937737104825317
1.8409624120201666,-5.937737104825317
1.841960764738182,-6.937737104825317
1.8429591174561972,-9.937737104825317
1.8439574701742123,-12.937737104825317
1.8449558228922276,-5.937737104825317
1.8459541756102429,-10.937737104825317
1.8469525283282582,-25.937737104825317
1.8479508810462735,35.06226289517468
1.8489492337642888,20.062262895174683
1.849947586482304,5.062262895174683
1.8509459392003194,7.062262895174683
1.8519442919183347,4.062262895174683
1.85294264463635,1.0622628951746833
1.8539409973543652,-1.9377371048253167
1.8549393500723805,4.062262895174683
1.8559377027903956,4.062262895174683
1.856936055508411,3.0622628951746833
1.8579344082264262,-0.9377371048253167
1.8589327609444415,-4.937737104825317
1.8599311136624568,-5.937737104825317
1.860929466380472,-5.937737104825317
1.8619278190984874,-4.937737104825317
1.8629261718165027,-6.937737104825317
1.863924524534518,-4.937737104825317
1.8649228772525333,-2.9377371048253167
1.8659212299705485,-2.9377371048253167
1.8669195826885636,-2.9377371048253167
1.867917935406579,0.06226289517468331
1.8689162881245942,3.0622628951746833
1.8699146408426095,6.062262895174683
1.8709129935606248,8.062262895174683
1.87191134627864,5.062262895174683
1.8729096989966554,6.062262895174683
1.8739080517146707,6.062262895174683
1.874906404432686,5.062262895174683
1.8759047571507013,1.0622628951746833
1.8769031098687166,0.06226289517468331
1.8779014625867319,-1.9377371048253167
1.878899815304747,-4.937737104825317
1.8798981680227622,-7.937737104825317
1.8808965207407775,-7.937737104825317
1.8818948734587928,0.06226289517468331
1.882893226176808,4.062262895174683
1.8838915788948234,-6.937737104825317
1.8848899316128387,-5.937737104825317
1.885888284330854,-4.937737104825317
1.8868866370488693,-2.9377371048253167
1.8878849897668846,-3.9377371048253167
1.8888833424848999,0.06226289517468331
1.889881695202915,4.062262895174683
1.8908800479209302,8.062262895174683
1.8918784006389455,8.062262895174683
1.8928767533569608,5.062262895174683
1.8938751060749761,8.062262895174683
1.8948734587929914,5.062262895174683
1.8958718115110067,1.0622628951746833
1.896870164229022,2.0622628951746833
1.8978685169470373,0.06226289517468331
1.8988668696650526,-3.9377371048253167
1.8998652223830679,-3.9377371048253167
1.9008635751010832,-3.9377371048253167
1.9018619278190982,-5.937737104825317
1.9028602805371135,-5.937737104825317
1.9038586332551288,-6.937737104825317
1.9048569859731441,-4.937737104825317
1.9058553386911594,-0.9377371048253167
1.9068536914091747,-1.9377371048253167
1.90785204412719,0.06226289517468331
1.9088503968452053,1.0622628951746833
1.9098487495632206,5.062262895174683
1.9108471022812359,8.062262895174683
1.9118454549992512,4.062262895174683
1.9128438077172663,5.062262895174683
1.9138421604352815,4.062262895174683
1.9148405131532968,4.062262895174683
1.9158388658713121,3.0622628951746833
1.9168372185893274,3.0622628951746833
1.9178355713073427,-1.9377371048253167
1.918833924025358,-1.9377371048253167
1.9198322767433733,-2.9377371048253167
1.9208306294613886,-1.9377371048253167
1.921828982179404,-4.937737104825317
1.9228273348974192,-7.937737104825317
1.9238256876154345,-6.937737104825317
1.9248240403334496,-5.937737104825317
1.9258223930514649,0.06226289517468331
1.9268207457694801,-1.9377371048253167
1.9278190984874954,-1.9377371048253167
1.9288174512055107,-1.9377371048253167
1.929815803923526,5.062262895174683
1.9308141566415413,6.062262895174683
1.9318125093595566,5.062262895174683
1.932810862077572,9.062262895174683
1.9338092147955872,9.062262895174683
1.9348075675136025,-23.937737104825317
1.9358059202316176,5.062262895174683
1.9368042729496329,18.062262895174683
1.9378026256676482,8.062262895174683
1.9388009783856635,4.062262895174683
1.9397993311036787,0.06226289517468331
1.940797683821694,-3.9377371048253167
1.9417960365397093,-7.937737104825317
1.9427943892577246,-13.937737104825317
1.94379274197574,-13.937737104825317
1.9447910946937552,-18.937737104825317
1.9457894474117705,8.062262895174683
1.9467878001297858,13.062262895174683
1.9477861528478009,0.06226289517468331
1.9487845055658162,-2.9377371048253167
1.9497828582838315,3.0622628951746833
1.9507812110018468,5.062262895174683
1.951779563719862,3.0622628951746833
1.9527779164378773,4.062262895174683
1.9537762691558926,8.062262895174683
1.954774621873908,3.0622628951746833
1.9557729745919232,1.0622628951746833
1.9567713273099385,1.0622628951746833
1.9577696800279538,-2.9377371048253167
1.958768032745969,-2.9377371048253167
1.9597663854639842,-4.937737104825317
1.9607647381819995,-3.9377371048253167
1.9617630909000148,-3.9377371048253167
1.96276144361803,-4.937737104825317
1.9637597963360454,-8.937737104825317
1.9647581490540607,-4.937737104825317
1.965756501772076,-2.9377371048253167
1.9667548544900912,-2.9377371048253167
1.9677532072081065,-1.9377371048253167
1.9687515599261218,-1.9377371048253167
1.9697499126441371,4.062262895174683
1.9707482653621522,8.062262895174683
1.9717466180801675,8.062262895174683
1.9727449707981828,5.062262895174683
1.973743323516198,6.062262895174683
1.9747416762342134,6.062262895174683
1.9757400289522287,2.0622628951746833
1.976738381670244,0.06226289517468331
1.9777367343882593,0.06226289517468331
1.9787350871062745,-0.9377371048253167
1.9797334398242898,-3.9377371048253167
1.9807317925423051,-3.9377371048253167
1.9817301452603202,-1.9377371048253167
1.9827284979783355,-4.937737104825317
1.9837268506963508,-7.937737104825317
1.984725203414366,-4.937737104825317
1.9857235561323814,-3.9377371048253167
1.9867219088503967,-3.9377371048253167
1.987720261568412,-2.9377371048253167
1.9887186142864273,1.0622628951746833
1.9897169670044426,3.0622628951746833
1.9907153197224579,5.062262895174683
1.9917136724404731,4.062262895174683
1.9927120251584884,6.062262895174683
1.9937103778765035,9.062262895174683
1.9947087305945188,4.062262895174683
1.995707083312534,2.0622628951746833
1.9967054360305494,1.0622628951746833
1.9977037887485647,-0.9377371048253167
1.99870214146658,-1.9377371048253167
1.9997004941845953,-1.9377371048253167
2.0006988469026106,-3.9377371048253167
2.001697199620626,-2.9377371048253167
2.002695552338641,-3.9377371048253167
2.0036939050566565,-8.937737104825317
2.0046922577746717,-6.937737104825317
2.005690610492687,-2.9377371048253167
2.0066889632107023,-0.9377371048253167
2.0076873159287176,-0.9377371048253167
2.008685668646733,-0.9377371048253167
2.009684021364748,7.062262895174683
2.010682374082763,8.062262895174683
2.0116807268007784,7.062262895174683
2.0126790795187937,3.0622628951746833
2.013677432236809,5.062262895174683
2.0146757849548242,5.062262895174683
2.0156741376728395,1.0622628951746833
2.016672490390855,2.0622628951746833
2.01767084310887,0.06226289517468331
2.0186691958268854,-1.9377371048253167
2.0196675485449007,-3.9377371048253167
2.020665901262916,-3.9377371048253167
2.0216642539809313,-4.937737104825317
2.0226626066989466,-3.9377371048253167
2.023660959416962,-7.937737104825317
2.024659312134977,-6.937737104825317
2.0256576648529925,-1.9377371048253167
2.0266560175710078,-3.9377371048253167
2.027654370289023,-1.9377371048253167
2.0286527230070384,-1.9377371048253167
2.0296510757250537,4.062262895174683
2.030649428443069,6.062262895174683
2.0316477811610842,5.062262895174683
2.0326461338790995,6.062262895174683
2.0336444865971144,7.062262895174683
2.0346428393151297,5.062262895174683
2.035641192033145,3.0622628951746833
2.0366395447511603,2.0622628951746833
2.0376378974691756,-0.9377371048253167
2.038636250187191,-1.9377371048253167
2.039634602905206,-4.937737104825317
2.0406329556232214,-4.937737104825317
2.0416313083412367,-2.9377371048253167
2.042629661059252,-4.937737104825317
2.0436280137772673,-7.937737104825317
2.0446263664952826,-7.937737104825317
2.045624719213298,-2.9377371048253167
2.046623071931313,-2.9377371048253167
2.0476214246493285,1.0622628951746833
2.048619777367344,2.0622628951746833
2.049618130085359,5.062262895174683
2.0506164828033744,7.062262895174683
2.0516148355213897,5.062262895174683
2.052613188239405,3.0622628951746833
2.0536115409574203,6.062262895174683
2.0546098936754356,6.062262895174683
2.055608246393451,1.0622628951746833
2.0566065991114657,3.0622628951746833
2.057604951829481,0.06226289517468331
2.0586033045474963,-3.9377371048253167
2.0596016572655116,-4.937737104825317
2.060600009983527,-3.9377371048253167
2.061598362701542,-1.9377371048253167
2.0625967154195575,-4.937737104825317
2.0635950681375728,-4.937737104825317
2.064593420855588,-5.937737104825317
2.0655917735736034,-2.9377371048253167
2.0665901262916186,-1.9377371048253167
2.067588479009634,-0.9377371048253167
2.0685868317276492,2.0622628951746833
2.0695851844456645,5.062262895174683
2.07058353716368,7.062262895174683
2.071581889881695,4.062262895174683
2.0725802425997104,4.062262895174683
2.0735785953177257,7.062262895174683
2.074576948035741,4.062262895174683
2.0755753007537563,3.0622628951746833
2.0765736534717716,3.0622628951746833
2.077572006189787,-1.9377371048253167
2.078570358907802,-1.9377371048253167
2.079568711625817,-3.9377371048253167
2.0805670643438323,-3.9377371048253167
2.0815654170618476,-1.9377371048253167
2.082563769779863,-4.937737104825317
2.083562122497878,-7.937737104825317
2.0845604752158935,-3.9377371048253167
2.085558827933909,-0.9377371048253167
2.086557180651924,-2.9377371048253167
2.0875555333699394,-0.9377371048253167
2.0885538860879547,1.0622628951746833
2.08955223880597,6.062262895174683
2.0905505915239853,5.062262895174683
2.0915489442420006,4.062262895174683
2.092547296960016,4.062262895174683
2.093545649678031,7.062262895174683
2.0945440023960464,5.062262895174683
2.0955423551140617,1.0622628951746833
2.096540707832077,2.0622628951746833
2.0975390605500923,0.06226289517468331
2.0985374132681076,-2.9377371048253167
2.099535765986123,-3.9377371048253167
2.100534118704138,-5.937737104825317
2.1015324714221535,-4.937737104825317
2.1025308241401683,-6.937737104825317
2.1035291768581836,-7.937737104825317
2.104527529576199,-2.9377371048253167
2.1055258822942142,-2.9377371048253167
2.1065242350122295,-3.9377371048253167
2.107522587730245,-1.9377371048253167
2.10852094044826,5.062262895174683
2.1095192931662754,5.062262895174683
2.1105176458842907,9.062262895174683
2.111515998602306,4.062262895174683
2.1125143513203213,3.0622628951746833
2.1135127040383366,7.062262895174683
2.114511056756352,4.062262895174683
2.115509409474367,3.0622628951746833
2.1165077621923825,0.06226289517468331
2.1175061149103978,1.0622628951746833
2.118504467628413,-2.9377371048253167
2.1195028203464283,-3.9377371048253167
2.1205011730644436,-5.937737104825317
2.121499525782459,-4.937737104825317
2.1224978785004742,-4.937737104825317
2.1234962312184895,-6.937737104825317
2.124494583936505,-4.937737104825317
2.1254929366545197,-3.9377371048253167
2.126491289372535,-1.9377371048253167
2.1274896420905502,0.06226289517468331
2.1284879948085655,4.062262895174683
2.129486347526581,6.062262895174683
2.130484700244596,7.062262895174683
2.1314830529626114,5.062262895174683
2.1324814056806267,4.062262895174683
2.133479758398642,7.062262895174683
2.1344781111166573,5.062262895174683
2.1354764638346726,1.0622628951746833
2.136474816552688,1.0622628951746833
2.137473169270703,-0.9377371048253167
2.1384715219887185,-0.9377371048253167
2.1394698747067338,-3.9377371048253167
2.140468227424749,-5.937737104825317
2.1414665801427644,-5.937737104825317
2.1424649328607797,-6.937737104825317
2.143463285578795,-6.937737104825317
2.1444616382968102,-5.937737104825317
2.1454599910148255,-1.9377371048253167
2.146458343732841,-0.9377371048253167
2.147456696450856,0.06226289517468331
2.148455049168871,1.0622628951746833
2.1494534018868863,7.062262895174683
2.1504517546049016,5.062262895174683
2.151450107322917,5.062262895174683
2.152448460040932,5.062262895174683
2.1534468127589474,6.062262895174683
2.1544451654769627,4.062262895174683
2.155443518194978,1.0622628951746833
2.1564418709129933,1.0622628951746833
2.1574402236310086,-0.9377371048253167
2.158438576349024,-2.9377371048253167
2.159436929067039,-6.937737104825317
2.1604352817850545,-3.9377371048253167
2.16143363450307,-2.9377371048253167
2.162431987221085,-3.9377371048253167
2.1634303399391004,-5.937737104825317
2.1644286926571157,-5.937737104825317
2.165427045375131,1.0622628951746833
2.1664253980931463,-1.9377371048253167
2.1674237508111616,-1.9377371048253167
2.168422103529177,2.0622628951746833
2.169420456247192,6.062262895174683
2.1704188089652074,5.062262895174683
2.1714171616832223,5.062262895174683
2.1724155144012376,6.062262895174683
2.173413867119253,6.062262895174683
2.174412219837268,5.062262895174683
2.1754105725552835,1.0622628951746833
2.1764089252732988,0.06226289517468331
2.177407277991314,-1.9377371048253167
2.1784056307093294,-1.9377371048253167
2.1794039834273446,-3.9377371048253167
2.18040233614536,-4.937737104825317
2.1814006888633752,-3.9377371048253167
2.1823990415813905,-3.9377371048253167
2.183397394299406,-8.937737104825317
2.184395747017421,-4.937737104825317
2.1853940997354364,-1.9377371048253167
2.1863924524534517,-3.9377371048253167
2.187390805171467,3.0622628951746833
2.1883891578894823,1.0622628951746833
2.1893875106074976,5.062262895174683
2.190385863325513,7.062262895174683
2.191384216043528,5.062262895174683
2.1923825687615435,4.062262895174683
2.1933809214795588,6.062262895174683
2.1943792741975736,5.062262895174683
2.195377626915589,1.0622628951746833
2.196375979633604,3.0622628951746833
2.1973743323516195,-2.9377371048253167
2.198372685069635,-3.9377371048253167
2.19937103778765,-2.9377371048253167
2.2003693905056654,-3.9377371048253167
2.2013677432236807,-3.9377371048253167
2.202366095941696,-5.937737104825317
2.2033644486597113,-7.937737104825317
2.2043628013777266,-4.937737104825317
2.205361154095742,-3.9377371048253167
2.206359506813757,-3.9377371048253167
2.2073578595317724,1.0622628951746833
2.2083562122497877,4.062262895174683
2.209354564967803,6.062262895174683
2.2103529176858183,8.062262895174683
2.2113512704038336,3.0622628951746833
2.212349623121849,4.062262895174683
2.213347975839864,2.0622628951746833
2.2143463285578795,5.062262895174683
2.215344681275895,4.062262895174683
2.21634303399391,3.0622628951746833
2.217341386711925,0.06226289517468331
2.2183397394299402,-3.9377371048253167
2.2193380921479555,-2.9377371048253167
2.220336444865971,-6.937737104825317
2.221334797583986,-2.9377371048253167
2.2223331503020014,-2.9377371048253167
2.2233315030200167,-6.937737104825317
2.224329855738032,-3.9377371048253167
2.2253282084560473,-2.9377371048253167
2.2263265611740626,-1.9377371048253167
2.227324913892078,0.06226289517468331
2.228323266610093,1.0622628951746833
2.2293216193281085,6.062262895174683
2.2303199720461238,6.062262895174683
2.231318324764139,6.062262895174683
2.2323166774821543,4.062262895174683
2.2333150302001696,6.062262895174683
2.234313382918185,4.062262895174683
2.2353117356362002,1.0622628951746833
2.2363100883542155,3.0622628951746833
2.237308441072231,0.06226289517468331
2.238306793790246,-0.9377371048253167
2.2393051465082614,-2.9377371048253167
2.2403034992262763,-6.937737104825317
2.2413018519442915,-4.937737104825317
2.242300204662307,-3.9377371048253167
2.243298557380322,-7.937737104825317
2.2442969100983374,-5.937737104825317
2.2452952628163527,-2.9377371048253167
2.246293615534368,-2.9377371048253167
2.2472919682523833,-1.9377371048253167
2.2482903209703986,1.0622628951746833
2.249288673688414,4.062262895174683
2.250287026406429,6.062262895174683
2.2512853791244445,6.062262895174683
2.25228373184246,5.062262895174683
2.253282084560475,7.062262895174683
2.2542804372784904,5.062262895174683
2.2552787899965057,4.062262895174683
2.256277142714521,-1.9377371048253167
2.2572754954325362,-1.9377371048253167
2.2582738481505515,-2.9377371048253167
2.259272200868567,-4.937737104825317
2.260270553586582,-2.9377371048253167
2.2612689063045974,-4.937737104825317
2.2622672590226127,-3.9377371048253167
2.2632656117406276,-6.937737104825317
2.264263964458643,-5.937737104825317
2.265262317176658,-2.9377371048253167
2.2662606698946735,-1.9377371048253167
2.2672590226126887,1.0622628951746833
2.268257375330704,2.0622628951746833
2.2692557280487193,5.062262895174683
2.2702540807667346,5.062262895174683
2.27125243348475,4.062262895174683
2.272250786202765,5.062262895174683
2.2732491389207805,8.062262895174683
2.274247491638796,7.062262895174683
2.275245844356811,1.0622628951746833
2.2762441970748264,-0.9377371048253167
2.2772425497928417,-0.9377371048253167
2.278240902510857,-1.9377371048253167
2.2792392552288723,-4.937737104825317
2.2802376079468876,-4.937737104825317
2.281235960664903,-3.9377371048253167
2.282234313382918,-4.937737104825317
2.2832326661009335,-5.937737104825317
2.2842310188189487,-3.9377371048253167
2.285229371536964,0.06226289517468331
2.286227724254979,-0.9377371048253167
2.287226076972994,0.06226289517468331
2.2882244296910095,2.0622628951746833
2.2892227824090248,3.0622628951746833
2.29022113512704,5.062262895174683
2.2912194878450554,5.062262895174683
2.2922178405630707,5.062262895174683
2.293216193281086,5.062262895174683
2.2942145459991012,5.062262895174683
2.2952128987171165,1.0622628951746833
2.296211251435132,1.0622628951746833
2.297209604153147,-2.9377371048253167
2.2982079568711624,-1.9377371048253167
2.2992063095891777,-2.9377371048253167
2.300204662307193,-5.937737104825317
2.3012030150252083,-3.9377371048253167
2.3022013677432236,-6.937737104825317
2.303199720461239,-4.937737104825317
2.304198073179254,-4.937737104825317
2.3051964258972695,-1.9377371048253167
2.3061947786152848,-2.9377371048253167
2.3071931313333,1.0622628951746833
2.3081914840513154,1.0622628951746833
2.30918983676933,6.062262895174683
2.3101881894873455,6.062262895174683
2.311186542205361,5.062262895174683
2.312184894923376,4.062262895174683
2.3131832476413914,5.062262895174683
2.3141816003594067,4.062262895174683
2.315179953077422,2.0622628951746833
2.3161783057954373,0.06226289517468331
2.3171766585134526,-1.9377371048253167
2.318175011231468,-1.9377371048253167
2.319173363949483,-2.9377371048253167
2.3201717166674984,-7.937737104825317
2.3211700693855137,-2.9377371048253167
2.322168422103529,-4.937737104825317
2.3231667748215443,-6.937737104825317
2.3241651275395596,-1.9377371048253167
2.325163480257575,-2.9377371048253167
2.32616183297559,-2.9377371048253167
2.3271601856936055,-0.9377371048253167
2.328158538411621,3.0622628951746833
2.329156891129636,5.062262895174683
2.3301552438476514,7.062262895174683
2.3311535965656667,5.062262895174683
2.3321519492836815,7.062262895174683
2.333150302001697,6.062262895174683
2.334148654719712,5.062262895174683
2.3351470074377274,2.0622628951746833
2.3361453601557427,1.0622628951746833
2.337143712873758,-2.9377371048253167
2.3381420655917733,-1.9377371048253167
2.3391404183097886,-3.9377371048253167
2.340138771027804,-4.937737104825317
2.341137123745819,-5.937737104825317
2.3421354764638345,-6.937737104825317
2.3431338291818498,-7.937737104825317
2.344132181899865,-4.937737104825317
2.3451305346178803,-2.9377371048253167
2.3461288873358956,-1.9377371048253167
2.347127240053911,1.0622628951746833
2.3481255927719262,2.0622628951746833
2.3491239454899415,5.062262895174683
2.350122298207957,6.062262895174683
2.351120650925972,5.062262895174683
2.3521190036439874,7.062262895174683
2.3531173563620027,6.062262895174683
2.354115709080018,5.062262895174683
2.355114061798033,0.06226289517468331
2.356112414516048,0.06226289517468331
2.3571107672340634,-1.9377371048253167
2.3581091199520787,-2.9377371048253167
2.359107472670094,-2.9377371048253167
2.3601058253881093,-2.9377371048253167
2.3611041781061246,-5.937737104825317
2.36210253082414,-5.937737104825317
2.363100883542155,-5.937737104825317
2.3640992362601705,-4.937737104825317
2.365097588978186,-2.9377371048253167
2.366095941696201,-1.9377371048253167
2.3670942944142164,1.0622628951746833
2.3680926471322317,3.0622628951746833
2.369090999850247,5.062262895174683
2.3700893525682623,4.062262895174683
2.3710877052862775,3.0622628951746833
2.372086058004293,5.062262895174683
2.373084410722308,7.062262895174683
2.3740827634403234,8.062262895174683
2.3750811161583387,2.0622628951746833
2.376079468876354,-0.9377371048253167
2.3770778215943693,-1.9377371048253167
2.378076174312384,-2.9377371048253167
2.3790745270303995,-2.9377371048253167
2.3800728797484147,-3.9377371048253167
2.38107123246643,-3.9377371048253167
2.3820695851844453,-3.9377371048253167
2.3830679379024606,-7.937737104825317
2.384066290620476,-5.937737104825317
2.385064643338491,-0.9377371048253167
2.3860629960565065,-0.9377371048253167
2.387061348774522,-0.9377371048253167
2.388059701492537,3.0622628951746833
2.3890580542105524,5.062262895174683
2.3900564069285677,9.062262895174683
2.391054759646583,6.062262895174683
2.3920531123645983,5.062262895174683
2.3930514650826136,4.062262895174683
2.394049817800629,5.062262895174683
2.395048170518644,2.0622628951746833
2.3960465232366595,1.0622628951746833
2.3970448759546747,-0.9377371048253167
2.39804322867269,-1.9377371048253167
2.3990415813907053,-2.9377371048253167
2.4000399341087206,-2.9377371048253167
2.4010382868267355,-3.9377371048253167
2.4020366395447508,-5.937737104825317
2.403034992262766,-6.937737104825317
2.4040333449807814,-5.937737104825317
2.4050316976987967,-2.9377371048253167
2.406030050416812,-2.9377371048253167
2.4070284031348272,2.0622628951746833
2.4080267558528425,1.0622628951746833
2.409025108570858,5.062262895174683
2.410023461288873,8.062262895174683
2.4110218140068884,6.062262895174683
2.4120201667249037,6.062262895174683
2.413018519442919,4.062262895174683
2.4140168721609343,4.062262895174683
2.4150152248789496,0.06226289517468331
2.416013577596965,0.06226289517468331
2.41701193031498,-1.9377371048253167
2.4180102830329955,-3.9377371048253167
2.4190086357510108,-5.937737104825317
2.420006988469026,-3.9377371048253167
2.4210053411870414,-3.9377371048253167
2.4220036939050567,-3.9377371048253167
2.423002046623072,-4.937737104825317
2.424000399341087,-4.937737104825317
2.424998752059102,-2.9377371048253167
2.4259971047771174,1.0622628951746833
2.4269954574951327,1.0622628951746833
2.427993810213148,1.0622628951746833
2.4289921629311633,4.062262895174683
2.4299905156491786,7.062262895174683
2.430988868367194,4.062262895174683
2.431987221085209,7.062262895174683
2.4329855738032244,7.062262895174683
2.4339839265212397,5.062262895174683
2.434982279239255,2.0622628951746833
2.4359806319572703,1.0622628951746833
2.4369789846752856,-1.9377371048253167
2.437977337393301,-1.9377371048253167
2.438975690111316,-4.937737104825317
2.4399740428293315,-4.937737104825317
2.440972395547347,-3.9377371048253167
2.441970748265362,-4.937737104825317
2.4429691009833774,-6.937737104825317
2.4439674537013927,-4.937737104825317
2.444965806419408,-1.9377371048253167
2.4459641591374233,-1.9377371048253167
2.446962511855438,1.0622628951746833
2.4479608645734534,1.0622628951746833
2.4489592172914687,5.062262895174683
2.449957570009484,6.062262895174683
2.4509559227274993,4.062262895174683
2.4519542754455146,4.062262895174683
2.45295262816353,9.062262895174683
2.453950980881545,6.062262895174683
2.4549493335995605,2.0622628951746833
2.4559476863175758,3.0622628951746833
2.456946039035591,-1.9377371048253167
2.4579443917536064,-2.9377371048253167
2.4589427444716216,-3.9377371048253167
2.459941097189637,-4.937737104825317
2.4609394499076522,-3.9377371048253167
2.4619378026256675,-4.937737104825317
2.462936155343683,-6.937737104825317
2.463934508061698,-7.937737104825317
2.4649328607797134,-1.9377371048253167
2.4659312134977287,-1.9377371048253167
2.466929566215744,1.0622628951746833
2.4679279189337593,3.0622628951746833
2.4689262716517746,5.062262895174683
2.4699246243697894,5.062262895174683
2.4709229770878047,4.062262895174683
2.47192132980582,5.062262895174683
2.4729196825238353,9.062262895174683
2.4739180352418506,5.062262895174683
2.474916387959866,1.0622628951746833
2.475914740677881,1.0622628951746833
2.4769130933958965,0.06226289517468331
2.477911446113912,-1.9377371048253167
2.478909798831927,-3.9377371048253167
2.4799081515499424,-4.937737104825317
2.4809065042679577,-4.937737104825317
2.481904856985973,-7.937737104825317
2.4829032097039883,-7.937737104825317
2.4839015624220036,-6.937737104825317
2.484899915140019,-2.9377371048253167
2.485898267858034,-2.9377371048253167
2.4868966205760494,1.0622628951746833
2.4878949732940647,2.0622628951746833
2.48889332601208,6.062262895174683
2.4898916787300953,5.062262895174683
2.4908900314481106,4.062262895174683
2.491888384166126,5.062262895174683
2.4928867368841408,8.062262895174683
2.493885089602156,7.062262895174683
2.4948834423201713,3.0622628951746833
2.4958817950381866,-0.9377371048253167
2.496880147756202,1.0622628951746833
2.4978785004742172,-1.9377371048253167
2.4988768531922325,-4.937737104825317
2.499875205910248,-5.937737104825317
2.500873558628263,-4.937737104825317
2.5018719113462784,-6.937737104825317
2.5028702640642937,-4.937737104825317
2.503868616782309,-3.9377371048253167
2.5048669695003243,-0.9377371048253167
2.5058653222183396,-0.9377371048253167
2.506863674936355,0.06226289517468331
2.50786202765437,2.0622628951746833
2.5088603803723855,5.062262895174683
2.5098587330904008,6.062262895174683
2.510857085808416,5.062262895174683
2.5118554385264313,6.062262895174683
2.5128537912444466,7.062262895174683
2.513852143962462,5.062262895174683
2.514850496680477,2.0622628951746833
2.515848849398492,1.0622628951746833
2.5168472021165074,-2.9377371048253167
2.5178455548345227,-1.9377371048253167
2.518843907552538,-3.9377371048253167
2.5198422602705532,-4.937737104825317
2.5208406129885685,-3.9377371048253167
2.521838965706584,-3.9377371048253167
2.522837318424599,-6.937737104825317
2.5238356711426144,-5.937737104825317
2.5248340238606297,-1.9377371048253167
2.525832376578645,0.06226289517468331
2.5268307292966603,0.06226289517468331
2.5278290820146756,2.0622628951746833
2.528827434732691,6.062262895174683
2.529825787450706,5.062262895174683
2.5308241401687215,4.062262895174683
2.5318224928867368,4.062262895174683
2.532820845604752,7.062262895174683
2.5338191983227674,6.062262895174683
2.5348175510407827,3.0622628951746833
2.535815903758798,1.0622628951746833
2.5368142564768132,-0.9377371048253167
2.5378126091948285,-2.9377371048253167
2.5388109619128434,-5.937737104825317
2.5398093146308587,-4.937737104825317
2.540807667348874,-4.937737104825317
2.5418060200668893,-2.9377371048253167
2.5428043727849046,-6.937737104825317
2.54380272550292,-4.937737104825317
2.544801078220935,-1.9377371048253167
2.5457994309389504,-1.9377371048253167
2.5467977836569657,0.06226289517468331
2.547796136374981,1.0622628951746833
2.5487944890929963,5.062262895174683
2.5497928418110116,6.062262895174683
2.550791194529027,6.062262895174683
2.551789547247042,5.062262895174683
2.5527878999650575,8.062262895174683
2.553786252683073,5.062262895174683
2.554784605401088,2.0622628951746833
2.5557829581191034,-0.9377371048253167
2.5567813108371187,-1.9377371048253167
2.557779663555134,-1.9377371048253167
2.5587780162731493,-3.9377371048253167
2.5597763689911646,-4.937737104825317
2.56077472170918,-3.9377371048253167
2.5617730744271947,-3.9377371048253167
2.56277142714521,-7.937737104825317
2.5637697798632253,-5.937737104825317
2.5647681325812406,-1.9377371048253167
2.565766485299256,-1.9377371048253167
2.566764838017271,0.06226289517468331
2.5677631907352865,2.0622628951746833
2.5687615434533018,6.062262895174683
2.569759896171317,6.062262895174683
2.5707582488893324,4.062262895174683
2.5717566016073476,5.062262895174683
2.572754954325363,6.062262895174683
2.5737533070433782,5.062262895174683
2.5747516597613935,1.0622628951746833
2.575750012479409,2.0622628951746833
2.576748365197424,-0.9377371048253167
2.5777467179154394,-3.9377371048253167
2.5787450706334547,-3.9377371048253167
2.57974342335147,-5.937737104825317
2.5807417760694853,-2.9377371048253167
2.5817401287875006,-4.937737104825317
2.582738481505516,-7.937737104825317
2.583736834223531,-6.937737104825317
2.584735186941546,-1.9377371048253167
2.5857335396595613,-0.9377371048253167
2.5867318923775766,1.0622628951746833
2.587730245095592,3.0622628951746833
2.588728597813607,5.062262895174683
2.5897269505316225,6.062262895174683
2.590725303249638,6.062262895174683
2.591723655967653,5.062262895174683
2.5927220086856684,8.062262895174683
2.5937203614036837,5.062262895174683
2.594718714121699,0.06226289517468331
2.5957170668397143,1.0622628951746833
2.5967154195577296,-0.9377371048253167
2.597713772275745,-3.9377371048253167
2.59871212499376,-4.937737104825317
2.5997104777117754,-6.937737104825317
2.6007088304297907,-3.9377371048253167
2.601707183147806,-2.9377371048253167
2.6027055358658213,-9.937737104825317
2.6037038885838366,-4.937737104825317
2.604702241301852,-4.937737104825317
2.605700594019867,-1.9377371048253167
2.6066989467378825,1.0622628951746833
2.6076972994558973,3.0622628951746833
2.6086956521739126,7.062262895174683
2.609694004891928,6.062262895174683
2.6106923576099432,4.062262895174683
2.6116907103279585,5.062262895174683
2.612689063045974,6.062262895174683
2.613687415763989,6.062262895174683
2.6146857684820044,1.0622628951746833
2.6156841212000197,0.06226289517468331
2.616682473918035,-1.9377371048253167
2.6176808266360503,-2.9377371048253167
2.6186791793540656,-4.937737104825317
2.619677532072081,-6.937737104825317
2.620675884790096,-2.9377371048253167
2.6216742375081115,-2.9377371048253167
2.6226725902261268,-8.937737104825317
2.623670942944142,-2.9377371048253167
2.6246692956621573,-2.9377371048253167
2.6256676483801726,-0.9377371048253167
2.626666001098188,1.0622628951746833
2.6276643538162032,4.062262895174683
2.6286627065342185,5.062262895174683
2.629661059252234,6.062262895174683
2.6306594119702487,6.062262895174683
2.631657764688264,6.062262895174683
2.6326561174062793,5.062262895174683
2.6336544701242945,5.062262895174683
2.63465282284231,2.0622628951746833
2.635651175560325,1.0622628951746833
2.6366495282783404,-2.9377371048253167
2.6376478809963557,-1.9377371048253167
2.638646233714371,-4.937737104825317
2.6396445864323863,-2.9377371048253167
2.6406429391504016,-4.937737104825317
2.641641291868417,-5.937737104825317
2.642639644586432,-5.937737104825317
2.6436379973044475,-6.937737104825317
2.644636350022463,-3.9377371048253167
2.645634702740478,-1.9377371048253167
2.6466330554584934,1.0622628951746833
2.6476314081765087,3.0622628951746833
2.648629760894524,7.062262895174683
2.6496281136125392,9.062262895174683
2.6506264663305545,4.062262895174683
2.65162481904857,7.062262895174683
2.652623171766585,7.062262895174683
2.6536215244846,4.062262895174683
2.6546198772026153,1.0622628951746833
2.6556182299206306,0.06226289517468331
2.656616582638646,-0.9377371048253167
2.657614935356661,0.06226289517468331
2.6586132880746765,-5.937737104825317
2.6596116407926917,-5.937737104825317
2.660609993510707,-3.9377371048253167
2.6616083462287223,-6.937737104825317
2.6626066989467376,-7.937737104825317
2.663605051664753,-6.937737104825317
2.664603404382768,-2.9377371048253167
2.6656017571007835,-1.9377371048253167
2.666600109818799,1.0622628951746833
2.667598462536814,3.0622628951746833
2.6685968152548294,6.062262895174683
2.6695951679728447,8.062262895174683
2.67059352069086,5.062262895174683
2.6715918734088753,4.062262895174683
2.6725902261268906,8.062262895174683
2.673588578844906,5.062262895174683
2.674586931562921,3.0622628951746833
2.6755852842809364,1.0622628951746833
2.6765836369989513,0.06226289517468331
2.6775819897169666,-1.9377371048253167
2.678580342434982,-3.9377371048253167
2.679578695152997,-4.937737104825317
2.6805770478710125,-3.9377371048253167
2.6815754005890278,-4.937737104825317
2.682573753307043,-6.937737104825317
2.6835721060250584,-5.937737104825317
2.6845704587430737,-3.9377371048253167
2.685568811461089,-2.9377371048253167
2.6865671641791042,2.0622628951746833
2.6875655168971195,1.0622628951746833
2.688563869615135,5.062262895174683
2.68956222233315,5.062262895174683
2.6905605750511654,6.062262895174683
2.6915589277691807,6.062262895174683
2.692557280487196,6.062262895174683
2.6935556332052113,5.062262895174683
2.6945539859232266,3.0622628951746833
2.695552338641242,0.06226289517468331
2.696550691359257,0.06226289517468331
2.6975490440772725,-1.9377371048253167
2.6985473967952878,-4.937737104825317
2.6995457495133026,-6.937737104825317
2.700544102231318,-2.9377371048253167
2.701542454949333,-6.937737104825317
2.7025408076673485,-7.937737104825317
2.703539160385364,-6.937737104825317
2.704537513103379,-2.9377371048253167
2.7055358658213944,-0.9377371048253167
2.7065342185394097,-0.9377371048253167
2.707532571257425,1.0622628951746833
2.7085309239754403,6.062262895174683
2.7095292766934556,6.062262895174683
2.710527629411471,6.062262895174683
2.711525982129486,6.062262895174683
2.7125243348475014,8.062262895174683
2.7135226875655167,4.062262895174683
2.714521040283532,2.0622628951746833
2.7155193930015473,1.0622628951746833
2.7165177457195626,-1.9377371048253167
2.717516098437578,-2.9377371048253167
2.718514451155593,-2.9377371048253167
2.7195128038736085,-5.937737104825317
2.720511156591624,-3.9377371048253167
2.721509509309639,-5.937737104825317
2.722507862027654,-6.937737104825317
2.7235062147456692,-3.9377371048253167
2.7245045674636845,-2.9377371048253167
2.7255029201817,-1.9377371048253167
2.726501272899715,0.06226289517468331
2.7274996256177304,3.0622628951746833
2.7284979783357457,6.062262895174683
2.729496331053761,4.062262895174683
2.7304946837717763,6.062262895174683
2.7314930364897916,6.062262895174683
2.732491389207807,5.062262895174683
2.733489741925822,4.062262895174683
2.7344880946438375,4.062262895174683
2.7354864473618528,1.0622628951746833
2.736484800079868,-0.9377371048253167
2.7374831527978833,-2.9377371048253167
2.7384815055158986,-4.937737104825317
2.739479858233914,-6.937737104825317
2.7404782109519292,-4.937737104825317
2.7414765636699445,-3.9377371048253167
2.74247491638796,-7.937737104825317
2.743473269105975,-4.937737104825317
2.7444716218239904,-0.9377371048253167
2.7454699745420053,-0.9377371048253167
2.7464683272600205,-2.9377371048253167
2.747466679978036,3.0622628951746833
2.748465032696051,5.062262895174683
2.7494633854140664,5.062262895174683
2.7504617381320817,4.062262895174683
2.751460090850097,2.0622628951746833
2.7524584435681123,8.062262895174683
2.7534567962861276,6.062262895174683
2.754455149004143,2.0622628951746833
2.755453501722158,2.0622628951746833
2.7564518544401735,-0.9377371048253167
2.757450207158189,-1.9377371048253167
2.758448559876204,-2.9377371048253167
2.7594469125942194,-4.937737104825317
2.7604452653122347,-4.937737104825317
2.76144361803025,-3.9377371048253167
2.7624419707482653,-7.937737104825317
2.7634403234662805,-5.937737104825317
2.764438676184296,-3.9377371048253167
2.765437028902311,-0.9377371048253167
2.7664353816203264,1.0622628951746833
2.7674337343383417,3.0622628951746833
2.7684320870563566,5.062262895174683
2.769430439774372,5.062262895174683
2.770428792492387,4.062262895174683
2.7714271452104025,6.062262895174683
2.7724254979284177,8.062262895174683
2.773423850646433,5.062262895174683
2.7744222033644483,1.0622628951746833
2.7754205560824636,2.0622628951746833
2.776418908800479,0.06226289517468331
2.777417261518494,-2.9377371048253167
2.7784156142365095,-3.9377371048253167
2.779413966954525,-4.937737104825317
2.78041231967254,-4.937737104825317
2.7814106723905554,-4.937737104825317
2.7824090251085707,-7.937737104825317
2.783407377826586,-4.937737104825317
2.7844057305446013,-1.9377371048253167
2.7854040832626166,-1.9377371048253167
2.786402435980632,0.06226289517468331
2.787400788698647,1.0622628951746833
2.7883991414166625,5.062262895174683
2.7893974941346777,5.062262895174683
2.790395846852693,4.062262895174683
2.791394199570708,5.062262895174683
2.792392552288723,5.062262895174683
2.7933909050067385,5.062262895174683
2.7943892577247538,2.0622628951746833
2.795387610442769,1.0622628951746833
2.7963859631607844,1.0622628951746833
2.7973843158787997,-2.9377371048253167
2.798382668596815,-2.9377371048253167
2.7993810213148302,-4.937737104825317
2.8003793740328455,-2.9377371048253167
2.801377726750861,-5.937737104825317
2.802376079468876,-7.937737104825317
2.8033744321868914,-5.937737104825317
2.8043727849049067,-3.9377371048253167
2.805371137622922,0.06226289517468331
2.8063694903409373,-1.9377371048253167
2.8073678430589526,1.0622628951746833
2.808366195776968,5.062262895174683
2.809364548494983,5.062262895174683
2.8103629012129985,4.062262895174683
2.8113612539310138,4.062262895174683
2.812359606649029,6.062262895174683
2.8133579593670444,6.062262895174683
2.814356312085059,1.0622628951746833
2.8153546648030745,2.0622628951746833
2.81635301752109,0.06226289517468331
2.817351370239105,-3.9377371048253167
2.8183497229571204,-5.937737104825317
2.8193480756751357,-5.937737104825317
2.820346428393151,-2.9377371048253167
2.8213447811111663,-5.937737104825317
2.8223431338291816,-5.937737104825317
2.823341486547197,-4.937737104825317
2.824339839265212,-2.9377371048253167
2.8253381919832274,-0.9377371048253167
2.8263365447012427,1.0622628951746833
2.827334897419258,3.0622628951746833
2.8283332501372733,5.062262895174683
2.8293316028552886,7.062262895174683
2.830329955573304,5.062262895174683
2.831328308291319,6.062262895174683
2.8323266610093345,7.062262895174683
2.83332501372735,4.062262895174683
2.834323366445365,0.06226289517468331
2.8353217191633804,0.06226289517468331
2.8363200718813957,-2.9377371048253167
2.8373184245994105,-2.9377371048253167
2.838316777317426,-5.937737104825317
2.839315130035441,-6.937737104825317
2.8403134827534564,-3.9377371048253167
2.8413118354714717,-4.937737104825317
2.842310188189487,-5.937737104825317
2.8433085409075023,-4.937737104825317
2.8443068936255176,0.06226289517468331
2.845305246343533,0.06226289517468331
2.846303599061548,1.0622628951746833
2.8473019517795635,3.0622628951746833
2.8483003044975788,5.062262895174683
2.849298657215594,7.062262895174683
2.8502970099336093,4.062262895174683
2.8512953626516246,5.062262895174683
2.85229371536964,8.062262895174683
2.8532920680876552,5.062262895174683
2.8542904208056705,1.0622628951746833
2.855288773523686,0.06226289517468331
2.856287126241701,-1.9377371048253167
2.8572854789597164,-2.9377371048253167
2.8582838316777317,-3.9377371048253167
2.859282184395747,-5.937737104825317
2.860280537113762,-4.937737104825317
2.861278889831777,-3.9377371048253167
2.8622772425497924,-5.937737104825317
2.8632755952678077,-3.9377371048253167
2.864273947985823,1.0622628951746833
2.8652723007038383,1.0622628951746833
2.8662706534218536,1.0622628951746833
2.867269006139869,4.062262895174683
2.868267358857884,4.062262895174683
2.8692657115758995,5.062262895174683
2.870264064293915,4.062262895174683
2.87126241701193,5.062262895174683
2.8722607697299454,6.062262895174683
2.8732591224479607,5.062262895174683
2.874257475165976,1.0622628951746833
2.8752558278839913,-0.9377371048253167
2.8762541806020065,-1.9377371048253167
2.877252533320022,-0.9377371048253167
2.878250886038037,-2.9377371048253167
2.8792492387560524,-4.937737104825317
2.8802475914740677,-3.9377371048253167
2.881245944192083,-7.937737104825317
2.8822442969100983,-7.937737104825317
2.883242649628113,-4.937737104825317
2.8842410023461285,0.06226289517468331
2.8852393550641438,-1.9377371048253167
2.886237707782159,0.06226289517468331
2.8872360605001743,3.0622628951746833
2.8882344132181896,4.062262895174683
2.889232765936205,4.062262895174683
2.89023111865422,4.062262895174683
2.8912294713722355,6.062262895174683
2.892227824090251,8.062262895174683
2.893226176808266,6.062262895174683
2.8942245295262814,3.0622628951746833
2.8952228822442967,0.06226289517468331
2.896221234962312,-1.9377371048253167
2.8972195876803273,-2.9377371048253167
2.8982179403983426,-3.9377371048253167
2.899216293116358,-4.937737104825317
2.900214645834373,-3.9377371048253167
2.9012129985523885,-2.9377371048253167
2.9022113512704037,-6.937737104825317
2.903209703988419,-3.9377371048253167
2.9042080567064343,-0.9377371048253167
2.9052064094244496,-1.9377371048253167
2.9062047621424645,-1.9377371048253167
2.9072031148604798,1.0622628951746833
2.908201467578495,5.062262895174683
2.9091998202965104,6.062262895174683
2.9101981730145257,7.062262895174683
2.911196525732541,4.062262895174683
2.9121948784505562,6.062262895174683
2.9131932311685715,4.062262895174683
2.914191583886587,1.0622628951746833
2.915189936604602,1.0622628951746833
2.9161882893226174,0.06226289517468331
2.9171866420406327,-2.9377371048253167
2.918184994758648,-2.9377371048253167
2.9191833474766633,-4.937737104825317
2.9201817001946786,-2.9377371048253167
2.921180052912694,-4.937737104825317
2.922178405630709,-5.937737104825317
2.9231767583487245,-4.937737104825317
2.9241751110667398,-2.9377371048253167
2.925173463784755,-1.9377371048253167
2.9261718165027704,1.0622628951746833
2.9271701692207857,3.0622628951746833
2.928168521938801,6.062262895174683
2.929166874656816,6.062262895174683
2.930165227374831,4.062262895174683
2.9311635800928464,6.062262895174683
2.9321619328108617,5.062262895174683
2.933160285528877,4.062262895174683
2.9341586382468923,2.0622628951746833
2.9351569909649076,2.0622628951746833
2.936155343682923,-0.9377371048253167
2.937153696400938,-3.9377371048253167
2.9381520491189534,-4.937737104825317
2.9391504018369687,-5.937737104825317
2.940148754554984,-3.9377371048253167
2.9411471072729993,-3.9377371048253167
2.9421454599910146,-7.937737104825317
2.94314381270903,-2.9377371048253167
2.944142165427045,-3.9377371048253167
2.9451405181450605,-0.9377371048253167
2.946138870863076,1.0622628951746833
2.947137223581091,2.0622628951746833
2.9481355762991064,5.062262895174683
2.9491339290171217,6.062262895174683
2.950132281735137,4.062262895174683
2.9511306344531523,6.062262895174683
2.952128987171167,7.062262895174683
2.9531273398891824,4.062262895174683
2.9541256926071977,1.0622628951746833
2.955124045325213,-0.9377371048253167
2.9561223980432283,-1.9377371048253167
2.9571207507612436,1.0622628951746833
2.958119103479259,-3.9377371048253167
2.959117456197274,-6.937737104825317
2.9601158089152895,-4.937737104825317
2.9611141616333048,-3.9377371048253167
2.96211251435132,-4.937737104825317
2.9631108670693354,-4.937737104825317
2.9641092197873506,-2.9377371048253167
2.965107572505366,0.06226289517468331
2.9661059252233812,0.06226289517468331
2.9671042779413965,1.0622628951746833
2.968102630659412,3.0622628951746833
2.969100983377427,5.062262895174683
2.9700993360954424,4.062262895174683
2.9710976888134577,4.062262895174683
2.972096041531473,3.0622628951746833
2.9730943942494883,4.062262895174683
2.9740927469675036,4.062262895174683
2.9750910996855184,3.0622628951746833
2.9760894524035337,0.06226289517468331
2.977087805121549,-2.9377371048253167
2.9780861578395643,-3.9377371048253167
2.9790845105575796,-2.9377371048253167
2.980082863275595,-3.9377371048253167
2.98108121599361,-5.937737104825317
2.9820795687116255,-5.937737104825317
2.983077921429641,-4.937737104825317
2.984076274147656,-1.9377371048253167
2.9850746268656714,-1.9377371048253167
2.9860729795836867,-0.9377371048253167
2.987071332301702,2.0622628951746833
2.9880696850197173,5.062262895174683
2.9890680377377326,8.062262895174683
2.990066390455748,4.062262895174683
2.991064743173763,5.062262895174683
2.9920630958917784,6.062262895174683
2.9930614486097937,7.062262895174683
2.994059801327809,1.0622628951746833
2.9950581540458243,0.06226289517468331
2.9960565067638396,1.0622628951746833
2.997054859481855,-2.9377371048253167
2.9980532121998698,-2.9377371048253167
2.999051564917885,-4.937737104825317
3.0000499176359003,-4.937737104825317
3.0010482703539156,-5.937737104825317
3.002046623071931,-6.937737104825317
3.0030449757899462,-4.937737104825317
3.0040433285079615,-2.9377371048253167
3.005041681225977,-1.9377371048253167
3.006040033943992,0.06226289517468331
3.0070383866620074,3.0622628951746833
3.0080367393800227,5.062262895174683
3.009035092098038,5.062262895174683
3.0100334448160533,6.062262895174683
3.0110317975340686,4.062262895174683
3.012030150252084,5.062262895174683
3.013028502970099,5.062262895174683
3.0140268556881145,2.0622628951746833
3.0150252084061298,3.0622628951746833
3.016023561124145,-0.9377371048253167
3.0170219138421603,-2.9377371048253167
3.0180202665601756,-4.937737104825317
3.019018619278191,-5.937737104825317
3.0200169719962062,-2.9377371048253167
3.021015324714221,-4.937737104825317
3.0220136774322364,-7.937737104825317
3.0230120301502517,-5.937737104825317
3.024010382868267,-2.9377371048253167
3.0250087355862822,-1.9377371048253167
3.0260070883042975,-0.9377371048253167
3.027005441022313,3.0622628951746833
3.028003793740328,7.062262895174683
3.0290021464583434,7.062262895174683
3.0300004991763587,4.062262895174683
3.030998851894374,4.062262895174683
3.0319972046123893,8.062262895174683
3.0329955573304046,4.062262895174683
3.03399391004842,1.0622628951746833
3.034992262766435,1.0622628951746833
3.0359906154844505,0.06226289517468331
3.0369889682024658,-2.9377371048253167
3.037987320920481,-2.9377371048253167
3.0389856736384964,-5.937737104825317
3.0399840263565117,-4.937737104825317
3.040982379074527,-7.937737104825317
3.0419807317925422,-7.937737104825317
3.0429790845105575,-3.9377371048253167
3.0439774372285724,-1.9377371048253167
3.0449757899465877,2.0622628951746833
3.045974142664603,-0.9377371048253167
3.0469724953826183,4.062262895174683
3.0479708481006336,5.062262895174683
3.048969200818649,6.062262895174683
3.049967553536664,4.062262895174683
3.0509659062546794,5.062262895174683
3.0519642589726947,5.062262895174683
3.05296261169071,6.062262895174683
3.0539609644087253,1.0622628951746833
3.0549593171267406,0.06226289517468331
3.055957669844756,0.06226289517468331
3.056956022562771,-2.9377371048253167
3.0579543752807865,-2.9377371048253167
3.058952727998802,-3.9377371048253167
3.059951080716817,-4.937737104825317
3.0609494334348324,-5.937737104825317
3.0619477861528477,-7.937737104825317
3.062946138870863,-4.937737104825317
3.0639444915888783,0.06226289517468331
3.0649428443068936,-1.9377371048253167
3.065941197024909,-0.9377371048253167
3.0669395497429237,3.0622628951746833
3.067937902460939,5.062262895174683
3.0689362551789543,6.062262895174683
3.0699346078969696,3.0622628951746833
3.070932960614985,4.062262895174683
3.071931313333,6.062262895174683
3.0729296660510155,6.062262895174683
3.0739280187690308,4.062262895174683
3.074926371487046,0.06226289517468331
3.0759247242050614,-2.9377371048253167
3.0769230769230766,-1.9377371048253167
3.077921429641092,-3.9377371048253167
3.0789197823591072,-4.937737104825317
3.0799181350771225,-2.9377371048253167
3.080916487795138,-4.937737104825317
3.081914840513153,-5.937737104825317
3.0829131932311684,-4.937737104825317
3.0839115459491837,-3.9377371048253167
3.084909898667199,-2.9377371048253167
3.0859082513852143,0.06226289517468331
3.0869066041032296,3.0622628951746833
3.087904956821245,6.062262895174683
3.08890330953926,7.062262895174683
3.0899016622572755,5.062262895174683
3.0909000149752903,4.062262895174683
3.0918983676933056,6.062262895174683
3.092896720411321,3.0622628951746833
3.093895073129336,2.0622628951746833
3.0948934258473515,0.06226289517468331
3.095891778565367,-0.9377371048253167
3.096890131283382,-1.9377371048253167
3.0978884840013974,-6.937737104825317
3.0988868367194127,-3.9377371048253167
3.099885189437428,-2.9377371048253167
3.1008835421554433,-4.937737104825317
3.1018818948734586,-6.937737104825317
3.102880247591474,-3.9377371048253167
3.103878600309489,-1.9377371048253167
3.1048769530275044,-0.9377371048253167
3.1058753057455197,-1.9377371048253167
3.106873658463535,2.0622628951746833
3.1078720111815503,4.062262895174683
3.1088703638995656,8.062262895174683
3.109868716617581,4.062262895174683
3.110867069335596,5.062262895174683
3.1118654220536115,6.062262895174683
3.112863774771627,5.062262895174683
3.1138621274896416,1.0622628951746833
3.114860480207657,1.0622628951746833
3.1158588329256722,-0.9377371048253167
3.1168571856436875,-2.9377371048253167
3.117855538361703,-6.937737104825317
3.118853891079718,-5.937737104825317
3.1198522437977334,-2.9377371048253167
3.1208505965157487,-3.9377371048253167
3.121848949233764,-5.937737104825317
3.1228473019517793,-3.9377371048253167
3.1238456546697946,-2.9377371048253167
3.12484400738781,-0.9377371048253167
3.125842360105825,1.0622628951746833
3.1268407128238405,-0.9377371048253167
3.1278390655418558,3.0622628951746833
3.128837418259871,8.062262895174683
3.1298357709778863,5.062262895174683
3.1308341236959016,5.062262895174683
3.131832476413917,6.062262895174683
3.1328308291319322,4.062262895174683
3.1338291818499475,-0.9377371048253167
3.134827534567963,1.0622628951746833
3.135825887285978,1.0622628951746833
3.136824240003993,-3.9377371048253167
3.1378225927220083,-6.937737104825317
3.1388209454400235,-4.937737104825317
3.139819298158039,-3.9377371048253167
3.140817650876054,-2.9377371048253167
3.1418160035940694,-2.9377371048253167
3.1428143563120847,-3.9377371048253167
3.1438127090301,0.06226289517468331
3.1448110617481153,0.06226289517468331
3.1458094144661306,-2.9377371048253167
3.146807767184146,-1.9377371048253167
3.147806119902161,9.062262895174683
3.1488044726201765,11.062262895174683
3.149802825338192,3.0622628951746833
3.150801178056207,-2.9377371048253167
3.1517995307742224,4.062262895174683
3.1527978834922377,6.062262895174683
3.153796236210253,6.062262895174683
3.1547945889282683,3.0622628951746833
3.1557929416462835,-1.9377371048253167
3.156791294364299,-3.9377371048253167
3.157789647082314,-4.937737104825317
3.1587879998003294,-4.937737104825317
3.1597863525183443,-3.9377371048253167
3.1607847052363596,-3.9377371048253167
