Time,EMG
0.0,24.11146179401993
0.000996710854181202,8.111461794019931
0.001993421708362404,1.111461794019931
0.002990132562543606,-4.888538205980069
0.003986843416724808,-5.888538205980069
0.00498355427090601,-12.888538205980069
0.005980265125087212,-20.88853820598007
0.006976975979268414,-24.88853820598007
0.007973686833449616,-17.88853820598007
0.008970397687630818,-17.88853820598007
0.00996710854181202,-14.888538205980069
0.01096381939599322,-23.88853820598007
0.011960530250174423,-16.88853820598007
0.012957241104355626,-10.888538205980069
0.013953951958536827,-6.888538205980069
0.014950662812718028,1.111461794019931
0.01594737366689923,17.11146179401993
0.016944084521080434,24.11146179401993
0.017940795375261637,22.11146179401993
0.018937506229442836,15.111461794019931
0.01993421708362404,20.11146179401993
0.02093092793780524,17.11146179401993
0.02192763879198644,1.111461794019931
0.022924349646167644,7.111461794019931
0.023921060500348847,19.11146179401993
0.02491777135453005,13.111461794019931
0.025914482208711252,-2.888538205980069
0.02691119306289245,-16.88853820598007
0.027907903917073654,-20.88853820598007
0.028904614771254857,-28.88853820598007
0.029901325625436057,-20.88853820598007
0.03089803647961726,-15.888538205980069
0.03189474733379846,-6.888538205980069
0.032891458187979665,1.111461794019931
0.03388816904216087,5.111461794019931
0.03488487989634207,19.11146179401993
0.03588159075052327,3.111461794019931
0.03687830160470447,8.111461794019931
0.03787501245888567,22.11146179401993
0.038871723313066875,14.111461794019931
0.03986843416724808,7.111461794019931
0.04086514502142928,11.111461794019931
0.04186185587561048,10.111461794019931
0.042858566729791686,5.111461794019931
0.04385527758397288,4.111461794019931
0.044851988438154085,-2.888538205980069
0.04584869929233529,-19.88853820598007
0.04684541014651649,-23.88853820598007
0.04784212100069769,-31.88853820598007
0.048838831854878896,-33.88853820598007
0.0498355427090601,-28.88853820598007
0.0508322535632413,-21.88853820598007
0.051828964417422504,-8.888538205980069
0.0528256752716037,-0.888538205980069
0.0538223861257849,12.111461794019931
0.054819096979966106,35.11146179401993
0.05581580783414731,37.11146179401993
0.05681251868832851,28.11146179401993
0.057809229542509714,28.11146179401993
0.05880594039669092,22.11146179401993
0.05980265125087211,25.11146179401993
0.060799362105053316,20.11146179401993
0.06179607295923452,10.111461794019931
0.06279278381341573,-17.88853820598007
0.06378949466759692,-20.88853820598007
0.06478620552177812,-27.88853820598007
0.06578291637595933,-30.88853820598007
0.06677962723014053,-22.88853820598007
0.06777633808432174,-11.888538205980069
0.06877304893850293,-14.888538205980069
0.06976975979268414,-26.88853820598007
0.07076647064686534,-10.888538205980069
0.07176318150104655,-1.888538205980069
0.07275989235522774,-1.888538205980069
0.07375660320940894,-8.888538205980069
0.07475331406359015,3.111461794019931
0.07575002491777134,14.111461794019931
0.07674673577195255,17.11146179401993
0.07774344662613375,20.11146179401993
0.07874015748031496,29.11146179401993
0.07973686833449616,29.11146179401993
0.08073357918867735,29.11146179401993
0.08173029004285856,21.11146179401993
0.08272700089703976,22.11146179401993
0.08372371175122097,6.111461794019931
0.08472042260540216,-11.888538205980069
0.08571713345958337,-30.88853820598007
0.08671384431376457,-30.88853820598007
0.08771055516794576,-23.88853820598007
0.08870726602212697,-28.88853820598007
0.08970397687630817,-12.888538205980069
0.09070068773048938,-14.888538205980069
0.09169739858467058,-8.888538205980069
0.09269410943885178,1.111461794019931
0.09369082029303298,12.111461794019931
0.09468753114721419,13.111461794019931
0.09568424200139539,4.111461794019931
0.09668095285557658,9.111461794019931
0.09767766370975779,19.11146179401993
0.09867437456393899,15.111461794019931
0.0996710854181202,26.11146179401993
0.1006677962723014,20.11146179401993
0.1016645071264826,12.111461794019931
0.1026612179806638,8.111461794019931
0.10365792883484501,-3.888538205980069
0.1046546396890262,-9.888538205980069
0.1056513505432074,-9.888538205980069
0.10664806139738861,-12.888538205980069
0.1076447722515698,-13.888538205980069
0.10864148310575102,-15.888538205980069
0.10963819395993221,-17.88853820598007
0.11063490481411342,-37.88853820598007
0.11163161566829462,-34.88853820598007
0.11262832652247581,-23.88853820598007
0.11362503737665702,-2.888538205980069
0.11462174823083822,15.111461794019931
0.11561845908501943,22.11146179401993
0.11661516993920062,30.11146179401993
0.11761188079338183,21.11146179401993
0.11860859164756303,24.11146179401993
0.11960530250174423,21.11146179401993
0.12060201335592544,14.111461794019931
0.12159872421010663,10.111461794019931
0.12259543506428784,4.111461794019931
0.12359214591846904,3.111461794019931
0.12458885677265025,-12.888538205980069
0.12558556762683146,-24.88853820598007
0.12658227848101264,-23.88853820598007
0.12757898933519385,-23.88853820598007
0.12857570018937506,-21.88853820598007
0.12957241104355624,-23.88853820598007
0.13056912189773745,-16.88853820598007
0.13156583275191866,-3.888538205980069
0.13256254360609987,3.111461794019931
0.13355925446028105,-11.888538205980069
0.13455596531446226,11.111461794019931
0.13555267616864347,19.11146179401993
0.13654938702282465,25.11146179401993
0.13754609787700586,17.11146179401993
0.13854280873118707,16.11146179401993
0.13953951958536828,22.11146179401993
0.14053623043954946,16.11146179401993
0.14153294129373067,20.11146179401993
0.14252965214791188,20.11146179401993
0.1435263630020931,10.111461794019931
0.14452307385627428,-0.888538205980069
0.14551978471045549,-19.88853820598007
0.1465164955646367,-27.88853820598007
0.14751320641881788,-25.88853820598007
0.1485099172729991,-19.88853820598007
0.1495066281271803,-21.88853820598007
0.1505033389813615,-22.88853820598007
0.1515000498355427,-18.88853820598007
0.1524967606897239,-9.888538205980069
0.1534934715439051,-7.888538205980069
0.1544901823980863,3.111461794019931
0.1554868932522675,11.111461794019931
0.1564836041064487,27.11146179401993
0.15748031496062992,35.11146179401993
0.1584770258148111,20.11146179401993
0.1594737366689923,18.11146179401993
0.16047044752317352,20.11146179401993
0.1614671583773547,12.111461794019931
0.1624638692315359,5.111461794019931
0.16346058008571712,-0.888538205980069
0.16445729093989833,0.11146179401993095
0.1654540017940795,-4.888538205980069
0.16645071264826072,-14.888538205980069
0.16744742350244193,-24.88853820598007
0.16844413435662312,-31.88853820598007
0.16944084521080433,-21.88853820598007
0.17043755606498553,-18.88853820598007
0.17143426691916674,-9.888538205980069
0.17243097777334793,-0.888538205980069
0.17342768862752914,1.111461794019931
0.17442439948171035,10.111461794019931
0.17542111033589153,14.111461794019931
0.17641782119007274,20.11146179401993
0.17741453204425395,35.11146179401993
0.17841124289843516,24.11146179401993
0.17940795375261634,18.11146179401993
0.18040466460679755,9.111461794019931
0.18140137546097876,-3.888538205980069
0.18239808631515997,-15.888538205980069
0.18339479716934115,-13.888538205980069
0.18439150802352236,-5.888538205980069
0.18538821887770357,-2.888538205980069
0.18638492973188475,-10.888538205980069
0.18738164058606596,-14.888538205980069
0.18837835144024717,-4.888538205980069
0.18937506229442838,-28.88853820598007
0.19037177314860956,-27.88853820598007
0.19136848400279077,-14.888538205980069
0.19236519485697198,5.111461794019931
0.19336190571115316,7.111461794019931
0.19435861656533437,9.111461794019931
0.19535532741951558,17.11146179401993
0.1963520382736968,21.11146179401993
0.19734874912787798,22.11146179401993
0.19834545998205919,20.11146179401993
0.1993421708362404,16.11146179401993
0.20033888169042158,11.111461794019931
0.2013355925446028,11.111461794019931
0.202332303398784,2.111461794019931
0.2033290142529652,-10.888538205980069
0.2043257251071464,-11.888538205980069
0.2053224359613276,-13.888538205980069
0.2063191468155088,-14.888538205980069
0.20731585766969002,-2.888538205980069
0.2083125685238712,-11.888538205980069
0.2093092793780524,-12.888538205980069
0.21030599023223362,-7.888538205980069
0.2113027010864148,-7.888538205980069
0.212299411940596,-7.888538205980069
0.21329612279477722,-5.888538205980069
0.21429283364895843,4.111461794019931
0.2152895445031396,17.11146179401993
0.21628625535732082,23.11146179401993
0.21728296621150203,10.111461794019931
0.21827967706568321,13.111461794019931
0.21927638791986442,23.11146179401993
0.22027309877404563,17.11146179401993
0.22126980962822684,8.111461794019931
0.22226652048240803,1.111461794019931
0.22326323133658924,-2.888538205980069
0.22425994219077044,-15.888538205980069
0.22525665304495163,-21.88853820598007
0.22625336389913284,-20.88853820598007
0.22725007475331405,-20.88853820598007
0.22824678560749526,-22.88853820598007
0.22924349646167644,-14.888538205980069
0.23024020731585765,-17.88853820598007
0.23123691817003886,-19.88853820598007
0.23223362902422004,3.111461794019931
0.23323033987840125,14.111461794019931
0.23422705073258246,17.11146179401993
0.23522376158676367,19.11146179401993
0.23622047244094485,19.11146179401993
0.23721718329512606,13.111461794019931
0.23821389414930727,12.111461794019931
0.23921060500348845,20.11146179401993
0.24020731585766966,25.11146179401993
0.24120402671185087,19.11146179401993
0.24220073756603208,0.11146179401993095
0.24319744842021326,-19.88853820598007
0.24419415927439447,-26.88853820598007
0.24519087012857568,-20.88853820598007
0.2461875809827569,-7.888538205980069
0.24718429183693807,-9.888538205980069
0.24818100269111928,-16.88853820598007
0.2491777135453005,-12.888538205980069
0.2501744243994817,-6.888538205980069
0.2511711352536629,-11.888538205980069
0.2521678461078441,-8.888538205980069
0.2531645569620253,0.11146179401993095
0.2541612678162065,11.111461794019931
0.2551579786703877,20.11146179401993
0.2561546895245689,26.11146179401993
0.2571514003787501,31.11146179401993
0.2581481112329313,24.11146179401993
0.2591448220871125,14.111461794019931
0.2601415329412937,6.111461794019931
0.2611382437954749,3.111461794019931
0.26213495464965614,3.111461794019931
0.2631316655038373,-5.888538205980069
0.2641283763580185,-5.888538205980069
0.26512508721219974,-11.888538205980069
0.2661217980663809,-23.88853820598007
0.2671185089205621,-28.88853820598007
0.26811521977474334,-15.888538205980069
0.2691119306289245,-13.888538205980069
0.2701086414831057,-22.88853820598007
0.27110535233728694,-13.888538205980069
0.2721020631914681,-0.888538205980069
0.2730987740456493,8.111461794019931
0.27409548489983054,13.111461794019931
0.2750921957540117,16.11146179401993
0.27608890660819296,21.11146179401993
0.27708561746237415,27.11146179401993
0.2780823283165553,17.11146179401993
0.27907903917073656,8.111461794019931
0.28007575002491775,7.111461794019931
0.28107246087909893,8.111461794019931
0.28206917173328017,2.111461794019931
0.28306588258746135,-9.888538205980069
0.28406259344164253,-18.88853820598007
0.28505930429582377,-18.88853820598007
0.28605601515000495,4.111461794019931
0.2870527260041862,-8.888538205980069
0.28804943685836737,-17.88853820598007
0.28904614771254855,-18.88853820598007
0.2900428585667298,-11.888538205980069
0.29103956942091097,11.111461794019931
0.29203628027509215,-2.888538205980069
0.2930329911292734,-5.888538205980069
0.29402970198345457,18.11146179401993
0.29502641283763575,11.111461794019931
0.296023123691817,3.111461794019931
0.2970198345459982,22.11146179401993
0.29801654540017936,30.11146179401993
0.2990132562543606,16.11146179401993
0.3000099671085418,4.111461794019931
0.301006677962723,-9.888538205980069
0.3020033888169042,-12.888538205980069
0.3030000996710854,-5.888538205980069
0.3039968105252666,-4.888538205980069
0.3049935213794478,-15.888538205980069
0.305990232233629,-4.888538205980069
0.3069869430878102,-6.888538205980069
0.3079836539419914,-23.88853820598007
0.3089803647961726,-33.88853820598007
0.3099770756503538,-18.88853820598007
0.310973786504535,-1.888538205980069
0.3119704973587162,6.111461794019931
0.3129672082128974,13.111461794019931
0.3139639190670786,7.111461794019931
0.31496062992125984,3.111461794019931
0.315957340775441,11.111461794019931
0.3169540516296222,7.111461794019931
0.31795076248380344,3.111461794019931
0.3189474733379846,16.11146179401993
0.3199441841921658,29.11146179401993
0.32094089504634704,30.11146179401993
0.3219376059005282,6.111461794019931
0.3229343167547094,-4.888538205980069
0.32393102760889064,-6.888538205980069
0.3249277384630718,-2.888538205980069
0.32592444931725306,-20.88853820598007
0.32692116017143424,-23.88853820598007
0.3279178710256154,-24.88853820598007
0.32891458187979666,-28.88853820598007
0.32991129273397785,-23.88853820598007
0.330908003588159,-18.88853820598007
0.33190471444234027,-5.888538205980069
0.33290142529652145,6.111461794019931
0.33389813615070263,17.11146179401993
0.33489484700488387,19.11146179401993
0.33589155785906505,22.11146179401993
0.33688826871324623,21.11146179401993
0.33788497956742747,25.11146179401993
0.33888169042160865,35.11146179401993
0.3398784012757899,19.11146179401993
0.34087511212997107,7.111461794019931
0.34187182298415225,-6.888538205980069
0.3428685338383335,-12.888538205980069
0.34386524469251467,-12.888538205980069
0.34486195554669585,-12.888538205980069
0.3458586664008771,-17.88853820598007
0.3468553772550583,-22.88853820598007
0.34785208810923945,-15.888538205980069
0.3488487989634207,-16.88853820598007
0.3498455098176019,-11.888538205980069
0.35084222067178306,-7.888538205980069
0.3518389315259643,-11.888538205980069
0.3528356423801455,-2.888538205980069
0.3538323532343267,13.111461794019931
0.3548290640885079,14.111461794019931
0.3558257749426891,24.11146179401993
0.3568224857968703,19.11146179401993
0.3578191966510515,12.111461794019931
0.3588159075052327,19.11146179401993
0.3598126183594139,20.11146179401993
0.3608093292135951,11.111461794019931
0.3618060400677763,10.111461794019931
0.3628027509219575,2.111461794019931
0.3637994617761387,-0.888538205980069
0.36479617263031994,-11.888538205980069
0.3657928834845011,-44.88853820598007
0.3667895943386823,-38.88853820598007
0.36778630519286354,-23.88853820598007
0.3687830160470447,-19.88853820598007
0.3697797269012259,-16.88853820598007
0.37077643775540714,-4.888538205980069
0.3717731486095883,9.111461794019931
0.3727698594637695,20.11146179401993
0.37376657031795074,25.11146179401993
0.3747632811721319,14.111461794019931
0.3757599920263131,18.11146179401993
0.37675670288049434,14.111461794019931
0.3777534137346755,14.111461794019931
0.37875012458885676,16.11146179401993
0.37974683544303794,12.111461794019931
0.3807435462972191,-0.888538205980069
0.38174025715140036,1.111461794019931
0.38273696800558155,-4.888538205980069
0.38373367885976273,-19.88853820598007
0.38473038971394397,-27.88853820598007
0.38572710056812515,-28.88853820598007
0.38672381142230633,-18.88853820598007
0.38772052227648757,-17.88853820598007
0.38871723313066875,-5.888538205980069
0.38971394398485,10.111461794019931
0.39071065483903117,5.111461794019931
0.39170736569321235,12.111461794019931
0.3927040765473936,25.11146179401993
0.39370078740157477,11.111461794019931
0.39469749825575595,-0.888538205980069
0.3956942091099372,1.111461794019931
0.39669091996411837,-4.888538205980069
0.39768763081829955,-15.888538205980069
0.3986843416724808,5.111461794019931
0.399681052526662,22.11146179401993
0.40067776338084315,16.11146179401993
0.4016744742350244,9.111461794019931
0.4026711850892056,25.11146179401993
0.4036678959433868,44.11146179401993
0.404664606797568,16.11146179401993
0.4056613176517492,-30.88853820598007
0.4066580285059304,-39.88853820598007
0.4076547393601116,-39.88853820598007
0.4086514502142928,-28.88853820598007
0.409648161068474,-14.888538205980069
0.4106448719226552,-19.88853820598007
0.4116415827768364,-14.888538205980069
0.4126382936310176,-7.888538205980069
0.4136350044851988,14.111461794019931
0.41463171533938004,30.11146179401993
0.4156284261935612,26.11146179401993
0.4166251370477424,0.11146179401993095
0.41762184790192364,0.11146179401993095
0.4186185587561048,20.11146179401993
0.419615269610286,14.111461794019931
0.42061198046446724,25.11146179401993
0.4216086913186484,15.111461794019931
0.4226054021728296,-17.88853820598007
0.42360211302701084,-15.888538205980069
0.424598823881192,-19.88853820598007
0.4255955347353732,-15.888538205980069
0.42659224558955444,-8.888538205980069
0.4275889564437356,-21.88853820598007
0.42858566729791686,-26.88853820598007
0.42958237815209804,-24.88853820598007
0.4305790890062792,-19.88853820598007
0.43157579986046046,5.111461794019931
0.43257251071464164,25.11146179401993
0.4335692215688228,26.11146179401993
0.43456593242300406,20.11146179401993
0.43556264327718525,16.11146179401993
0.43655935413136643,8.111461794019931
0.43755606498554767,12.111461794019931
0.43855277583972885,18.11146179401993
0.43954948669391003,10.111461794019931
0.44054619754809127,8.111461794019931
0.44154290840227245,10.111461794019931
0.4425396192564537,1.111461794019931
0.44353633011063487,-3.888538205980069
0.44453304096481605,-11.888538205980069
0.4455297518189973,-28.88853820598007
0.44652646267317847,-26.88853820598007
0.44752317352735965,-3.888538205980069
0.4485198843815409,7.111461794019931
0.44951659523572207,-22.88853820598007
0.45051330608990325,-26.88853820598007
0.4515100169440845,-19.88853820598007
0.4525067277982657,-4.888538205980069
0.4535034386524469,16.11146179401993
0.4545001495066281,8.111461794019931
0.4554968603608093,21.11146179401993
0.4564935712149905,16.11146179401993
0.4574902820691717,20.11146179401993
0.4584869929233529,24.11146179401993
0.4594837037775341,25.11146179401993
0.4604804146317153,22.11146179401993
0.4614771254858965,33.11146179401993
0.4624738363400777,20.11146179401993
0.4634705471942589,-4.888538205980069
0.4644672580484401,-35.88853820598007
0.4654639689026213,-39.88853820598007
0.4664606797568025,-21.88853820598007
0.46745739061098374,-18.88853820598007
0.4684541014651649,-19.88853820598007
0.4694508123193461,-36.88853820598007
0.47044752317352734,-10.888538205980069
0.4714442340277085,5.111461794019931
0.4724409448818897,-1.888538205980069
0.47343765573607094,-12.888538205980069
0.4744343665902521,-5.888538205980069
0.4754310774444333,20.11146179401993
0.47642778829861454,22.11146179401993
0.4774244991527957,11.111461794019931
0.4784212100069769,29.11146179401993
0.47941792086115814,40.11146179401993
0.4804146317153393,12.111461794019931
0.48141134256952056,-10.888538205980069
0.48240805342370174,-6.888538205980069
0.4834047642778829,-12.888538205980069
0.48440147513206416,-20.88853820598007
0.48539818598624535,-22.88853820598007
0.4863948968404265,-5.888538205980069
0.48739160769460776,-9.888538205980069
0.48838831854878895,-17.88853820598007
0.48938502940297013,-17.88853820598007
0.49038174025715137,0.11146179401993095
0.49137845111133255,5.111461794019931
0.4923751619655138,-7.888538205980069
0.49337187281969497,5.111461794019931
0.49436858367387615,22.11146179401993
0.4953652945280574,14.111461794019931
0.49636200538223857,16.11146179401993
0.49735871623641975,27.11146179401993
0.498355427090601,24.11146179401993
0.49935213794478217,17.11146179401993
0.5003488487989634,12.111461794019931
0.5013455596531445,8.111461794019931
0.5023422705073258,0.11146179401993095
0.503338981361507,-9.888538205980069
0.5043356922156882,-21.88853820598007
0.5053324030698694,-28.88853820598007
0.5063291139240506,-33.88853820598007
0.5073258247782317,-31.88853820598007
0.508322535632413,-22.88853820598007
0.5093192464865942,-20.88853820598007
0.5103159573407754,-13.888538205980069
0.5113126681949566,-2.888538205980069
0.5123093790491378,5.111461794019931
0.513306089903319,1.111461794019931
0.5143028007575002,-4.888538205980069
0.5152995116116814,12.111461794019931
0.5162962224658626,54.11146179401993
0.5172929333200438,64.11146179401993
0.518289644174225,44.11146179401993
0.5192863550284063,12.111461794019931
0.5202830658825874,6.111461794019931
0.5212797767367686,1.111461794019931
0.5222764875909498,-7.888538205980069
0.523273198445131,-19.88853820598007
0.5242699092993123,-19.88853820598007
0.5252666201534935,-27.88853820598007
0.5262633310076746,-26.88853820598007
0.5272600418618558,-19.88853820598007
0.528256752716037,-23.88853820598007
0.5292534635702182,-40.88853820598007
0.5302501744243995,10.111461794019931
0.5312468852785807,28.11146179401993
0.5322435961327618,9.111461794019931
0.533240306986943,4.111461794019931
0.5342370178411242,-1.888538205980069
0.5352337286953054,21.11146179401993
0.5362304395494867,27.11146179401993
0.5372271504036679,28.11146179401993
0.538223861257849,21.11146179401993
0.5392205721120302,11.111461794019931
0.5402172829662114,1.111461794019931
0.5412139938203927,-12.888538205980069
0.5422107046745739,-1.888538205980069
0.5432074155287551,-3.888538205980069
0.5442041263829362,-30.88853820598007
0.5452008372371174,-19.88853820598007
0.5461975480912986,-10.888538205980069
0.5471942589454799,-2.888538205980069
0.5481909697996611,-6.888538205980069
0.5491876806538423,-21.88853820598007
0.5501843915080235,-14.888538205980069
0.5511811023622046,-4.888538205980069
0.5521778132163859,-7.888538205980069
0.5531745240705671,-5.888538205980069
0.5541712349247483,-0.888538205980069
0.5551679457789295,9.111461794019931
0.5561646566331107,18.11146179401993
0.5571613674872918,34.11146179401993
0.5581580783414731,33.11146179401993
0.5591547891956543,33.11146179401993
0.5601515000498355,20.11146179401993
0.5611482109040167,2.111461794019931
0.5621449217581979,-9.888538205980069
0.5631416326123792,-14.888538205980069
0.5641383434665603,-22.88853820598007
0.5651350543207415,-22.88853820598007
0.5661317651749227,-19.88853820598007
0.5671284760291039,-12.888538205980069
0.5681251868832851,-23.88853820598007
0.5691218977374664,-26.88853820598007
0.5701186085916475,-18.88853820598007
0.5711153194458287,-3.888538205980069
0.5721120303000099,2.111461794019931
0.5731087411541911,5.111461794019931
0.5741054520083724,16.11146179401993
0.5751021628625536,35.11146179401993
0.5760988737167347,32.11146179401993
0.5770955845709159,28.11146179401993
0.5780922954250971,19.11146179401993
0.5790890062792783,6.111461794019931
0.5800857171334596,14.111461794019931
0.5810824279876408,10.111461794019931
0.5820791388418219,-0.888538205980069
0.5830758496960031,-5.888538205980069
0.5840725605501843,-23.88853820598007
0.5850692714043655,-26.88853820598007
0.5860659822585468,-31.88853820598007
0.587062693112728,-20.88853820598007
0.5880594039669091,-2.888538205980069
0.5890561148210903,-10.888538205980069
0.5900528256752715,-15.888538205980069
0.5910495365294528,-14.888538205980069
0.592046247383634,3.111461794019931
0.5930429582378152,27.11146179401993
0.5940396690919963,21.11146179401993
0.5950363799461775,21.11146179401993
0.5960330908003587,12.111461794019931
0.59702980165454,21.11146179401993
0.5980265125087212,42.11146179401993
0.5990232233629024,20.11146179401993
0.6000199342170836,18.11146179401993
0.6010166450712647,3.111461794019931
0.602013355925446,1.111461794019931
0.6030100667796272,-10.888538205980069
0.6040067776338084,-21.88853820598007
0.6050034884879896,-22.88853820598007
0.6060001993421708,-36.88853820598007
0.6069969101963519,-31.88853820598007
0.6079936210505332,-26.88853820598007
0.6089903319047144,-19.88853820598007
0.6099870427588956,-4.888538205980069
0.6109837536130768,-7.888538205980069
0.611980464467258,-20.88853820598007
0.6129771753214392,-7.888538205980069
0.6139738861756204,7.111461794019931
0.6149705970298016,17.11146179401993
0.6159673078839828,21.11146179401993
0.616964018738164,41.11146179401993
0.6179607295923452,46.11146179401993
0.6189574404465265,37.11146179401993
0.6199541513007076,10.111461794019931
0.6209508621548888,11.111461794019931
0.62194757300907,-1.888538205980069
0.6229442838632512,-9.888538205980069
0.6239409947174324,-10.888538205980069
0.6249377055716137,-20.88853820598007
0.6259344164257948,-27.88853820598007
0.626931127279976,-26.88853820598007
0.6279278381341572,-29.88853820598007
0.6289245489883384,-22.88853820598007
0.6299212598425197,-17.88853820598007
0.6309179706967009,8.111461794019931
0.631914681550882,2.111461794019931
0.6329113924050632,12.111461794019931
0.6339081032592444,18.11146179401993
0.6349048141134256,19.11146179401993
0.6359015249676069,25.11146179401993
0.6368982358217881,25.11146179401993
0.6378949466759692,22.11146179401993
0.6388916575301504,14.111461794019931
0.6398883683843316,6.111461794019931
0.6408850792385129,-0.888538205980069
0.6418817900926941,-10.888538205980069
0.6428785009468753,-15.888538205980069
0.6438752118010564,-22.88853820598007
0.6448719226552376,-15.888538205980069
0.6458686335094188,-9.888538205980069
0.6468653443636001,-7.888538205980069
0.6478620552177813,-11.888538205980069
0.6488587660719625,-20.88853820598007
0.6498554769261436,-25.88853820598007
0.6508521877803248,-15.888538205980069
0.6518488986345061,-7.888538205980069
0.6528456094886873,1.111461794019931
0.6538423203428685,20.11146179401993
0.6548390311970497,40.11146179401993
0.6558357420512309,37.11146179401993
0.656832452905412,22.11146179401993
0.6578291637595933,28.11146179401993
0.6588258746137745,24.11146179401993
0.6598225854679557,12.111461794019931
0.6608192963221369,7.111461794019931
0.661816007176318,-11.888538205980069
0.6628127180304992,-22.88853820598007
0.6638094288846805,-24.88853820598007
0.6648061397388617,-20.88853820598007
0.6658028505930429,-22.88853820598007
0.6667995614472241,-19.88853820598007
0.6677962723014053,-17.88853820598007
0.6687929831555866,-14.888538205980069
0.6697896940097677,-2.888538205980069
0.6707864048639489,0.11146179401993095
0.6717831157181301,1.111461794019931
0.6727798265723113,-4.888538205980069
0.6737765374264925,11.111461794019931
0.6747732482806738,40.11146179401993
0.6757699591348549,33.11146179401993
0.6767666699890361,27.11146179401993
0.6777633808432173,32.11146179401993
0.6787600916973985,16.11146179401993
0.6797568025515798,-2.888538205980069
0.680753513405761,2.111461794019931
0.6817502242599421,-2.888538205980069
0.6827469351141233,-10.888538205980069
0.6837436459683045,-19.88853820598007
0.6847403568224857,-23.88853820598007
0.685737067676667,-23.88853820598007
0.6867337785308482,-26.88853820598007
0.6877304893850293,-18.88853820598007
0.6887272002392105,-15.888538205980069
0.6897239110933917,-13.888538205980069
0.690720621947573,-16.88853820598007
0.6917173328017542,-5.888538205980069
0.6927140436559354,13.111461794019931
0.6937107545101165,15.111461794019931
0.6947074653642977,27.11146179401993
0.6957041762184789,29.11146179401993
0.6967008870726602,20.11146179401993
0.6976975979268414,22.11146179401993
0.6986943087810226,19.11146179401993
0.6996910196352037,13.111461794019931
0.7006877304893849,-6.888538205980069
0.7016844413435661,-12.888538205980069
0.7026811521977474,-18.88853820598007
0.7036778630519286,-30.88853820598007
0.7046745739061098,-32.88853820598007
0.705671284760291,-27.88853820598007
0.7066679956144721,-2.888538205980069
0.7076647064686534,5.111461794019931
0.7086614173228346,2.111461794019931
0.7096581281770158,16.11146179401993
0.710654839031197,14.111461794019931
0.7116515498853782,7.111461794019931
0.7126482607395593,0.11146179401993095
0.7136449715937406,3.111461794019931
0.7146416824479218,14.111461794019931
0.715638393302103,11.111461794019931
0.7166351041562842,-0.888538205980069
0.7176318150104654,9.111461794019931
0.7186285258646467,31.11146179401993
0.7196252367188278,29.11146179401993
0.720621947573009,12.111461794019931
0.7216186584271902,-10.888538205980069
0.7226153692813714,-31.88853820598007
0.7236120801355526,-19.88853820598007
0.7246087909897339,-14.888538205980069
0.725605501843915,-26.88853820598007
0.7266022126980962,-28.88853820598007
0.7275989235522774,-23.88853820598007
0.7285956344064586,-23.88853820598007
0.7295923452606399,-15.888538205980069
0.7305890561148211,8.111461794019931
0.7315857669690022,23.11146179401993
0.7325824778231834,18.11146179401993
0.7335791886773646,15.111461794019931
0.7345758995315458,19.11146179401993
0.7355726103857271,17.11146179401993
0.7365693212399083,16.11146179401993
0.7375660320940894,20.11146179401993
0.7385627429482706,12.111461794019931
0.7395594538024518,3.111461794019931
0.7405561646566331,-2.888538205980069
0.7415528755108143,-3.888538205980069
0.7425495863649955,-14.888538205980069
0.7435462972191766,-15.888538205980069
0.7445430080733578,-6.888538205980069
0.745539718927539,-5.888538205980069
0.7465364297817203,-15.888538205980069
0.7475331406359015,-18.88853820598007
0.7485298514900827,-20.88853820598007
0.7495265623442638,-20.88853820598007
0.750523273198445,1.111461794019931
0.7515199840526262,2.111461794019931
0.7525166949068075,4.111461794019931
0.7535134057609887,15.111461794019931
0.7545101166151699,23.11146179401993
0.755506827469351,32.11146179401993
0.7565035383235322,23.11146179401993
0.7575002491777135,19.11146179401993
0.7584969600318947,14.111461794019931
0.7594936708860759,7.111461794019931
0.7604903817402571,2.111461794019931
0.7614870925944383,6.111461794019931
0.7624838034486194,-4.888538205980069
0.7634805143028007,-15.888538205980069
0.7644772251569819,-25.88853820598007
0.7654739360111631,-26.88853820598007
0.7664706468653443,-16.88853820598007
0.7674673577195255,-12.888538205980069
0.7684640685737067,-22.88853820598007
0.7694607794278879,-13.888538205980069
0.7704574902820691,-2.888538205980069
0.7714542011362503,5.111461794019931
0.7724509119904315,12.111461794019931
0.7734476228446127,12.111461794019931
0.774444333698794,12.111461794019931
0.7754410445529751,22.11146179401993
0.7764377554071563,24.11146179401993
0.7774344662613375,29.11146179401993
0.7784311771155187,22.11146179401993
0.7794278879697,8.111461794019931
0.7804245988238812,4.111461794019931
0.7814213096780623,1.111461794019931
0.7824180205322435,-7.888538205980069
0.7834147313864247,-17.88853820598007
0.7844114422406059,-22.88853820598007
0.7854081530947872,-30.88853820598007
0.7864048639489684,-39.88853820598007
0.7874015748031495,-38.88853820598007
0.7883982856573307,-24.88853820598007
0.7893949965115119,-2.888538205980069
0.7903917073656931,8.111461794019931
0.7913884182198744,10.111461794019931
0.7923851290740556,27.11146179401993
0.7933818399282367,25.11146179401993
0.7943785507824179,11.111461794019931
0.7953752616365991,30.11146179401993
0.7963719724907804,37.11146179401993
0.7973686833449616,26.11146179401993
0.7983653941991428,17.11146179401993
0.799362105053324,10.111461794019931
0.8003588159075051,-0.888538205980069
0.8013555267616863,-6.888538205980069
0.8023522376158676,-5.888538205980069
0.8033489484700488,-3.888538205980069
0.80434565932423,-25.88853820598007
0.8053423701784111,-36.88853820598007
0.8063390810325923,-30.88853820598007
0.8073357918867736,-25.88853820598007
0.8083325027409548,-15.888538205980069
0.809329213595136,-7.888538205980069
0.8103259244493172,-2.888538205980069
0.8113226353034984,1.111461794019931
0.8123193461576795,13.111461794019931
0.8133160570118608,19.11146179401993
0.814312767866042,24.11146179401993
0.8153094787202232,22.11146179401993
0.8163061895744044,12.111461794019931
0.8173029004285856,14.111461794019931
0.8182996112827668,13.111461794019931
0.819296322136948,7.111461794019931
0.8202930329911292,9.111461794019931
0.8212897438453104,-5.888538205980069
0.8222864546994916,-19.88853820598007
0.8232831655536728,-13.888538205980069
0.824279876407854,-10.888538205980069
0.8252765872620352,-7.888538205980069
0.8262732981162164,-18.88853820598007
0.8272700089703976,-19.88853820598007
0.8282667198245788,-13.888538205980069
0.8292634306787601,-2.888538205980069
0.8302601415329413,3.111461794019931
0.8312568523871224,3.111461794019931
0.8322535632413036,6.111461794019931
0.8332502740954848,10.111461794019931
0.834246984949666,16.11146179401993
0.8352436958038473,17.11146179401993
0.8362404066580285,17.11146179401993
0.8372371175122096,17.11146179401993
0.8382338283663908,16.11146179401993
0.839230539220572,19.11146179401993
0.8402272500747532,1.111461794019931
0.8412239609289345,-4.888538205980069
0.8422206717831157,-6.888538205980069
0.8432173826372968,-11.888538205980069
0.844214093491478,-12.888538205980069
0.8452108043456592,-23.88853820598007
0.8462075151998405,-35.88853820598007
0.8472042260540217,-26.88853820598007
0.8482009369082029,-10.888538205980069
0.849197647762384,-5.888538205980069
0.8501943586165652,3.111461794019931
0.8511910694707464,8.111461794019931
0.8521877803249277,9.111461794019931
0.8531844911791089,15.111461794019931
0.8541812020332901,16.11146179401993
0.8551779128874712,14.111461794019931
0.8561746237416524,9.111461794019931
0.8571713345958337,16.11146179401993
0.8581680454500149,17.11146179401993
0.8591647563041961,24.11146179401993
0.8601614671583773,16.11146179401993
0.8611581780125585,6.111461794019931
0.8621548888667396,1.111461794019931
0.8631515997209209,-15.888538205980069
0.8641483105751021,-28.88853820598007
0.8651450214292833,-31.88853820598007
0.8661417322834645,-29.88853820598007
0.8671384431376457,-32.88853820598007
0.868135153991827,-22.88853820598007
0.8691318648460081,-10.888538205980069
0.8701285757001893,3.111461794019931
0.8711252865543705,8.111461794019931
0.8721219974085517,7.111461794019931
0.8731187082627329,9.111461794019931
0.8741154191169141,18.11146179401993
0.8751121299710953,18.11146179401993
0.8761088408252765,18.11146179401993
0.8771055516794577,19.11146179401993
0.8781022625336389,16.11146179401993
0.8790989733878201,5.111461794019931
0.8800956842420014,-1.888538205980069
0.8810923950961825,3.111461794019931
0.8820891059503637,24.11146179401993
0.8830858168045449,13.111461794019931
0.8840825276587261,-3.888538205980069
0.8850792385129074,-20.88853820598007
0.8860759493670886,-34.88853820598007
0.8870726602212697,-33.88853820598007
0.8880693710754509,-22.88853820598007
0.8890660819296321,-3.888538205980069
0.8900627927838133,-4.888538205980069
0.8910595036379946,-5.888538205980069
0.8920562144921758,-7.888538205980069
0.8930529253463569,4.111461794019931
0.8940496362005381,23.11146179401993
0.8950463470547193,23.11146179401993
0.8960430579089006,22.11146179401993
0.8970397687630818,18.11146179401993
0.898036479617263,12.111461794019931
0.8990331904714441,16.11146179401993
0.9000299013256253,9.111461794019931
0.9010266121798065,-3.888538205980069
0.9020233230339878,-6.888538205980069
0.903020033888169,-7.888538205980069
0.9040167447423502,-19.88853820598007
0.9050134555965313,-27.88853820598007
0.9060101664507125,-22.88853820598007
0.9070068773048938,-15.888538205980069
0.908003588159075,-10.888538205980069
0.9090002990132562,-10.888538205980069
0.9099970098674374,-5.888538205980069
0.9109937207216185,-7.888538205980069
0.9119904315757997,3.111461794019931
0.912987142429981,9.111461794019931
0.9139838532841622,18.11146179401993
0.9149805641383434,23.11146179401993
0.9159772749925246,28.11146179401993
0.9169739858467058,28.11146179401993
0.9179706967008869,29.11146179401993
0.9189674075550682,14.111461794019931
0.9199641184092494,5.111461794019931
0.9209608292634306,-2.888538205980069
0.9219575401176118,-2.888538205980069
0.922954250971793,-24.88853820598007
0.9239509618259742,-29.88853820598007
0.9249476726801554,-31.88853820598007
0.9259443835343366,-28.88853820598007
0.9269410943885178,-14.888538205980069
0.927937805242699,-6.888538205980069
0.9289345160968802,-7.888538205980069
0.9299312269510615,-5.888538205980069
0.9309279378052426,0.11146179401993095
0.9319246486594238,-3.888538205980069
0.932921359513605,11.111461794019931
0.9339180703677862,24.11146179401993
0.9349147812219675,25.11146179401993
0.9359114920761487,15.111461794019931
0.9369082029303298,28.11146179401993
0.937904913784511,32.11146179401993
0.9389016246386922,19.11146179401993
0.9398983354928734,3.111461794019931
0.9408950463470547,-4.888538205980069
0.9418917572012359,-1.888538205980069
0.942888468055417,-9.888538205980069
0.9438851789095982,-28.88853820598007
0.9448818897637794,-34.88853820598007
0.9458786006179607,-27.88853820598007
0.9468753114721419,-15.888538205980069
0.9478720223263231,-14.888538205980069
0.9488687331805042,-12.888538205980069
0.9498654440346854,-1.888538205980069
0.9508621548888666,4.111461794019931
0.9518588657430479,12.111461794019931
0.9528555765972291,11.111461794019931
0.9538522874514103,21.11146179401993
0.9548489983055914,28.11146179401993
0.9558457091597726,24.11146179401993
0.9568424200139538,20.11146179401993
0.9578391308681351,13.111461794019931
0.9588358417223163,7.111461794019931
0.9598325525764975,-0.888538205980069
0.9608292634306786,-5.888538205980069
0.9618259742848598,-5.888538205980069
0.9628226851390411,-9.888538205980069
0.9638193959932223,-10.888538205980069
0.9648161068474035,-17.88853820598007
0.9658128177015847,-19.88853820598007
0.9668095285557659,-20.88853820598007
0.967806239409947,-23.88853820598007
0.9688029502641283,-18.88853820598007
0.9697996611183095,-8.888538205980069
0.9707963719724907,-4.888538205980069
0.9717930828266719,8.111461794019931
0.972789793680853,20.11146179401993
0.9737865045350343,22.11146179401993
0.9747832153892155,25.11146179401993
0.9757799262433967,19.11146179401993
0.9767766370975779,14.111461794019931
0.9777733479517591,9.111461794019931
0.9787700588059403,15.111461794019931
0.9797667696601216,13.111461794019931
0.9807634805143027,0.11146179401993095
0.9817601913684839,-8.888538205980069
0.9827569022226651,-11.888538205980069
0.9837536130768463,-15.888538205980069
0.9847503239310276,-18.88853820598007
0.9857470347852088,-25.88853820598007
0.9867437456393899,-24.88853820598007
0.9877404564935711,-14.888538205980069
0.9887371673477523,-11.888538205980069
0.9897338782019335,-9.888538205980069
0.9907305890561148,-2.888538205980069
0.991727299910296,8.111461794019931
0.9927240107644771,20.11146179401993
0.9937207216186583,28.11146179401993
0.9947174324728395,31.11146179401993
0.9957141433270208,30.11146179401993
0.996710854181202,36.11146179401993
0.9977075650353832,31.11146179401993
0.9987042758895643,9.111461794019931
0.9997009867437455,-8.888538205980069
1.0006976975979267,-14.888538205980069
1.001694408452108,-15.888538205980069
1.002691119306289,-14.888538205980069
1.0036878301604704,-21.88853820598007
1.0046845410146517,-15.888538205980069
1.0056812518688327,-22.88853820598007
1.006677962723014,-28.88853820598007
1.007674673577195,-24.88853820598007
1.0086713844313764,-12.888538205980069
1.0096680952855577,-10.888538205980069
1.0106648061397387,-2.888538205980069
1.01166151699392,13.111461794019931
1.0126582278481011,29.11146179401993
1.0136549387022824,29.11146179401993
1.0146516495564635,28.11146179401993
1.0156483604106448,21.11146179401993
1.016645071264826,17.11146179401993
1.0176417821190071,16.11146179401993
1.0186384929731884,8.111461794019931
1.0196352038273695,-3.888538205980069
1.0206319146815508,-10.888538205980069
1.021628625535732,-8.888538205980069
1.0226253363899132,-19.88853820598007
1.0236220472440944,-26.88853820598007
1.0246187580982755,-11.888538205980069
1.0256154689524568,-14.888538205980069
1.026612179806638,-11.888538205980069
1.0276088906608192,-15.888538205980069
1.0286056015150005,-22.88853820598007
1.0296023123691815,-14.888538205980069
1.0305990232233628,9.111461794019931
1.031595734077544,17.11146179401993
1.0325924449317252,19.11146179401993
1.0335891557859065,28.11146179401993
1.0345858666400876,25.11146179401993
1.0355825774942689,14.111461794019931
1.03657928834845,17.11146179401993
1.0375759992026312,21.11146179401993
1.0385727100568125,12.111461794019931
1.0395694209109936,4.111461794019931
1.0405661317651749,-1.888538205980069
1.041562842619356,-9.888538205980069
1.0425595534735372,-10.888538205980069
1.0435562643277185,-24.88853820598007
1.0445529751818996,-23.88853820598007
1.045549686036081,-19.88853820598007
1.046546396890262,-16.88853820598007
1.0475431077444433,-15.888538205980069
1.0485398185986246,-17.88853820598007
1.0495365294528056,-11.888538205980069
1.050533240306987,-5.888538205980069
1.051529951161168,7.111461794019931
1.0525266620153493,19.11146179401993
1.0535233728695304,29.11146179401993
1.0545200837237116,24.11146179401993
1.055516794577893,19.11146179401993
1.056513505432074,19.11146179401993
1.0575102162862553,16.11146179401993
1.0585069271404364,5.111461794019931
1.0595036379946177,2.111461794019931
1.060500348848799,-8.888538205980069
1.06149705970298,-15.888538205980069
1.0624937705571613,-19.88853820598007
1.0634904814113424,-11.888538205980069
1.0644871922655237,-3.888538205980069
1.065483903119705,-15.888538205980069
1.066480613973886,-13.888538205980069
1.0674773248280673,-13.888538205980069
1.0684740356822484,-19.88853820598007
1.0694707465364297,-7.888538205980069
1.0704674573906108,6.111461794019931
1.071464168244792,11.111461794019931
1.0724608790989734,8.111461794019931
1.0734575899531544,8.111461794019931
1.0744543008073357,14.111461794019931
1.0754510116615168,15.111461794019931
1.076447722515698,19.11146179401993
1.0774444333698794,27.11146179401993
1.0784411442240605,26.11146179401993
1.0794378550782417,-1.888538205980069
1.0804345659324228,-11.888538205980069
1.0814312767866041,-4.888538205980069
1.0824279876407854,-20.88853820598007
1.0834246984949665,-20.88853820598007
1.0844214093491478,-9.888538205980069
1.0854181202033288,-13.888538205980069
1.0864148310575101,-14.888538205980069
1.0874115419116914,-4.888538205980069
1.0884082527658725,-5.888538205980069
1.0894049636200538,-18.88853820598007
1.0904016744742349,-10.888538205980069
1.0913983853284162,3.111461794019931
1.0923950961825972,7.111461794019931
1.0933918070367785,19.11146179401993
1.0943885178909598,28.11146179401993
1.0953852287451409,33.11146179401993
1.0963819395993222,36.11146179401993
1.0973786504535032,23.11146179401993
1.0983753613076845,8.111461794019931
1.0993720721618658,-1.888538205980069
1.100368783016047,-8.888538205980069
1.1013654938702282,-11.888538205980069
1.1023622047244093,-19.88853820598007
1.1033589155785906,-21.88853820598007
1.1043556264327719,-14.888538205980069
1.105352337286953,-9.888538205980069
1.1063490481411342,-18.88853820598007
1.1073457589953153,-28.88853820598007
1.1083424698494966,-24.88853820598007
1.1093391807036777,-0.888538205980069
1.110335891557859,4.111461794019931
1.1113326024120402,8.111461794019931
1.1123293132662213,27.11146179401993
1.1133260241204026,33.11146179401993
1.1143227349745837,24.11146179401993
1.115319445828765,14.111461794019931
1.1163161566829463,-6.888538205980069
1.1173128675371273,-2.888538205980069
1.1183095783913086,22.11146179401993
1.1193062892454897,16.11146179401993
1.120303000099671,-2.888538205980069
1.1212997109538523,-13.888538205980069
1.1222964218080334,-7.888538205980069
1.1232931326622146,-18.88853820598007
1.1242898435163957,-21.88853820598007
1.125286554370577,-22.88853820598007
1.1262832652247583,-21.88853820598007
1.1272799760789394,-23.88853820598007
1.1282766869331207,-7.888538205980069
1.1292733977873017,2.111461794019931
1.130270108641483,0.11146179401993095
1.131266819495664,-0.888538205980069
1.1322635303498454,8.111461794019931
1.1332602412040267,11.111461794019931
1.1342569520582078,14.111461794019931
1.135253662912389,23.11146179401993
1.1362503737665701,24.11146179401993
1.1372470846207514,15.111461794019931
1.1382437954749327,8.111461794019931
1.1392405063291138,5.111461794019931
1.140237217183295,3.111461794019931
1.1412339280374761,3.111461794019931
1.1422306388916574,-0.888538205980069
1.1432273497458387,-11.888538205980069
1.1442240606000198,-12.888538205980069
1.145220771454201,-5.888538205980069
1.1462174823083822,-6.888538205980069
1.1472141931625635,-24.88853820598007
1.1482109040167447,-28.88853820598007
1.1492076148709258,-14.888538205980069
1.1502043257251071,-18.88853820598007
1.1512010365792882,1.111461794019931
1.1521977474334695,12.111461794019931
1.1531944582876505,25.11146179401993
1.1541911691418318,36.11146179401993
1.1551878799960131,30.11146179401993
1.1561845908501942,18.11146179401993
1.1571813017043755,-4.888538205980069
1.1581780125585566,7.111461794019931
1.1591747234127379,9.111461794019931
1.1601714342669192,6.111461794019931
1.1611681451211002,-2.888538205980069
1.1621648559752815,-13.888538205980069
1.1631615668294626,-25.88853820598007
1.1641582776836439,-6.888538205980069
1.1651549885378252,-18.88853820598007
1.1661516993920062,-38.88853820598007
1.1671484102461875,-27.88853820598007
1.1681451211003686,-14.888538205980069
1.16914183195455,-10.888538205980069
1.170138542808731,0.11146179401993095
1.1711352536629123,17.11146179401993
1.1721319645170936,30.11146179401993
1.1731286753712746,31.11146179401993
1.174125386225456,29.11146179401993
1.175122097079637,37.11146179401993
1.1761188079338183,28.11146179401993
1.1771155187879996,7.111461794019931
1.1781122296421807,-2.888538205980069
1.179108940496362,-3.888538205980069
1.180105651350543,-14.888538205980069
1.1811023622047243,-12.888538205980069
1.1820990730589056,-26.88853820598007
1.1830957839130867,-22.88853820598007
1.184092494767268,-4.888538205980069
1.185089205621449,-7.888538205980069
1.1860859164756303,-13.888538205980069
1.1870826273298116,-9.888538205980069
1.1880793381839927,-18.88853820598007
1.189076049038174,-1.888538205980069
1.190072759892355,9.111461794019931
1.1910694707465364,3.111461794019931
1.1920661816007174,2.111461794019931
1.1930628924548987,-4.888538205980069
1.19405960330908,1.111461794019931
1.195056314163261,40.11146179401993
1.1960530250174424,39.11146179401993
1.1970497358716234,27.11146179401993
1.1980464467258047,3.111461794019931
1.199043157579986,11.111461794019931
1.200039868434167,11.111461794019931
1.2010365792883484,-2.888538205980069
1.2020332901425295,-30.88853820598007
1.2030300009967108,-27.88853820598007
1.204026711850892,-41.88853820598007
1.2050234227050731,-31.88853820598007
1.2060201335592544,-8.888538205980069
1.2070168444134355,-5.888538205980069
1.2080135552676168,12.111461794019931
1.2090102661217978,19.11146179401993
1.2100069769759791,-2.888538205980069
1.2110036878301604,-14.888538205980069
1.2120003986843415,-2.888538205980069
1.2129971095385228,6.111461794019931
1.2139938203927039,23.11146179401993
1.2149905312468852,17.11146179401993
1.2159872421010665,21.11146179401993
1.2169839529552475,17.11146179401993
1.2179806638094288,24.11146179401993
1.21897737466361,22.11146179401993
1.2199740855177912,12.111461794019931
1.2209707963719725,-8.888538205980069
1.2219675072261535,-28.88853820598007
1.2229642180803348,-20.88853820598007
1.223960928934516,-23.88853820598007
1.2249576397886972,-22.88853820598007
1.2259543506428785,-19.88853820598007
1.2269510614970596,-13.888538205980069
1.2279477723512409,-17.88853820598007
1.228944483205422,-8.888538205980069
1.2299411940596032,6.111461794019931
1.2309379049137843,10.111461794019931
1.2319346157679656,5.111461794019931
1.2329313266221469,13.111461794019931
1.233928037476328,22.11146179401993
1.2349247483305092,19.11146179401993
1.2359214591846903,23.11146179401993
1.2369181700388716,16.11146179401993
1.237914880893053,25.11146179401993
1.238911591747234,17.11146179401993
1.2399083026014153,11.111461794019931
1.2409050134555963,-15.888538205980069
1.2419017243097776,-13.888538205980069
1.242898435163959,-18.88853820598007
1.24389514601814,-20.88853820598007
1.2448918568723213,-31.88853820598007
1.2458885677265024,-38.88853820598007
1.2468852785806837,-33.88853820598007
1.2478819894348647,-13.888538205980069
1.248878700289046,3.111461794019931
1.2498754111432273,4.111461794019931
1.2508721219974084,17.11146179401993
1.2518688328515897,21.11146179401993
1.2528655437057707,27.11146179401993
1.253862254559952,30.11146179401993
1.2548589654141333,28.11146179401993
1.2558556762683144,18.11146179401993
1.2568523871224957,13.111461794019931
1.2578490979766768,3.111461794019931
1.258845808830858,-2.888538205980069
1.2598425196850394,6.111461794019931
1.2608392305392204,-5.888538205980069
1.2618359413934017,-26.88853820598007
1.2628326522475828,-32.88853820598007
1.263829363101764,11.111461794019931
1.2648260739559454,6.111461794019931
1.2658227848101264,-10.888538205980069
1.2668194956643077,-18.88853820598007
1.2678162065184888,-1.888538205980069
1.26881291737267,-14.888538205980069
1.2698096282268512,-24.88853820598007
1.2708063390810325,-9.888538205980069
1.2718030499352138,12.111461794019931
1.2727997607893948,17.11146179401993
1.2737964716435761,16.11146179401993
1.2747931824977572,22.11146179401993
1.2757898933519385,22.11146179401993
1.2767866042061198,-0.888538205980069
1.2777833150603009,-0.888538205980069
1.2787800259144821,3.111461794019931
1.2797767367686632,13.111461794019931
1.2807734476228445,-2.888538205980069
1.2817701584770258,-7.888538205980069
1.2827668693312069,-13.888538205980069
1.2837635801853882,-14.888538205980069
1.2847602910395692,-0.888538205980069
1.2857570018937505,-10.888538205980069
1.2867537127479316,-20.88853820598007
1.287750423602113,-27.88853820598007
1.2887471344562942,-0.888538205980069
1.2897438453104753,8.111461794019931
1.2907405561646565,3.111461794019931
1.2917372670188376,-6.888538205980069
1.292733977873019,-23.88853820598007
1.2937306887272002,46.11146179401993
1.2947273995813813,43.11146179401993
1.2957241104355626,35.11146179401993
1.2967208212897436,12.111461794019931
1.297717532143925,-1.888538205980069
1.2987142429981062,10.111461794019931
1.2997109538522873,15.111461794019931
1.3007076647064686,6.111461794019931
1.3017043755606497,-9.888538205980069
1.302701086414831,-33.88853820598007
1.3036977972690122,-27.88853820598007
1.3046945081231933,-17.88853820598007
1.3056912189773746,-28.88853820598007
1.3066879298315557,-29.88853820598007
1.307684640685737,-20.88853820598007
1.308681351539918,-12.888538205980069
1.3096780623940993,-0.888538205980069
1.3106747732482806,11.111461794019931
1.3116714841024617,27.11146179401993
1.312668194956643,32.11146179401993
1.313664905810824,31.11146179401993
1.3146616166650054,26.11146179401993
1.3156583275191867,30.11146179401993
1.3166550383733677,12.111461794019931
1.317651749227549,10.111461794019931
1.31864846008173,10.111461794019931
1.3196451709359114,-4.888538205980069
1.3206418817900927,-22.88853820598007
1.3216385926442737,-25.88853820598007
1.322635303498455,-36.88853820598007
1.323632014352636,-37.88853820598007
1.3246287252068174,-12.888538205980069
1.3256254360609985,-14.888538205980069
1.3266221469151798,-10.888538205980069
1.327618857769361,3.111461794019931
1.3286155686235421,17.11146179401993
1.3296122794777234,12.111461794019931
1.3306089903319045,9.111461794019931
1.3316057011860858,10.111461794019931
1.332602412040267,12.111461794019931
1.3335991228944482,12.111461794019931
1.3345958337486294,12.111461794019931
1.3355925446028105,18.11146179401993
1.3365892554569918,15.111461794019931
1.337585966311173,8.111461794019931
1.3385826771653542,3.111461794019931
1.3395793880195355,-11.888538205980069
1.3405760988737165,7.111461794019931
1.3415728097278978,7.111461794019931
1.3425695205820791,6.111461794019931
1.3435662314362602,-14.888538205980069
1.3445629422904415,-51.88853820598007
1.3455596531446226,-33.88853820598007
1.3465563639988039,-22.88853820598007
1.347553074852985,-19.88853820598007
1.3485497857071662,-13.888538205980069
1.3495464965613475,1.111461794019931
1.3505432074155286,14.111461794019931
1.3515399182697099,15.111461794019931
1.352536629123891,12.111461794019931
1.3535333399780722,26.11146179401993
1.3545300508322535,28.11146179401993
1.3555267616864346,15.111461794019931
1.356523472540616,-9.888538205980069
1.357520183394797,-2.888538205980069
1.3585168942489783,20.11146179401993
1.3595136051031596,8.111461794019931
1.3605103159573406,12.111461794019931
1.361507026811522,18.11146179401993
1.362503737665703,15.111461794019931
1.3635004485198843,1.111461794019931
1.3644971593740653,-12.888538205980069
1.3654938702282466,-30.88853820598007
1.366490581082428,-35.88853820598007
1.367487291936609,-39.88853820598007
1.3684840027907903,-38.88853820598007
1.3694807136449714,-14.888538205980069
1.3704774244991527,2.111461794019931
1.371474135353334,13.111461794019931
1.372470846207515,36.11146179401993
1.3734675570616963,44.11146179401993
1.3744642679158774,34.11146179401993
1.3754609787700587,22.11146179401993
1.37645768962424,18.11146179401993
1.377454400478421,3.111461794019931
1.3784511113326023,-12.888538205980069
1.3794478221867834,-20.88853820598007
1.3804445330409647,5.111461794019931
1.381441243895146,10.111461794019931
1.382437954749327,-2.888538205980069
1.3834346656035084,-24.88853820598007
1.3844313764576894,-46.88853820598007
1.3854280873118707,-34.88853820598007
1.3864247981660518,-26.88853820598007
1.387421509020233,-14.888538205980069
1.3884182198744144,18.11146179401993
1.3894149307285955,8.111461794019931
1.3904116415827767,1.111461794019931
1.3914083524369578,15.111461794019931
1.3924050632911391,16.11146179401993
1.3934017741453204,17.11146179401993
1.3943984849995015,21.11146179401993
1.3953951958536828,26.11146179401993
1.3963919067078638,28.11146179401993
1.3973886175620451,22.11146179401993
1.3983853284162264,7.111461794019931
1.3993820392704075,-5.888538205980069
1.4003787501245888,-5.888538205980069
1.4013754609787699,-27.88853820598007
1.4023721718329512,-28.88853820598007
1.4033688826871322,-13.888538205980069
1.4043655935413135,-23.88853820598007
1.4053623043954948,-10.888538205980069
1.4063590152496759,-20.88853820598007
1.4073557261038572,-41.88853820598007
1.4083524369580382,-11.888538205980069
1.4093491478122195,-2.888538205980069
1.4103458586664008,2.111461794019931
1.411342569520582,24.11146179401993
1.4123392803747632,41.11146179401993
1.4133359912289443,34.11146179401993
1.4143327020831256,21.11146179401993
1.4153294129373069,23.11146179401993
1.416326123791488,21.11146179401993
1.4173228346456692,16.11146179401993
1.4183195454998503,7.111461794019931
1.4193162563540316,-21.88853820598007
1.4203129672082129,-8.888538205980069
1.421309678062394,-19.88853820598007
1.4223063889165752,-29.88853820598007
1.4233030997707563,-9.888538205980069
1.4242998106249376,2.111461794019931
1.4252965214791187,-12.888538205980069
1.4262932323333,-31.88853820598007
1.4272899431874813,-23.88853820598007
1.4282866540416623,-12.888538205980069
1.4292833648958436,-2.888538205980069
1.4302800757500247,9.111461794019931
1.431276786604206,15.111461794019931
1.4322734974583873,20.11146179401993
1.4332702083125684,18.11146179401993
1.4342669191667496,14.111461794019931
1.4352636300209307,25.11146179401993
1.436260340875112,17.11146179401993
1.4372570517292933,16.11146179401993
1.4382537625834744,20.11146179401993
1.4392504734376557,13.111461794019931
1.4402471842918367,7.111461794019931
1.441243895146018,-11.888538205980069
1.4422406060001993,-25.88853820598007
1.4432373168543804,-29.88853820598007
1.4442340277085617,-27.88853820598007
1.4452307385627428,-24.88853820598007
1.446227449416924,-21.88853820598007
1.4472241602711051,-12.888538205980069
1.4482208711252864,10.111461794019931
1.4492175819794677,5.111461794019931
1.4502142928336488,-6.888538205980069
1.45121100368783,0.11146179401993095
1.4522077145420111,19.11146179401993
1.4532044253961924,28.11146179401993
1.4542011362503737,21.11146179401993
1.4551978471045548,28.11146179401993
1.456194557958736,28.11146179401993
1.4571912688129172,17.11146179401993
1.4581879796670985,18.11146179401993
1.4591846905212797,14.111461794019931
1.4601814013754608,-7.888538205980069
1.4611781122296421,-36.88853820598007
1.4621748230838232,-45.88853820598007
1.4631715339380045,-41.88853820598007
1.4641682447921855,-41.88853820598007
1.4651649556463668,-34.88853820598007
1.4661616665005481,-23.88853820598007
1.4671583773547292,-7.888538205980069
1.4681550882089105,11.111461794019931
1.4691517990630916,36.11146179401993
1.4701485099172729,41.11146179401993
1.4711452207714542,31.11146179401993
1.4721419316256352,24.11146179401993
1.4731386424798165,6.111461794019931
1.4741353533339976,1.111461794019931
1.4751320641881789,13.111461794019931
1.4761287750423602,40.11146179401993
1.4771254858965412,26.11146179401993
1.4781221967507225,21.11146179401993
1.4791189076049036,15.111461794019931
1.480115618459085,-1.888538205980069
1.4811123293132662,-25.88853820598007
1.4821090401674473,-25.88853820598007
1.4831057510216286,-58.88853820598007
1.4841024618758096,-53.88853820598007
1.485099172729991,-28.88853820598007
1.486095883584172,-7.888538205980069
1.4870925944383533,-15.888538205980069
1.4880893052925346,12.111461794019931
1.4890860161467157,5.111461794019931
1.490082727000897,-18.88853820598007
1.491079437855078,20.11146179401993
1.4920761487092593,34.11146179401993
1.4930728595634406,26.11146179401993
1.4940695704176217,20.11146179401993
1.495066281271803,20.11146179401993
1.496062992125984,33.11146179401993
1.4970597029801653,18.11146179401993
1.4980564138343466,5.111461794019931
1.4990531246885277,-9.888538205980069
1.500049835542709,-22.88853820598007
1.50104654639689,-24.88853820598007
1.5020432572510714,-27.88853820598007
1.5030399681052524,-12.888538205980069
1.5040366789594337,-7.888538205980069
1.505033389813615,-23.88853820598007
1.506030100667796,-31.88853820598007
1.5070268115219774,-20.88853820598007
1.5080235223761584,-6.888538205980069
1.5090202332303397,5.111461794019931
1.510016944084521,0.11146179401993095
1.511013654938702,12.111461794019931
1.5120103657928834,24.11146179401993
1.5130070766470645,22.11146179401993
1.5140037875012458,15.111461794019931
1.515000498355427,24.11146179401993
1.5159972092096081,17.11146179401993
1.5169939200637894,17.11146179401993
1.5179906309179705,14.111461794019931
1.5189873417721518,-4.888538205980069
1.519984052626333,-14.888538205980069
1.5209807634805141,-15.888538205980069
1.5219774743346954,-14.888538205980069
1.5229741851888765,-20.88853820598007
1.5239708960430578,-17.88853820598007
1.5249676068972389,-21.88853820598007
1.5259643177514202,-23.88853820598007
1.5269610286056015,-10.888538205980069
1.5279577394597825,-3.888538205980069
1.5289544503139638,-18.88853820598007
1.529951161168145,-1.888538205980069
1.5309478720223262,34.11146179401993
1.5319445828765075,30.11146179401993
1.5329412937306885,43.11146179401993
1.5339380045848698,28.11146179401993
1.534934715439051,-1.888538205980069
1.5359314262932322,25.11146179401993
1.5369281371474135,24.11146179401993
1.5379248480015946,10.111461794019931
1.5389215588557759,3.111461794019931
1.539918269709957,-4.888538205980069
1.5409149805641382,-5.888538205980069
1.5419116914183193,-22.88853820598007
1.5429084022725006,-25.88853820598007
1.5439051131266819,-20.88853820598007
1.544901823980863,-15.888538205980069
1.5458985348350442,-24.88853820598007
1.5468952456892253,-27.88853820598007
1.5478919565434066,-15.888538205980069
1.548888667397588,-9.888538205980069
1.549885378251769,4.111461794019931
1.5508820891059503,2.111461794019931
1.5518787999601313,11.111461794019931
1.5528755108143126,19.11146179401993
1.553872221668494,36.11146179401993
1.554868932522675,33.11146179401993
1.5558656433768563,16.11146179401993
1.5568623542310374,22.11146179401993
1.5578590650852187,-3.888538205980069
1.5588557759394,-1.888538205980069
1.559852486793581,-3.888538205980069
1.5608491976477623,-24.88853820598007
1.5618459085019434,-34.88853820598007
1.5628426193561247,-14.888538205980069
1.5638393302103057,-30.88853820598007
1.564836041064487,-40.88853820598007
1.5658327519186683,12.111461794019931
1.5668294627728494,27.11146179401993
1.5678261736270307,5.111461794019931
1.5688228844812118,8.111461794019931
1.569819595335393,15.111461794019931
1.5708163061895744,12.111461794019931
1.5718130170437554,11.111461794019931
1.5728097278979367,19.11146179401993
1.5738064387521178,14.111461794019931
1.574803149606299,12.111461794019931
1.5757998604604804,13.111461794019931
1.5767965713146614,9.111461794019931
1.5777932821688427,-2.888538205980069
1.5787899930230238,-6.888538205980069
1.579786703877205,-2.888538205980069
1.5807834147313862,-9.888538205980069
1.5817801255855675,-20.88853820598007
1.5827768364397488,-30.88853820598007
1.5837735472939298,-34.88853820598007
1.5847702581481111,-30.88853820598007
1.5857669690022922,-26.88853820598007
1.5867636798564735,-10.888538205980069
1.5877603907106548,4.111461794019931
1.5887571015648358,13.111461794019931
1.5897538124190171,-2.888538205980069
1.5907505232731982,32.11146179401993
1.5917472341273795,36.11146179401993
1.5927439449815608,34.11146179401993
1.5937406558357419,25.11146179401993
1.5947373666899232,38.11146179401993
1.5957340775441042,24.11146179401993
1.5967307883982855,1.111461794019931
1.5977274992524668,-2.888538205980069
1.598724210106648,-7.888538205980069
1.5997209209608292,-15.888538205980069
1.6007176318150103,-16.88853820598007
1.6017143426691915,-29.88853820598007
1.6027110535233726,-28.88853820598007
1.603707764377554,-44.88853820598007
1.6047044752317352,-33.88853820598007
1.6057011860859163,-3.888538205980069
1.6066978969400976,4.111461794019931
1.6076946077942786,0.11146179401993095
1.60869131864846,-12.888538205980069
1.6096880295026412,1.111461794019931
1.6106847403568223,13.111461794019931
1.6116814512110036,24.11146179401993
1.6126781620651847,30.11146179401993
1.613674872919366,27.11146179401993
1.6146715837735472,18.11146179401993
1.6156682946277283,28.11146179401993
1.6166650054819096,32.11146179401993
1.6176617163360907,18.11146179401993
1.618658427190272,-11.888538205980069
1.619655138044453,-14.888538205980069
1.6206518488986343,-13.888538205980069
1.6216485597528156,-21.88853820598007
1.6226452706069967,-20.88853820598007
1.623641981461178,-34.88853820598007
1.624638692315359,-33.88853820598007
1.6256354031695404,-34.88853820598007
1.6266321140237217,-22.88853820598007
1.6276288248779027,0.11146179401993095
1.628625535732084,11.111461794019931
1.629622246586265,13.111461794019931
1.6306189574404464,14.111461794019931
1.6316156682946277,20.11146179401993
1.6326123791488087,29.11146179401993
1.63360909000299,35.11146179401993
1.634605800857171,24.11146179401993
1.6356025117113524,24.11146179401993
1.6365992225655337,12.111461794019931
1.6375959334197148,-1.888538205980069
1.638592644273896,-19.88853820598007
1.6395893551280771,-4.888538205980069
1.6405860659822584,-1.888538205980069
1.6415827768364395,-19.88853820598007
1.6425794876906208,-22.88853820598007
1.643576198544802,-19.88853820598007
1.6445729093989832,-22.88853820598007
1.6455696202531644,-16.88853820598007
1.6465663311073455,-7.888538205980069
1.6475630419615268,-20.88853820598007
1.648559752815708,-17.88853820598007
1.6495564636698892,-22.88853820598007
1.6505531745240705,-9.888538205980069
1.6515498853782515,50.11146179401993
1.6525465962324328,58.11146179401993
1.6535433070866141,41.11146179401993
1.6545400179407952,33.11146179401993
1.6555367287949765,27.11146179401993
1.6565334396491576,17.11146179401993
1.6575301505033389,8.111461794019931
1.6585268613575201,-7.888538205980069
1.6595235722117012,-6.888538205980069
1.6605202830658825,-15.888538205980069
1.6615169939200636,-32.88853820598007
1.6625137047742449,-38.88853820598007
1.663510415628426,-35.88853820598007
1.6645071264826072,-26.88853820598007
1.6655038373367885,-20.88853820598007
1.6665005481909696,-22.88853820598007
1.667497259045151,1.111461794019931
1.668493969899332,14.111461794019931
1.6694906807535133,11.111461794019931
1.6704873916076945,19.11146179401993
1.6714841024618756,29.11146179401993
1.672480813316057,30.11146179401993
1.673477524170238,19.11146179401993
1.6744742350244193,5.111461794019931
1.6754709458786006,8.111461794019931
1.6764676567327816,11.111461794019931
1.677464367586963,10.111461794019931
1.678461078441144,-3.888538205980069
1.6794577892953253,-12.888538205980069
1.6804545001495064,4.111461794019931
1.6814512110036877,-7.888538205980069
1.682447921857869,-13.888538205980069
1.68344463271205,-32.88853820598007
1.6844413435662313,-27.88853820598007
1.6854380544204124,-28.88853820598007
1.6864347652745937,3.111461794019931
1.687431476128775,0.11146179401993095
1.688428186982956,-20.88853820598007
1.6894248978371373,-7.888538205980069
1.6904216086913184,38.11146179401993
1.6914183195454997,41.11146179401993
1.692415030399681,26.11146179401993
1.693411741253862,13.111461794019931
1.6944084521080434,22.11146179401993
1.6954051629622244,27.11146179401993
1.6964018738164057,19.11146179401993
1.697398584670587,-0.888538205980069
1.698395295524768,-17.88853820598007
1.6993920063789494,1.111461794019931
1.7003887172331305,-14.888538205980069
1.7013854280873117,-31.88853820598007
1.7023821389414928,-35.88853820598007
1.703378849795674,-23.88853820598007
1.7043755606498554,-24.88853820598007
1.7053722715040365,-21.88853820598007
1.7063689823582178,-18.88853820598007
1.7073656932123988,-12.888538205980069
1.7083624040665801,-5.888538205980069
1.7093591149207614,12.111461794019931
1.7103558257749425,13.111461794019931
1.7113525366291238,17.11146179401993
1.7123492474833049,20.11146179401993
1.7133459583374862,14.111461794019931
1.7143426691916674,33.11146179401993
1.7153393800458485,40.11146179401993
1.7163360909000298,35.11146179401993
1.7173328017542109,24.11146179401993
1.7183295126083922,11.111461794019931
1.7193262234625732,-5.888538205980069
1.7203229343167545,-22.88853820598007
1.7213196451709358,-30.88853820598007
1.722316356025117,-29.88853820598007
1.7233130668792982,-27.88853820598007
1.7243097777334793,-24.88853820598007
1.7253064885876606,-24.88853820598007
1.7263031994418419,-16.88853820598007
1.727299910296023,-10.888538205980069
1.7282966211502042,-4.888538205980069
1.7292933320043853,8.111461794019931
1.7302900428585666,13.111461794019931
1.7312867537127479,8.111461794019931
1.732283464566929,17.11146179401993
1.7332801754211102,27.11146179401993
1.7342768862752913,32.11146179401993
1.7352735971294726,25.11146179401993
1.736270307983654,13.111461794019931
1.737267018837835,9.111461794019931
1.7382637296920163,-2.888538205980069
1.7392604405461973,-11.888538205980069
1.7402571514003786,-15.888538205980069
1.7412538622545597,-16.88853820598007
1.742250573108741,-19.88853820598007
1.7432472839629223,-24.88853820598007
1.7442439948171033,-22.88853820598007
1.7452407056712846,-26.88853820598007
1.7462374165254657,-1.888538205980069
1.747234127379647,2.111461794019931
1.7482308382338283,0.11146179401993095
1.7492275490880094,9.111461794019931
1.7502242599421907,15.111461794019931
1.7512209707963717,12.111461794019931
1.752217681650553,14.111461794019931
1.7532143925047343,16.11146179401993
1.7542111033589154,26.11146179401993
1.7552078142130967,33.11146179401993
1.7562045250672778,17.11146179401993
1.757201235921459,12.111461794019931
1.7581979467756401,5.111461794019931
1.7591946576298214,2.111461794019931
1.7601913684840027,-20.88853820598007
1.7611880793381838,-22.88853820598007
1.762184790192365,-29.88853820598007
1.7631815010465461,-28.88853820598007
1.7641782119007274,-21.88853820598007
1.7651749227549087,-25.88853820598007
1.7661716336090898,-18.88853820598007
1.767168344463271,-10.888538205980069
1.7681650553174522,-6.888538205980069
1.7691617661716335,1.111461794019931
1.7701584770258147,13.111461794019931
1.7711551878799958,25.11146179401993
1.7721518987341771,32.11146179401993
1.7731486095883582,26.11146179401993
1.7741453204425395,27.11146179401993
1.7751420312967208,27.11146179401993
1.7761387421509018,22.11146179401993
1.7771354530050831,6.111461794019931
1.7781321638592642,-10.888538205980069
1.7791288747134455,-14.888538205980069
1.7801255855676266,-17.88853820598007
1.7811222964218079,-24.88853820598007
1.7821190072759892,-18.88853820598007
1.7831157181301702,-5.888538205980069
1.7841124289843515,-15.888538205980069
1.7851091398385326,-19.88853820598007
1.7861058506927139,-21.88853820598007
1.7871025615468952,-16.88853820598007
1.7880992724010762,-9.888538205980069
1.7890959832552575,9.111461794019931
1.7900926941094386,18.11146179401993
1.79108940496362,34.11146179401993
1.7920861158178012,33.11146179401993
1.7930828266719823,20.11146179401993
1.7940795375261636,12.111461794019931
1.7950762483803446,10.111461794019931
1.796072959234526,33.11146179401993
1.797069670088707,9.111461794019931
1.7980663809428883,-4.888538205980069
1.7990630917970696,-11.888538205980069
1.8000598026512507,-37.88853820598007
1.801056513505432,-56.88853820598007
1.802053224359613,-45.88853820598007
1.8030499352137943,-23.88853820598007
1.8040466460679756,-23.88853820598007
1.8050433569221567,12.111461794019931
1.806040067776338,24.11146179401993
1.807036778630519,33.11146179401993
1.8080334894847003,40.11146179401993
1.8090302003388816,17.11146179401993
1.8100269111930627,-4.888538205980069
1.811023622047244,-19.88853820598007
1.812020332901425,-2.888538205980069
1.8130170437556064,11.111461794019931
1.8140137546097876,19.11146179401993
1.8150104654639687,1.111461794019931
1.81600717631815,19.11146179401993
1.817003887172331,62.11146179401993
1.8180005980265124,23.11146179401993
1.8189973088806934,19.11146179401993
1.8199940197348747,-1.888538205980069
1.820990730589056,-31.88853820598007
1.821987441443237,-36.88853820598007
1.8229841522974184,-32.88853820598007
1.8239808631515995,-46.88853820598007
1.8249775740057808,-41.88853820598007
1.825974284859962,-39.88853820598007
1.8269709957141431,-12.888538205980069
1.8279677065683244,8.111461794019931
1.8289644174225055,4.111461794019931
1.8299611282766868,10.111461794019931
1.830957839130868,28.11146179401993
1.8319545499850491,35.11146179401993
1.8329512608392304,29.11146179401993
1.8339479716934115,22.11146179401993
1.8349446825475928,19.11146179401993
1.8359413934017739,6.111461794019931
1.8369381042559552,-8.888538205980069
1.8379348151101365,-0.888538205980069
1.8389315259643175,4.111461794019931
1.8399282368184988,-3.888538205980069
1.84092494767268,-18.88853820598007
1.8419216585268612,-24.88853820598007
1.8429183693810425,-8.888538205980069
1.8439150802352235,-31.88853820598007
1.8449117910894048,-25.88853820598007
1.845908501943586,-8.888538205980069
1.8469052127977672,-4.888538205980069
1.8479019236519485,-5.888538205980069
1.8488986345061296,18.11146179401993
1.8498953453603109,20.11146179401993
1.850892056214492,29.11146179401993
1.8518887670686732,14.111461794019931
1.8528854779228545,17.11146179401993
1.8538821887770356,12.111461794019931
1.8548788996312169,21.11146179401993
1.855875610485398,14.111461794019931
1.8568723213395792,-5.888538205980069
1.8578690321937603,-10.888538205980069
1.8588657430479416,-1.888538205980069
1.859862453902123,-9.888538205980069
1.860859164756304,-5.888538205980069
1.8618558756104853,-8.888538205980069
1.8628525864646663,-7.888538205980069
1.8638492973188476,-15.888538205980069
1.864846008173029,-17.88853820598007
1.86584271902721,-18.88853820598007
1.8668394298813913,-7.888538205980069
1.8678361407355724,11.111461794019931
1.8688328515897537,17.11146179401993
1.869829562443935,17.11146179401993
1.870826273298116,7.111461794019931
1.8718229841522973,6.111461794019931
1.8728196950064784,6.111461794019931
1.8738164058606597,5.111461794019931
1.8748131167148407,16.11146179401993
1.875809827569022,15.111461794019931
1.8768065384232033,15.111461794019931
1.8778032492773844,-2.888538205980069
1.8787999601315657,8.111461794019931
1.8797966709857468,0.11146179401993095
1.880793381839928,-17.88853820598007
1.8817900926941094,-12.888538205980069
1.8827868035482904,-19.88853820598007
1.8837835144024717,-34.88853820598007
1.8847802252566528,-33.88853820598007
1.885776936110834,-15.888538205980069
1.8867736469650154,-9.888538205980069
1.8877703578191964,-15.888538205980069
1.8887670686733777,8.111461794019931
1.8897637795275588,24.11146179401993
1.89076049038174,20.11146179401993
1.8917572012359214,24.11146179401993
1.8927539120901025,27.11146179401993
1.8937506229442838,21.11146179401993
1.8947473337984648,21.11146179401993
1.8957440446526461,27.11146179401993
1.8967407555068272,32.11146179401993
1.8977374663610085,4.111461794019931
1.8987341772151898,-24.88853820598007
1.8997308880693708,-16.88853820598007
1.9007275989235521,-36.88853820598007
1.9017243097777332,-42.88853820598007
1.9027210206319145,-35.88853820598007
1.9037177314860958,-6.888538205980069
1.9047144423402769,-7.888538205980069
1.9057111531944582,-12.888538205980069
1.9067078640486392,6.111461794019931
1.9077045749028205,6.111461794019931
1.9087012857570018,-14.888538205980069
1.909697996611183,-25.88853820598007
1.9106947074653642,0.11146179401993095
1.9116914183195453,41.11146179401993
1.9126881291737265,56.11146179401993
1.9136848400279076,56.11146179401993
1.914681550882089,28.11146179401993
1.9156782617362702,17.11146179401993
1.9166749725904513,-2.888538205980069
1.9176716834446326,-18.88853820598007
1.9186683942988136,-8.888538205980069
1.919665105152995,-6.888538205980069
1.9206618160071762,-27.88853820598007
1.9216585268613573,-22.88853820598007
1.9226552377155386,-26.88853820598007
1.9236519485697197,-23.88853820598007
1.924648659423901,-31.88853820598007
1.9256453702780822,-41.88853820598007
1.9266420811322633,0.11146179401993095
1.9276387919864446,19.11146179401993
1.9286355028406257,-0.888538205980069
1.929632213694807,6.111461794019931
1.9306289245489883,32.11146179401993
1.9316256354031693,32.11146179401993
1.9326223462573506,43.11146179401993
1.9336190571115317,26.11146179401993
1.934615767965713,5.111461794019931
1.935612478819894,9.111461794019931
1.9366091896740754,7.111461794019931
1.9376059005282567,5.111461794019931
1.9386026113824377,-2.888538205980069
1.939599322236619,-13.888538205980069
1.9405960330908,-18.88853820598007
1.9415927439449814,-19.88853820598007
1.9425894547991627,-28.88853820598007
1.9435861656533437,-19.88853820598007
1.944582876507525,-27.88853820598007
1.945579587361706,-20.88853820598007
1.9465762982158874,-7.888538205980069
1.9475730090700687,-4.888538205980069
1.9485697199242498,-1.888538205980069
1.949566430778431,10.111461794019931
1.9505631416326121,24.11146179401993
1.9515598524867934,31.11146179401993
1.9525565633409747,20.11146179401993
1.9535532741951558,33.11146179401993
1.954549985049337,35.11146179401993
1.9555466959035182,11.111461794019931
1.9565434067576994,-8.888538205980069
1.9575401176118805,-8.888538205980069
1.9585368284660618,-4.888538205980069
1.959533539320243,-5.888538205980069
1.9605302501744242,-13.888538205980069
1.9615269610286055,-29.88853820598007
1.9625236718827865,-25.88853820598007
1.9635203827369678,-27.88853820598007
1.9645170935911491,-25.88853820598007
1.9655138044453302,-1.888538205980069
1.9665105152995115,-0.888538205980069
1.9675072261536926,-1.888538205980069
1.9685039370078738,8.111461794019931
1.9695006478620551,-7.888538205980069
1.9704973587162362,0.11146179401993095
1.9714940695704175,39.11146179401993
1.9724907804245986,54.11146179401993
1.9734874912787799,36.11146179401993
1.974484202132961,39.11146179401993
1.9754809129871422,29.11146179401993
1.9764776238413235,19.11146179401993
1.9774743346955046,1.111461794019931
1.978471045549686,-17.88853820598007
1.979467756403867,-19.88853820598007
1.9804644672580483,-29.88853820598007
1.9814611781122295,-31.88853820598007
1.9824578889664106,-35.88853820598007
1.983454599820592,-34.88853820598007
1.984451310674773,-14.888538205980069
1.9854480215289543,-2.888538205980069
1.9864447323831356,-1.888538205980069
1.9874414432373166,-3.888538205980069
1.988438154091498,2.111461794019931
1.989434864945679,2.111461794019931
1.9904315757998603,2.111461794019931
1.9914282866540416,14.111461794019931
1.9924249975082227,20.11146179401993
1.993421708362404,29.11146179401993
1.994418419216585,27.11146179401993
1.9954151300707663,25.11146179401993
1.9964118409249474,18.11146179401993
1.9974085517791287,15.111461794019931
1.99840526263331,-0.888538205980069
1.999401973487491,-15.888538205980069
2.0003986843416723,-30.88853820598007
2.0013953951958534,-45.88853820598007
2.0023921060500345,-44.88853820598007
2.003388816904216,-28.88853820598007
2.004385527758397,-16.88853820598007
2.005382238612578,2.111461794019931
2.0063789494667597,8.111461794019931
2.0073756603209407,8.111461794019931
2.008372371175122,24.11146179401993
2.0093690820293033,18.11146179401993
2.0103657928834844,20.11146179401993
2.0113625037376655,25.11146179401993
2.0123592145918465,22.11146179401993
2.013355925446028,20.11146179401993
2.014352636300209,7.111461794019931
2.01534934715439,20.11146179401993
2.0163460580085717,23.11146179401993
2.0173427688627528,-13.888538205980069
2.018339479716934,-22.88853820598007
2.0193361905711154,-5.888538205980069
2.0203329014252964,-27.88853820598007
2.0213296122794775,-24.88853820598007
2.0223263231336586,-10.888538205980069
2.02332303398784,-23.88853820598007
2.024319744842021,-19.88853820598007
2.0253164556962022,-14.888538205980069
2.0263131665503837,-9.888538205980069
2.027309877404565,-9.888538205980069
2.028306588258746,-1.888538205980069
2.029303299112927,14.111461794019931
2.0303000099671085,22.11146179401993
2.0312967208212895,20.11146179401993
2.0322934316754706,16.11146179401993
2.033290142529652,15.111461794019931
2.034286853383833,11.111461794019931
2.0352835642380143,24.11146179401993
2.036280275092196,16.11146179401993
2.037276985946377,-3.888538205980069
2.038273696800558,-3.888538205980069
2.039270407654739,-3.888538205980069
2.0402671185089205,-9.888538205980069
2.0412638293631016,-18.88853820598007
2.0422605402172826,-20.88853820598007
2.043257251071464,-16.88853820598007
2.0442539619256452,-19.88853820598007
2.0452506727798263,-14.888538205980069
2.0462473836340074,-9.888538205980069
2.047244094488189,-4.888538205980069
2.04824080534237,1.111461794019931
2.049237516196551,5.111461794019931
2.0502342270507325,9.111461794019931
2.0512309379049136,20.11146179401993
2.0522276487590947,19.11146179401993
2.053224359613276,20.11146179401993
2.0542210704674573,29.11146179401993
2.0552177813216383,26.11146179401993
2.0562144921758194,15.111461794019931
2.057211203030001,8.111461794019931
2.058207913884182,-2.888538205980069
2.059204624738363,-14.888538205980069
2.0602013355925446,-16.88853820598007
2.0611980464467257,-22.88853820598007
2.0621947573009067,-26.88853820598007
2.063191468155088,-26.88853820598007
2.0641881790092693,-20.88853820598007
2.0651848898634504,-8.888538205980069
2.0661816007176315,-11.888538205980069
2.067178311571813,-6.888538205980069
2.068175022425994,7.111461794019931
2.069171733280175,9.111461794019931
2.0701684441343566,12.111461794019931
2.0711651549885377,18.11146179401993
2.0721618658427188,17.11146179401993
2.0731585766969,19.11146179401993
2.0741552875510814,16.11146179401993
2.0751519984052624,11.111461794019931
2.0761487092594435,-1.888538205980069
2.077145420113625,4.111461794019931
2.078142130967806,-1.888538205980069
2.079138841821987,-15.888538205980069
2.0801355526761687,-20.88853820598007
2.0811322635303497,-8.888538205980069
2.082128974384531,-19.88853820598007
2.083125685238712,-35.88853820598007
2.0841223960928934,-11.888538205980069
2.0851191069470745,2.111461794019931
2.0861158178012555,4.111461794019931
2.087112528655437,5.111461794019931
2.088109239509618,4.111461794019931
2.089105950363799,0.11146179401993095
2.0901026612179803,15.111461794019931
2.091099372072162,23.11146179401993
2.092096082926343,20.11146179401993
2.093092793780524,19.11146179401993
2.0940895046347054,16.11146179401993
2.0950862154888865,12.111461794019931
2.0960829263430676,5.111461794019931
2.097079637197249,5.111461794019931
2.09807634805143,9.111461794019931
2.0990730589056112,-17.88853820598007
2.1000697697597923,-39.88853820598007
2.101066480613974,-34.88853820598007
2.102063191468155,-19.88853820598007
2.103059902322336,-20.88853820598007
2.1040566131765175,-8.888538205980069
2.1050533240306986,8.111461794019931
2.1060500348848796,8.111461794019931
2.1070467457390607,-4.888538205980069
2.108043456593242,-8.888538205980069
2.1090401674474233,5.111461794019931
2.1100368783016044,33.11146179401993
2.111033589155786,23.11146179401993
2.112030300009967,22.11146179401993
2.113027010864148,23.11146179401993
2.1140237217183295,15.111461794019931
2.1150204325725106,8.111461794019931
2.1160171434266917,-2.888538205980069
2.1170138542808727,-6.888538205980069
2.1180105651350543,-9.888538205980069
2.1190072759892353,-22.88853820598007
2.1200039868434164,-16.88853820598007
2.121000697697598,1.111461794019931
2.121997408551779,-8.888538205980069
2.12299411940596,-20.88853820598007
2.123990830260141,-27.88853820598007
2.1249875411143226,-10.888538205980069
2.1259842519685037,-1.888538205980069
2.126980962822685,1.111461794019931
2.1279776736768663,6.111461794019931
2.1289743845310474,11.111461794019931
2.1299710953852284,11.111461794019931
2.13096780623941,12.111461794019931
2.131964517093591,12.111461794019931
2.132961227947772,18.11146179401993
2.133957938801953,24.11146179401993
2.1349546496561347,17.11146179401993
2.1359513605103158,19.11146179401993
2.136948071364497,8.111461794019931
2.1379447822186783,-6.888538205980069
2.1389414930728594,-24.88853820598007
2.1399382039270405,-22.88853820598007
2.1409349147812216,-22.88853820598007
2.141931625635403,-21.88853820598007
2.142928336489584,-19.88853820598007
2.143925047343765,-18.88853820598007
2.1449217581979467,-15.888538205980069
2.145918469052128,-11.888538205980069
2.146915179906309,-4.888538205980069
2.1479118907604904,1.111461794019931
2.1489086016146715,17.11146179401993
2.1499053124688525,26.11146179401993
2.1509020233230336,32.11146179401993
2.151898734177215,29.11146179401993
2.152895445031396,28.11146179401993
2.1538921558855773,17.11146179401993
2.1548888667397588,7.111461794019931
2.15588557759394,-12.888538205980069
2.156882288448121,-19.88853820598007
2.1578789993023024,-14.888538205980069
2.1588757101564835,0.11146179401993095
2.1598724210106646,2.111461794019931
2.1608691318648456,-6.888538205980069
2.161865842719027,-17.88853820598007
2.1628625535732082,-11.888538205980069
2.1638592644273893,-16.88853820598007
2.164855975281571,-15.888538205980069
2.165852686135752,-7.888538205980069
2.166849396989933,1.111461794019931
2.167846107844114,8.111461794019931
2.1688428186982955,6.111461794019931
2.1698395295524766,16.11146179401993
2.1708362404066577,22.11146179401993
2.171832951260839,17.11146179401993
2.1728296621150203,16.11146179401993
2.1738263729692013,14.111461794019931
2.174823083823383,25.11146179401993
2.175819794677564,17.11146179401993
2.176816505531745,-6.888538205980069
2.177813216385926,-22.88853820598007
2.1788099272401076,-20.88853820598007
2.1798066380942887,-19.88853820598007
2.1808033489484697,-21.88853820598007
2.1818000598026512,-18.88853820598007
2.1827967706568323,-14.888538205980069
2.1837934815110134,-18.88853820598007
2.1847901923651945,-26.88853820598007
2.185786903219376,-19.88853820598007
2.186783614073557,1.111461794019931
2.187780324927738,4.111461794019931
2.1887770357819196,5.111461794019931
2.1897737466361007,3.111461794019931
2.1907704574902818,12.111461794019931
2.1917671683444633,19.11146179401993
2.1927638791986444,33.11146179401993
2.1937605900528254,30.11146179401993
2.1947573009070065,13.111461794019931
2.195754011761188,29.11146179401993
2.196750722615369,31.11146179401993
2.19774743346955,15.111461794019931
2.1987441443237317,-7.888538205980069
2.1997408551779127,-23.88853820598007
2.200737566032094,-38.88853820598007
2.201734276886275,-25.88853820598007
2.2027309877404564,-21.88853820598007
2.2037276985946375,-27.88853820598007
2.2047244094488185,-28.88853820598007
2.205721120303,-19.88853820598007
2.206717831157181,-2.888538205980069
2.207714542011362,19.11146179401993
2.2087112528655437,17.11146179401993
2.2097079637197248,19.11146179401993
2.210704674573906,35.11146179401993
2.211701385428087,28.11146179401993
2.2126980962822684,17.11146179401993
2.2136948071364495,10.111461794019931
2.2146915179906306,3.111461794019931
2.215688228844812,12.111461794019931
2.216684939698993,10.111461794019931
2.2176816505531742,4.111461794019931
2.2186783614073553,-19.88853820598007
2.219675072261537,-30.88853820598007
2.220671783115718,-12.888538205980069
2.221668493969899,-14.888538205980069
2.2226652048240805,-22.88853820598007
2.2236619156782615,-32.88853820598007
2.2246586265324426,-25.88853820598007
2.225655337386624,-4.888538205980069
2.226652048240805,0.11146179401993095
2.2276487590949863,6.111461794019931
2.2286454699491673,18.11146179401993
2.229642180803349,18.11146179401993
2.23063889165753,24.11146179401993
2.231635602511711,21.11146179401993
2.2326323133658925,20.11146179401993
2.2336290242200736,15.111461794019931
2.2346257350742547,20.11146179401993
2.235622445928436,10.111461794019931
2.2366191567826172,1.111461794019931
2.2376158676367983,1.111461794019931
2.2386125784909794,-7.888538205980069
2.239609289345161,-17.88853820598007
2.240606000199342,-14.888538205980069
2.241602711053523,-20.88853820598007
2.2425994219077046,-24.88853820598007
2.2435961327618856,-30.88853820598007
2.2445928436160667,-7.888538205980069
2.2455895544702478,-0.888538205980069
2.2465862653244293,-10.888538205980069
2.2475829761786104,4.111461794019931
2.2485796870327914,17.11146179401993
2.249576397886973,16.11146179401993
2.250573108741154,18.11146179401993
2.251569819595335,5.111461794019931
2.2525665304495166,23.11146179401993
2.2535632413036977,28.11146179401993
2.2545599521578787,11.111461794019931
2.25555666301206,21.11146179401993
2.2565533738662413,13.111461794019931
2.2575500847204224,9.111461794019931
2.2585467955746035,-11.888538205980069
2.259543506428785,-25.88853820598007
2.260540217282966,-23.88853820598007
2.261536928137147,-12.888538205980069
2.262533638991328,-22.88853820598007
2.2635303498455097,-26.88853820598007
2.264527060699691,-21.88853820598007
2.265523771553872,-11.888538205980069
2.2665204824080534,-2.888538205980069
2.2675171932622344,1.111461794019931
2.2685139041164155,8.111461794019931
2.269510614970597,8.111461794019931
2.270507325824778,12.111461794019931
2.271504036678959,15.111461794019931
2.2725007475331402,21.11146179401993
2.2734974583873218,36.11146179401993
2.274494169241503,36.11146179401993
2.275490880095684,10.111461794019931
2.2764875909498654,-8.888538205980069
2.2774843018040465,-17.88853820598007
2.2784810126582276,-19.88853820598007
2.2794777235124086,-6.888538205980069
2.28047443436659,-2.888538205980069
2.281471145220771,-14.888538205980069
2.2824678560749523,-29.88853820598007
2.283464566929134,-34.88853820598007
2.284461277783315,-15.888538205980069
2.285457988637496,-16.88853820598007
2.2864546994916775,4.111461794019931
2.2874514103458585,16.11146179401993
2.2884481212000396,17.11146179401993
2.2894448320542207,19.11146179401993
2.290441542908402,17.11146179401993
2.2914382537625833,10.111461794019931
2.2924349646167643,12.111461794019931
2.293431675470946,16.11146179401993
2.294428386325127,14.111461794019931
2.295425097179308,15.111461794019931
2.2964218080334895,17.11146179401993
2.2974185188876706,0.11146179401993095
2.2984152297418516,-4.888538205980069
2.2994119405960327,-14.888538205980069
2.3004086514502142,-29.88853820598007
2.3014053623043953,-38.88853820598007
2.3024020731585764,-35.88853820598007
2.303398784012758,-2.888538205980069
2.304395494866939,5.111461794019931
2.30539220572112,-24.88853820598007
2.306388916575301,-10.888538205980069
2.3073856274294826,3.111461794019931
2.3083823382836637,6.111461794019931
2.3093790491378448,24.11146179401993
2.3103757599920263,34.11146179401993
2.3113724708462073,23.11146179401993
2.3123691817003884,37.11146179401993
2.31336589255457,19.11146179401993
2.314362603408751,8.111461794019931
2.315359314262932,0.11146179401993095
2.316356025117113,-2.888538205980069
2.3173527359712947,0.11146179401993095
2.3183494468254757,-14.888538205980069
2.319346157679657,-18.88853820598007
2.3203428685338383,-29.88853820598007
2.3213395793880194,-26.88853820598007
2.3223362902422005,-5.888538205980069
2.3233330010963815,-16.88853820598007
2.324329711950563,-15.888538205980069
2.325326422804744,-2.888538205980069
2.326323133658925,12.111461794019931
2.3273198445131067,8.111461794019931
2.3283165553672878,14.111461794019931
2.329313266221469,7.111461794019931
2.3303099770756504,14.111461794019931
2.3313066879298314,12.111461794019931
2.3323033987840125,20.11146179401993
2.3333001096381936,22.11146179401993
2.334296820492375,15.111461794019931
2.335293531346556,0.11146179401993095
2.336290242200737,-1.888538205980069
2.3372869530549187,3.111461794019931
2.3382836639091,-10.888538205980069
2.339280374763281,-19.88853820598007
2.340277085617462,-23.88853820598007
2.3412737964716435,-16.88853820598007
2.3422705073258245,-17.88853820598007
2.3432672181800056,-20.88853820598007
2.344263929034187,-20.88853820598007
2.345260639888368,-15.888538205980069
2.3462573507425493,-9.888538205980069
2.347254061596731,6.111461794019931
2.348250772450912,17.11146179401993
2.349247483305093,22.11146179401993
2.350244194159274,29.11146179401993
2.3512409050134555,34.11146179401993
2.3522376158676366,32.11146179401993
2.3532343267218176,20.11146179401993
2.354231037575999,9.111461794019931
2.3552277484301802,2.111461794019931
2.3562244592843613,-3.888538205980069
2.3572211701385424,-7.888538205980069
2.358217880992724,-20.88853820598007
2.359214591846905,-25.88853820598007
2.360211302701086,-21.88853820598007
2.3612080135552675,-14.888538205980069
2.3622047244094486,-7.888538205980069
2.3632014352636297,-12.888538205980069
2.364198146117811,-15.888538205980069
2.3651948569719923,-11.888538205980069
2.3661915678261733,-2.888538205980069
2.3671882786803544,-2.888538205980069
2.368184989534536,1.111461794019931
2.369181700388717,14.111461794019931
2.370178411242898,27.11146179401993
2.3711751220970796,12.111461794019931
2.3721718329512607,12.111461794019931
2.3731685438054417,12.111461794019931
2.3741652546596232,19.11146179401993
2.3751619655138043,18.11146179401993
2.3761586763679854,7.111461794019931
2.3771553872221665,10.111461794019931
2.378152098076348,5.111461794019931
2.379148808930529,-20.88853820598007
2.38014551978471,-29.88853820598007
2.3811422306388916,-33.88853820598007
2.3821389414930727,-25.88853820598007
2.3831356523472538,-22.88853820598007
2.384132363201435,-10.888538205980069
2.3851290740556164,0.11146179401993095
2.3861257849097974,-5.888538205980069
2.3871224957639785,6.111461794019931
2.38811920661816,16.11146179401993
2.389115917472341,23.11146179401993
2.390112628326522,20.11146179401993
2.3911093391807037,12.111461794019931
2.3921060500348847,20.11146179401993
2.393102760889066,33.11146179401993
2.394099471743247,27.11146179401993
2.3950961825974284,16.11146179401993
2.3960928934516095,-6.888538205980069
2.3970896043057905,-9.888538205980069
2.398086315159972,-11.888538205980069
2.399083026014153,-18.88853820598007
2.400079736868334,-18.88853820598007
2.4010764477225153,-24.88853820598007
2.402073158576697,-38.88853820598007
2.403069869430878,-30.88853820598007
2.404066580285059,-16.88853820598007
2.4050632911392404,-8.888538205980069
2.4060600019934215,3.111461794019931
2.4070567128476026,8.111461794019931
2.408053423701784,9.111461794019931
2.409050134555965,20.11146179401993
2.4100468454101462,23.11146179401993
2.4110435562643273,15.111461794019931
2.412040267118509,19.11146179401993
2.41303697797269,16.11146179401993
2.414033688826871,17.11146179401993
2.4150303996810525,7.111461794019931
2.4160271105352336,0.11146179401993095
2.4170238213894146,-6.888538205980069
2.4180205322435957,-11.888538205980069
2.419017243097777,-19.88853820598007
2.4200139539519583,-19.88853820598007
2.4210106648061394,-8.888538205980069
2.422007375660321,-2.888538205980069
2.423004086514502,-14.888538205980069
2.424000797368683,-23.88853820598007
2.4249975082228645,-17.88853820598007
2.4259942190770456,-15.888538205980069
2.4269909299312267,-3.888538205980069
2.4279876407854077,13.111461794019931
2.4289843516395893,29.11146179401993
2.4299810624937703,40.11146179401993
2.4309777733479514,32.11146179401993
2.431974484202133,15.111461794019931
2.432971195056314,1.111461794019931
2.433967905910495,9.111461794019931
2.434964616764676,3.111461794019931
2.4359613276188576,-6.888538205980069
2.4369580384730387,-7.888538205980069
2.43795474932722,-4.888538205980069
2.4389514601814013,-3.888538205980069
2.4399481710355824,-18.88853820598007
2.4409448818897634,-23.88853820598007
2.441941592743945,-15.888538205980069
2.442938303598126,-9.888538205980069
2.443935014452307,-12.888538205980069
2.444931725306488,-10.888538205980069
2.4459284361606697,-2.888538205980069
2.4469251470148508,4.111461794019931
2.447921857869032,11.111461794019931
2.4489185687232133,19.11146179401993
2.4499152795773944,20.11146179401993
2.4509119904315755,23.11146179401993
2.451908701285757,25.11146179401993
2.452905412139938,17.11146179401993
2.453902122994119,21.11146179401993
2.4548988338483,7.111461794019931
2.4558955447024817,-2.888538205980069
2.456892255556663,-4.888538205980069
2.457888966410844,-9.888538205980069
2.4588856772650254,-10.888538205980069
2.4598823881192065,-14.888538205980069
2.4608790989733875,-25.88853820598007
2.4618758098275686,-33.88853820598007
2.46287252068175,-21.88853820598007
2.463869231535931,-7.888538205980069
2.4648659423901123,-4.888538205980069
2.4658626532442938,-3.888538205980069
2.466859364098475,-0.888538205980069
2.467856074952656,4.111461794019931
2.4688527858068374,12.111461794019931
2.4698494966610185,24.11146179401993
2.4708462075151996,38.11146179401993
2.4718429183693806,32.11146179401993
2.472839629223562,17.11146179401993
2.4738363400777432,6.111461794019931
2.4748330509319243,5.111461794019931
2.475829761786106,-2.888538205980069
2.476826472640287,-3.888538205980069
2.477823183494468,-7.888538205980069
2.478819894348649,-21.88853820598007
2.4798166052028305,-26.88853820598007
2.4808133160570116,-26.88853820598007
2.4818100269111927,-15.888538205980069
2.482806737765374,-12.888538205980069
2.4838034486195553,-13.888538205980069
2.4848001594737363,-2.888538205980069
2.485796870327918,-5.888538205980069
2.486793581182099,-5.888538205980069
2.48779029203628,1.111461794019931
2.488787002890461,13.111461794019931
2.4897837137446426,19.11146179401993
2.4907804245988237,21.11146179401993
2.4917771354530047,29.11146179401993
2.4927738463071862,32.11146179401993
2.4937705571613673,31.11146179401993
2.4947672680155484,15.111461794019931
2.4957639788697294,-2.888538205980069
2.496760689723911,-3.888538205980069
2.497757400578092,-10.888538205980069
2.498754111432273,-1.888538205980069
2.4997508222864546,-7.888538205980069
2.5007475331406357,-18.88853820598007
2.5017442439948168,-23.88853820598007
2.5027409548489983,-25.88853820598007
2.5037376657031793,-24.88853820598007
2.5047343765573604,-14.888538205980069
2.5057310874115415,-21.88853820598007
2.506727798265723,-13.888538205980069
2.507724509119904,-2.888538205980069
2.508721219974085,9.111461794019931
2.5097179308282667,29.11146179401993
2.5107146416824477,31.11146179401993
2.511711352536629,26.11146179401993
2.51270806339081,31.11146179401993
2.5137047742449914,15.111461794019931
2.5147014850991725,11.111461794019931
2.5156981959533535,4.111461794019931
2.516694906807535,4.111461794019931
2.517691617661716,3.111461794019931
2.518688328515897,1.111461794019931
2.5196850393700787,-12.888538205980069
2.5206817502242598,-30.88853820598007
2.521678461078441,-36.88853820598007
2.522675171932622,-30.88853820598007
2.5236718827868034,-22.88853820598007
2.5246685936409845,-10.888538205980069
2.5256653044951656,-1.888538205980069
2.526662015349347,7.111461794019931
2.527658726203528,9.111461794019931
2.5286554370577092,9.111461794019931
2.5296521479118907,12.111461794019931
2.530648858766072,21.11146179401993
2.531645569620253,25.11146179401993
2.532642280474434,14.111461794019931
2.5336389913286155,18.11146179401993
2.5346357021827965,22.11146179401993
2.5356324130369776,24.11146179401993
2.536629123891159,8.111461794019931
2.53762583474534,-10.888538205980069
2.5386225455995213,-19.88853820598007
2.5396192564537023,-25.88853820598007
2.540615967307884,-25.88853820598007
2.541612678162065,-26.88853820598007
2.542609389016246,-20.88853820598007
2.5436060998704275,-16.88853820598007
2.5446028107246086,-11.888538205980069
2.5455995215787897,-9.888538205980069
2.546596232432971,-3.888538205980069
2.5475929432871522,6.111461794019931
2.5485896541413333,16.11146179401993
2.5495863649955144,20.11146179401993
2.550583075849696,20.11146179401993
2.551579786703877,21.11146179401993
2.552576497558058,19.11146179401993
2.5535732084122396,12.111461794019931
2.5545699192664206,5.111461794019931
2.5555666301206017,1.111461794019931
2.5565633409747828,-1.888538205980069
2.5575600518289643,-11.888538205980069
2.5585567626831454,-14.888538205980069
2.5595534735373264,-19.88853820598007
2.560550184391508,-14.888538205980069
2.561546895245689,-11.888538205980069
2.56254360609987,-15.888538205980069
2.5635403169540516,-15.888538205980069
2.5645370278082327,-2.888538205980069
2.5655337386624137,1.111461794019931
2.566530449516595,3.111461794019931
2.5675271603707763,8.111461794019931
2.5685238712249574,31.11146179401993
2.5695205820791385,22.11146179401993
2.57051729293332,14.111461794019931
2.571514003787501,16.11146179401993
2.572510714641682,14.111461794019931
2.573507425495863,13.111461794019931
2.5745041363500447,3.111461794019931
2.575500847204226,-5.888538205980069
2.576497558058407,-3.888538205980069
2.5774942689125884,-9.888538205980069
2.5784909797667694,-17.88853820598007
2.5794876906209505,-28.88853820598007
2.580484401475132,-30.88853820598007
2.581481112329313,-23.88853820598007
2.582477823183494,-10.888538205980069
2.5834745340376752,-7.888538205980069
2.5844712448918568,-8.888538205980069
2.585467955746038,-7.888538205980069
2.586464666600219,5.111461794019931
2.5874613774544004,10.111461794019931
2.5884580883085815,17.11146179401993
2.5894547991627626,27.11146179401993
2.590451510016944,31.11146179401993
2.591448220871125,22.11146179401993
2.592444931725306,17.11146179401993
2.5934416425794873,11.111461794019931
2.594438353433669,9.111461794019931
2.59543506428785,4.111461794019931
2.596431775142031,1.111461794019931
2.5974284859962125,-18.88853820598007
2.5984251968503935,-19.88853820598007
2.5994219077045746,-19.88853820598007
2.6004186185587557,-16.88853820598007
2.601415329412937,-12.888538205980069
2.6024120402671183,-14.888538205980069
2.6034087511212993,-15.888538205980069
2.604405461975481,-1.888538205980069
2.605402172829662,0.11146179401993095
2.606398883683843,-1.888538205980069
2.6073955945380245,4.111461794019931
2.6083923053922056,10.111461794019931
2.6093890162463866,16.11146179401993
2.6103857271005677,24.11146179401993
2.6113824379547492,29.11146179401993
2.6123791488089303,26.11146179401993
2.6133758596631114,23.11146179401993
2.614372570517293,10.111461794019931
2.615369281371474,-6.888538205980069
2.616365992225655,-8.888538205980069
2.617362703079836,-18.88853820598007
2.6183594139340176,-26.88853820598007
2.6193561247881987,-19.88853820598007
2.6203528356423798,-18.88853820598007
2.6213495464965613,-25.88853820598007
2.6223462573507423,-19.88853820598007
2.6233429682049234,-7.888538205980069
2.624339679059105,-11.888538205980069
2.625336389913286,-8.888538205980069
2.626333100767467,-0.888538205980069
2.627329811621648,12.111461794019931
2.6283265224758297,27.11146179401993
2.6293232333300107,31.11146179401993
2.630319944184192,29.11146179401993
2.6313166550383733,24.11146179401993
2.6323133658925544,12.111461794019931
2.6333100767467355,10.111461794019931
2.6343067876009165,10.111461794019931
2.635303498455098,7.111461794019931
2.636300209309279,-6.888538205980069
2.63729692016346,-16.88853820598007
2.6382936310176417,-17.88853820598007
2.6392903418718228,-14.888538205980069
2.640287052726004,-5.888538205980069
2.6412837635801854,-10.888538205980069
2.6422804744343664,-21.88853820598007
2.6432771852885475,-21.88853820598007
2.6442738961427286,-19.88853820598007
2.64527060699691,-14.888538205980069
2.646267317851091,-3.888538205980069
2.647264028705272,2.111461794019931
2.6482607395594537,19.11146179401993
2.649257450413635,21.11146179401993
2.650254161267816,24.11146179401993
2.651250872121997,25.11146179401993
2.6522475829761785,20.11146179401993
2.6532442938303595,10.111461794019931
2.6542410046845406,12.111461794019931
2.655237715538722,3.111461794019931
2.656234426392903,-11.888538205980069
2.6572311372470843,-20.88853820598007
2.6582278481012658,-19.88853820598007
2.659224558955447,-16.88853820598007
2.660221269809628,-12.888538205980069
2.661217980663809,-6.888538205980069
2.6622146915179905,-5.888538205980069
2.6632114023721716,-0.888538205980069
2.6642081132263526,-5.888538205980069
2.665204824080534,-2.888538205980069
2.6662015349347152,-1.888538205980069
2.6671982457888963,5.111461794019931
2.668194956643078,4.111461794019931
2.669191667497259,12.111461794019931
2.67018837835144,15.111461794019931
2.671185089205621,14.111461794019931
2.6721818000598025,27.11146179401993
2.6731785109139836,29.11146179401993
2.6741752217681647,10.111461794019931
2.675171932622346,-4.888538205980069
2.6761686434765273,-2.888538205980069
2.6771653543307083,-11.888538205980069
2.6781620651848894,-18.88853820598007
2.679158776039071,-22.88853820598007
2.680155486893252,-31.88853820598007
2.681152197747433,-17.88853820598007
2.6821489086016146,1.111461794019931
2.6831456194557957,6.111461794019931
2.6841423303099767,0.11146179401993095
2.6851390411641582,-2.888538205980069
2.6861357520183393,1.111461794019931
2.6871324628725204,6.111461794019931
2.6881291737267015,4.111461794019931
2.689125884580883,-3.888538205980069
2.690122595435064,8.111461794019931
2.691119306289245,20.11146179401993
2.6921160171434266,28.11146179401993
2.6931127279976077,24.11146179401993
2.6941094388517888,16.11146179401993
2.69510614970597,14.111461794019931
2.6961028605601514,8.111461794019931
2.6970995714143324,-8.888538205980069
2.6980962822685135,-17.88853820598007
2.699092993122695,-19.88853820598007
2.700089703976876,-28.88853820598007
2.701086414831057,-31.88853820598007
2.7020831256852387,-28.88853820598007
2.7030798365394197,-28.88853820598007
2.704076547393601,-11.888538205980069
2.705073258247782,5.111461794019931
2.7060699691019634,16.11146179401993
2.7070666799561445,20.11146179401993
2.7080633908103255,20.11146179401993
2.709060101664507,20.11146179401993
2.710056812518688,16.11146179401993
2.711053523372869,9.111461794019931
2.7120502342270503,12.111461794019931
2.713046945081232,12.111461794019931
2.714043655935413,10.111461794019931
2.715040366789594,6.111461794019931
2.7160370776437754,4.111461794019931
2.7170337884979565,-6.888538205980069
2.7180304993521376,-19.88853820598007
2.719027210206319,-26.88853820598007
2.7200239210605,-21.88853820598007
2.7210206319146812,-17.88853820598007
2.7220173427688623,-23.88853820598007
2.723014053623044,-17.88853820598007
2.724010764477225,-7.888538205980069
2.725007475331406,0.11146179401993095
2.7260041861855875,6.111461794019931
2.7270008970397686,3.111461794019931
2.7279976078939496,-1.888538205980069
2.7289943187481307,14.111461794019931
2.729991029602312,26.11146179401993
2.7309877404564933,14.111461794019931
2.7319844513106744,24.11146179401993
2.732981162164856,29.11146179401993
2.733977873019037,35.11146179401993
2.734974583873218,24.11146179401993
2.7359712947273995,13.111461794019931
2.7369680055815806,-14.888538205980069
2.7379647164357617,-25.88853820598007
2.7389614272899427,-33.88853820598007
2.7399581381441243,-33.88853820598007
2.7409548489983053,-19.88853820598007
2.7419515598524864,-14.888538205980069
2.742948270706668,-10.888538205980069
2.743944981560849,-6.888538205980069
2.74494169241503,-7.888538205980069
2.7459384032692116,-2.888538205980069
2.7469351141233926,2.111461794019931
2.7479318249775737,2.111461794019931
2.748928535831755,7.111461794019931
2.7499252466859363,16.11146179401993
2.7509219575401174,27.11146179401993
2.7519186683942984,29.11146179401993
2.75291537924848,21.11146179401993
2.753912090102661,13.111461794019931
2.754908800956842,3.111461794019931
2.755905511811023,5.111461794019931
2.7569022226652047,-6.888538205980069
2.7578989335193858,-11.888538205980069
2.758895644373567,-14.888538205980069
2.7598923552277483,-30.88853820598007
2.7608890660819294,-29.88853820598007
2.7618857769361105,-31.88853820598007
2.762882487790292,-28.88853820598007
2.763879198644473,-17.88853820598007
2.764875909498654,-2.888538205980069
2.765872620352835,4.111461794019931
2.7668693312070167,12.111461794019931
2.767866042061198,18.11146179401993
2.768862752915379,17.11146179401993
2.7698594637695604,20.11146179401993
2.7708561746237415,34.11146179401993
2.7718528854779225,32.11146179401993
2.7728495963321036,21.11146179401993
2.773846307186285,2.111461794019931
2.774843018040466,8.111461794019931
2.7758397288946473,20.11146179401993
2.7768364397488288,9.111461794019931
2.77783315060301,-1.888538205980069
2.778829861457191,-23.88853820598007
2.7798265723113724,-34.88853820598007
2.7808232831655535,-27.88853820598007
2.7818199940197346,-22.88853820598007
2.7828167048739156,-22.88853820598007
2.783813415728097,-14.888538205980069
2.7848101265822782,-11.888538205980069
2.7858068374364593,-5.888538205980069
2.786803548290641,1.111461794019931
2.787800259144822,12.111461794019931
2.788796969999003,33.11146179401993
2.789793680853184,24.11146179401993
2.7907903917073655,21.11146179401993
2.7917871025615466,17.11146179401993
2.7927838134157277,12.111461794019931
2.793780524269909,12.111461794019931
2.7947772351240903,16.11146179401993
2.7957739459782713,4.111461794019931
2.796770656832453,-13.888538205980069
2.797767367686634,-21.88853820598007
2.798764078540815,-25.88853820598007
2.799760789394996,-16.88853820598007
2.8007575002491776,-13.888538205980069
2.8017542111033586,-16.88853820598007
2.8027509219575397,-18.88853820598007
2.8037476328117212,-2.888538205980069
2.8047443436659023,4.111461794019931
2.8057410545200834,-0.888538205980069
2.8067377653742644,-0.888538205980069
2.807734476228446,1.111461794019931
2.808731187082627,9.111461794019931
2.809727897936808,22.11146179401993
2.8107246087909896,29.11146179401993
2.8117213196451707,30.11146179401993
2.8127180304993518,28.11146179401993
2.8137147413535333,14.111461794019931
2.8147114522077143,-5.888538205980069
2.8157081630618954,-16.88853820598007
2.8167048739160765,-15.888538205980069
2.817701584770258,-12.888538205980069
2.818698295624439,-12.888538205980069
2.81969500647862,-19.88853820598007
2.8206917173328017,-11.888538205980069
2.8216884281869827,-8.888538205980069
2.822685139041164,-10.888538205980069
2.8236818498953453,-24.88853820598007
2.8246785607495264,-16.88853820598007
2.8256752716037075,4.111461794019931
2.8266719824578885,9.111461794019931
2.82766869331207,10.111461794019931
2.828665404166251,26.11146179401993
2.829662115020432,12.111461794019931
2.8306588258746137,1.111461794019931
2.8316555367287948,15.111461794019931
2.832652247582976,30.11146179401993
2.833648958437157,29.11146179401993
2.8346456692913384,1.111461794019931
2.8356423801455195,-0.888538205980069
2.8366390909997006,-2.888538205980069
2.837635801853882,2.111461794019931
2.838632512708063,-7.888538205980069
2.8396292235622442,-19.88853820598007
2.8406259344164257,-27.88853820598007
2.841622645270607,-31.88853820598007
2.842619356124788,-40.88853820598007
2.843616066978969,-18.88853820598007
2.8446127778331505,0.11146179401993095
2.8456094886873315,-3.888538205980069
2.8466061995415126,11.111461794019931
2.847602910395694,29.11146179401993
2.848599621249875,30.11146179401993
2.8495963321040563,37.11146179401993
2.8505930429582373,18.11146179401993
2.851589753812419,-1.888538205980069
2.8525864646666,1.111461794019931
2.853583175520781,8.111461794019931
2.8545798863749625,-7.888538205980069
2.8555765972291436,-16.88853820598007
2.8565733080833247,-21.88853820598007
2.857570018937506,0.11146179401993095
2.8585667297916872,27.11146179401993
2.8595634406458683,11.111461794019931
2.8605601515000494,-13.888538205980069
2.861556862354231,-41.88853820598007
2.862553573208412,-20.88853820598007
2.863550284062593,9.111461794019931
2.8645469949167746,-6.888538205980069
2.8655437057709556,-10.888538205980069
2.8665404166251367,12.111461794019931
2.8675371274793178,15.111461794019931
2.8685338383334993,23.11146179401993
2.8695305491876804,15.111461794019931
2.8705272600418614,-5.888538205980069
2.871523970896043,-11.888538205980069
2.872520681750224,-1.888538205980069
2.873517392604405,32.11146179401993
2.8745141034585866,18.11146179401993
2.8755108143127677,-0.888538205980069
2.8765075251669487,8.111461794019931
2.87750423602113,-1.888538205980069
2.8785009468753113,-27.88853820598007
2.8794976577294924,-23.88853820598007
2.8804943685836735,-20.88853820598007
2.881491079437855,-19.88853820598007
2.882487790292036,-15.888538205980069
2.883484501146217,-24.88853820598007
2.8844812120003986,-8.888538205980069
2.8854779228545797,-0.888538205980069
2.886474633708761,13.111461794019931
2.887471344562942,34.11146179401993
2.8884680554171234,36.11146179401993
2.8894647662713044,17.11146179401993
2.8904614771254855,17.11146179401993
2.891458187979667,35.11146179401993
2.892454898833848,20.11146179401993
2.893451609688029,2.111461794019931
2.8944483205422102,0.11146179401993095
2.8954450313963918,-11.888538205980069
2.896441742250573,-9.888538205980069
2.897438453104754,-3.888538205980069
2.8984351639589354,-14.888538205980069
2.8994318748131165,-31.88853820598007
2.9004285856672976,-33.88853820598007
2.901425296521479,-30.88853820598007
2.90242200737566,-30.88853820598007
2.903418718229841,-24.88853820598007
2.9044154290840223,0.11146179401993095
2.905412139938204,12.111461794019931
2.906408850792385,21.11146179401993
2.907405561646566,35.11146179401993
2.9084022725007475,39.11146179401993
2.9093989833549285,35.11146179401993
2.9103956942091096,11.111461794019931
2.9113924050632907,-1.888538205980069
2.912389115917472,8.111461794019931
2.9133858267716533,18.11146179401993
2.9143825376258343,1.111461794019931
2.915379248480016,-3.888538205980069
2.916375959334197,-14.888538205980069
2.917372670188378,-22.88853820598007
2.9183693810425595,-13.888538205980069
2.9193660918967406,-23.88853820598007
2.9203628027509216,-30.88853820598007
2.9213595136051027,-23.88853820598007
2.9223562244592842,-0.888538205980069
2.9233529353134653,-10.888538205980069
2.9243496461676464,-11.888538205980069
2.925346357021828,0.11146179401993095
2.926343067876009,11.111461794019931
2.92733977873019,22.11146179401993
2.928336489584371,18.11146179401993
2.9293332004385526,6.111461794019931
2.9303299112927337,25.11146179401993
2.9313266221469148,30.11146179401993
2.9323233330010963,24.11146179401993
2.9333200438552773,6.111461794019931
2.9343167547094584,-6.888538205980069
2.93531346556364,0.11146179401993095
2.936310176417821,0.11146179401993095
2.937306887272002,-3.888538205980069
2.938303598126183,-1.888538205980069
2.9393003089803647,-17.88853820598007
2.9402970198345457,-28.88853820598007
2.941293730688727,-44.88853820598007
2.9422904415429083,-21.88853820598007
2.9432871523970894,-9.888538205980069
2.9442838632512704,19.11146179401993
2.9452805741054515,30.11146179401993
2.946277284959633,15.111461794019931
2.947273995813814,3.111461794019931
2.948270706667995,11.111461794019931
2.9492674175221767,7.111461794019931
2.9502641283763578,17.11146179401993
2.951260839230539,21.11146179401993
2.9522575500847204,14.111461794019931
2.9532542609389014,3.111461794019931
2.9542509717930825,6.111461794019931
2.9552476826472636,3.111461794019931
2.956244393501445,-10.888538205980069
2.957241104355626,-15.888538205980069
2.958237815209807,-20.88853820598007
2.9592345260639887,-21.88853820598007
2.96023123691817,-2.888538205980069
2.961227947772351,-8.888538205980069
2.9622246586265324,-22.88853820598007
2.9632213694807135,-18.88853820598007
2.9642180803348945,-7.888538205980069
2.9652147911890756,3.111461794019931
2.966211502043257,11.111461794019931
2.967208212897438,6.111461794019931
2.9682049237516193,-2.888538205980069
2.9692016346058008,20.11146179401993
2.970198345459982,26.11146179401993
2.971195056314163,10.111461794019931
2.972191767168344,20.11146179401993
2.9731884780225255,14.111461794019931
2.9741851888767066,22.11146179401993
2.9751818997308876,30.11146179401993
2.976178610585069,4.111461794019931
2.9771753214392502,-3.888538205980069
2.9781720322934313,-25.88853820598007
2.979168743147613,-25.88853820598007
2.980165454001794,-26.88853820598007
2.981162164855975,-33.88853820598007
2.982158875710156,-34.88853820598007
2.9831555865643375,14.111461794019931
2.9841522974185186,9.111461794019931
2.9851490082726997,3.111461794019931
2.986145719126881,6.111461794019931
2.9871424299810623,2.111461794019931
2.9881391408352433,9.111461794019931
2.9891358516894244,15.111461794019931
2.990132562543606,11.111461794019931
2.991129273397787,15.111461794019931
2.992125984251968,9.111461794019931
2.9931226951061496,12.111461794019931
2.9941194059603307,1.111461794019931
2.9951161168145117,-11.888538205980069
2.9961128276686932,-26.88853820598007
2.9971095385228743,-24.88853820598007
2.9981062493770554,-13.888538205980069
2.9991029602312365,-10.888538205980069
3.000099671085418,-12.888538205980069
3.001096381939599,-20.88853820598007
3.00209309279378,-9.888538205980069
3.0030898036479616,14.111461794019931
3.0040865145021427,8.111461794019931
3.0050832253563238,5.111461794019931
3.006079936210505,7.111461794019931
3.0070766470646864,8.111461794019931
3.0080733579188674,5.111461794019931
3.0090700687730485,4.111461794019931
3.01006677962723,16.11146179401993
3.011063490481411,20.11146179401993
3.012060201335592,15.111461794019931
3.0130569121897737,7.111461794019931
3.0140536230439547,12.111461794019931
3.015050333898136,14.111461794019931
3.016047044752317,-0.888538205980069
3.0170437556064984,-1.888538205980069
3.0180404664606795,-19.88853820598007
3.0190371773148605,-32.88853820598007
3.020033888169042,-39.88853820598007
3.021030599023223,-20.88853820598007
3.022027309877404,-8.888538205980069
3.0230240207315853,1.111461794019931
3.024020731585767,14.111461794019931
3.025017442439948,6.111461794019931
3.026014153294129,10.111461794019931
3.0270108641483104,14.111461794019931
3.0280075750024915,12.111461794019931
3.0290042858566726,5.111461794019931
3.030000996710854,6.111461794019931
3.030997707565035,12.111461794019931
3.0319944184192162,24.11146179401993
3.0329911292733973,23.11146179401993
3.033987840127579,4.111461794019931
3.03498455098176,-10.888538205980069
3.035981261835941,-14.888538205980069
3.0369779726901225,-16.88853820598007
3.0379746835443036,-12.888538205980069
3.0389713943984846,-16.88853820598007
3.039968105252666,-11.888538205980069
3.040964816106847,-12.888538205980069
3.0419615269610283,-15.888538205980069
3.0429582378152094,-13.888538205980069
3.043954948669391,-4.888538205980069
3.044951659523572,-1.888538205980069
3.045948370377753,9.111461794019931
3.0469450812319345,9.111461794019931
3.0479417920861156,12.111461794019931
3.0489385029402967,10.111461794019931
3.0499352137944777,12.111461794019931
3.0509319246486593,16.11146179401993
3.0519286355028403,35.11146179401993
3.0529253463570214,30.11146179401993
3.053922057211203,9.111461794019931
3.054918768065384,-1.888538205980069
3.055915478919565,-12.888538205980069
3.0569121897737466,-23.88853820598007
3.0579089006279276,-29.88853820598007
3.0589056114821087,-23.88853820598007
3.05990232233629,-25.88853820598007
3.0608990331904713,-25.88853820598007
3.0618957440446524,-12.888538205980069
3.0628924548988334,7.111461794019931
3.063889165753015,13.111461794019931
3.064885876607196,8.111461794019931
3.065882587461377,4.111461794019931
3.066879298315558,9.111461794019931
3.0678760091697397,14.111461794019931
3.0688727200239208,17.11146179401993
3.069869430878102,11.111461794019931
3.0708661417322833,12.111461794019931
3.0718628525864644,12.111461794019931
3.0728595634406455,15.111461794019931
3.073856274294827,8.111461794019931
3.074852985149008,-10.888538205980069
3.075849696003189,-12.888538205980069
3.07684640685737,-9.888538205980069
3.0778431177115517,-3.888538205980069
3.078839828565733,-12.888538205980069
3.079836539419914,-20.88853820598007
3.0808332502740954,-19.88853820598007
3.0818299611282765,-16.88853820598007
3.0828266719824575,-7.888538205980069
3.0838233828366386,5.111461794019931
3.08482009369082,-6.888538205980069
3.085816804545001,-16.88853820598007
3.0868135153991823,-5.888538205980069
3.0878102262533638,6.111461794019931
3.088806937107545,12.111461794019931
3.089803647961726,11.111461794019931
3.0908003588159074,16.11146179401993
3.0917970696700885,18.11146179401993
3.0927937805242696,16.11146179401993
3.0937904913784506,5.111461794019931
3.094787202232632,16.11146179401993
3.095783913086813,3.111461794019931
3.0967806239409943,-10.888538205980069
3.097777334795176,-9.888538205980069
3.098774045649357,-27.88853820598007
3.099770756503538,-18.88853820598007
3.1007674673577195,-14.888538205980069
3.1017641782119005,2.111461794019931
3.1027608890660816,10.111461794019931
3.1037575999202627,1.111461794019931
3.104754310774444,-4.888538205980069
3.1057510216286253,-14.888538205980069
3.1067477324828063,8.111461794019931
3.107744443336988,26.11146179401993
3.108741154191169,17.11146179401993
3.10973786504535,24.11146179401993
3.110734575899531,29.11146179401993
3.1117312867537126,18.11146179401993
3.1127279976078936,17.11146179401993
3.1137247084620747,0.11146179401993095
3.1147214193162562,-7.888538205980069
3.1157181301704373,3.111461794019931
3.1167148410246184,-10.888538205980069
3.1177115518788,-4.888538205980069
3.118708262732981,-11.888538205980069
3.119704973587162,-26.88853820598007
3.120701684441343,-28.88853820598007
3.1216983952955246,-17.88853820598007
3.1226951061497057,-15.888538205980069
3.1236918170038868,-10.888538205980069
3.1246885278580683,-7.888538205980069
3.1256852387122493,-3.888538205980069
3.1266819495664304,13.111461794019931
3.1276786604206115,9.111461794019931
3.128675371274793,7.111461794019931
3.129672082128974,12.111461794019931
3.130668792983155,16.11146179401993
3.1316655038373367,24.11146179401993
3.1326622146915177,21.11146179401993
3.133658925545699,18.11146179401993
3.1346556363998803,16.11146179401993
3.1356523472540614,-1.888538205980069
3.1366490581082425,-17.88853820598007
3.1376457689624235,-28.88853820598007
3.138642479816605,-30.88853820598007
3.139639190670786,-16.88853820598007
3.140635901524967,-18.88853820598007
3.1416326123791487,-20.88853820598007
3.1426293232333298,-20.88853820598007
3.143626034087511,-9.888538205980069
3.144622744941692,4.111461794019931
3.1456194557958734,4.111461794019931
3.1466161666500545,4.111461794019931
3.1476128775042356,25.11146179401993
3.148609588358417,22.11146179401993
3.149606299212598,11.111461794019931
3.1506030100667792,27.11146179401993
3.1515997209209607,23.11146179401993
3.152596431775142,20.11146179401993
3.153593142629323,3.111461794019931
3.154589853483504,17.11146179401993
3.1555865643376855,3.111461794019931
3.1565832751918665,-9.888538205980069
3.1575799860460476,-14.888538205980069
3.158576696900229,-9.888538205980069
3.15957340775441,-17.88853820598007
3.1605701186085913,-17.88853820598007
3.1615668294627723,-21.88853820598007
3.162563540316954,-22.88853820598007
3.163560251171135,-24.88853820598007
3.164556962025316,-28.88853820598007
3.1655536728794975,0.11146179401993095
3.1665503837336786,33.11146179401993
3.1675470945878597,32.11146179401993
3.168543805442041,22.11146179401993
3.1695405162962222,28.11146179401993
3.1705372271504033,17.11146179401993
3.1715339380045844,15.111461794019931
3.172530648858766,10.111461794019931
3.173527359712947,4.111461794019931
3.174524070567128,-17.88853820598007
3.1755207814213096,-27.88853820598007
3.1765174922754906,-18.88853820598007
3.1775142031296717,-2.888538205980069
3.178510913983853,-7.888538205980069
3.1795076248380343,-15.888538205980069
3.1805043356922154,-26.88853820598007
3.1815010465463964,-30.88853820598007
3.182497757400578,-4.888538205980069
3.183494468254759,-6.888538205980069
