Time,EMG
0.0,-38.05458471760795
0.000996710854181202,-19.054584717607952
0.001993421708362404,-9.054584717607952
0.002990132562543606,-24.054584717607952
0.003986843416724808,-23.054584717607952
0.00498355427090601,-3.054584717607952
0.005980265125087212,20.945415282392048
0.006976975979268414,22.945415282392048
0.007973686833449616,23.945415282392048
0.008970397687630818,26.945415282392048
0.00996710854181202,32.94541528239205
0.01096381939599322,22.945415282392048
0.011960530250174423,19.945415282392048
0.012957241104355626,7.945415282392048
0.013953951958536827,8.945415282392048
0.014950662812718028,-9.054584717607952
0.01594737366689923,-10.054584717607952
0.016944084521080434,-16.054584717607952
0.017940795375261637,-24.054584717607952
0.018937506229442836,-29.054584717607952
0.01993421708362404,-29.054584717607952
0.02093092793780524,-10.054584717607952
0.02192763879198644,-13.054584717607952
0.022924349646167644,-15.054584717607952
0.023921060500348847,-20.054584717607952
0.02491777135453005,-0.054584717607951916
0.025914482208711252,8.945415282392048
0.02691119306289245,1.945415282392048
0.027907903917073654,18.945415282392048
0.028904614771254857,38.94541528239205
0.029901325625436057,32.94541528239205
0.03089803647961726,11.945415282392048
0.03189474733379846,5.945415282392048
0.032891458187979665,24.945415282392048
0.03388816904216087,40.94541528239205
0.03488487989634207,5.945415282392048
0.03588159075052327,-20.054584717607952
0.03687830160470447,-31.054584717607952
0.03787501245888567,-31.054584717607952
0.038871723313066875,-30.054584717607952
0.03986843416724808,-29.054584717607952
0.04086514502142928,-13.054584717607952
0.04186185587561048,-11.054584717607952
0.042858566729791686,-10.054584717607952
0.04385527758397288,-18.054584717607952
0.044851988438154085,-0.054584717607951916
0.04584869929233529,14.945415282392048
0.04684541014651649,5.945415282392048
0.04784212100069769,14.945415282392048
0.048838831854878896,27.945415282392048
0.0498355427090601,27.945415282392048
0.0508322535632413,23.945415282392048
0.051828964417422504,11.945415282392048
0.0528256752716037,16.945415282392048
0.0538223861257849,24.945415282392048
0.054819096979966106,-0.054584717607951916
0.05581580783414731,-17.054584717607952
0.05681251868832851,-16.054584717607952
0.057809229542509714,-27.054584717607952
0.05880594039669092,-31.054584717607952
0.05980265125087211,-32.05458471760795
0.060799362105053316,-17.054584717607952
0.06179607295923452,-9.054584717607952
0.06279278381341573,-2.054584717607952
0.06378949466759692,-13.054584717607952
0.06478620552177812,-0.054584717607951916
0.06578291637595933,9.945415282392048
0.06677962723014053,11.945415282392048
0.06777633808432174,26.945415282392048
0.06877304893850293,32.94541528239205
0.06976975979268414,43.94541528239205
0.07076647064686534,32.94541528239205
0.07176318150104655,15.945415282392048
0.07275989235522774,0.9454152823920481
0.07375660320940894,-3.054584717607952
0.07475331406359015,-13.054584717607952
0.07575002491777134,-11.054584717607952
0.07674673577195255,-4.054584717607952
0.07774344662613375,-16.054584717607952
0.07874015748031496,-27.054584717607952
0.07973686833449616,-28.054584717607952
0.08073357918867735,-16.054584717607952
0.08173029004285856,-10.054584717607952
0.08272700089703976,-14.054584717607952
0.08372371175122097,-21.054584717607952
0.08472042260540216,-13.054584717607952
0.08571713345958337,-0.054584717607951916
0.08671384431376457,9.945415282392048
0.08771055516794576,21.945415282392048
0.08870726602212697,20.945415282392048
0.08970397687630817,27.945415282392048
0.09070068773048938,31.945415282392048
0.09169739858467058,40.94541528239205
0.09269410943885178,33.94541528239205
0.09369082029303298,22.945415282392048
0.09468753114721419,-7.054584717607952
0.09568424200139539,-24.054584717607952
0.09668095285557658,-27.054584717607952
0.09767766370975779,-34.05458471760795
0.09867437456393899,-33.05458471760795
0.0996710854181202,-27.054584717607952
0.1006677962723014,-10.054584717607952
0.1016645071264826,-0.054584717607951916
0.1026612179806638,-9.054584717607952
0.10365792883484501,-23.054584717607952
0.1046546396890262,-9.054584717607952
0.1056513505432074,15.945415282392048
0.10664806139738861,11.945415282392048
0.1076447722515698,4.945415282392048
0.10864148310575102,16.945415282392048
0.10963819395993221,31.945415282392048
0.11063490481411342,34.94541528239205
0.11163161566829462,29.945415282392048
0.11262832652247581,12.945415282392048
0.11362503737665702,9.945415282392048
0.11462174823083822,-0.054584717607951916
0.11561845908501943,-4.054584717607952
0.11661516993920062,-8.054584717607952
0.11761188079338183,-29.054584717607952
0.11860859164756303,-41.05458471760795
0.11960530250174423,-18.054584717607952
0.12060201335592544,0.9454152823920481
0.12159872421010663,-12.054584717607952
0.12259543506428784,-21.054584717607952
0.12359214591846904,-10.054584717607952
0.12458885677265025,-9.054584717607952
0.12558556762683146,-6.054584717607952
0.12658227848101264,0.9454152823920481
0.12757898933519385,15.945415282392048
0.12857570018937506,28.945415282392048
0.12957241104355624,28.945415282392048
0.13056912189773745,24.945415282392048
0.13156583275191866,18.945415282392048
0.13256254360609987,21.945415282392048
0.13355925446028105,19.945415282392048
0.13455596531446226,-7.054584717607952
0.13555267616864347,-21.054584717607952
0.13654938702282465,-20.054584717607952
0.13754609787700586,-15.054584717607952
0.13854280873118707,-27.054584717607952
0.13953951958536828,-32.05458471760795
0.14053623043954946,-31.054584717607952
0.14153294129373067,-24.054584717607952
0.14252965214791188,-20.054584717607952
0.1435263630020931,-16.054584717607952
0.14452307385627428,6.945415282392048
0.14551978471045549,24.945415282392048
0.1465164955646367,26.945415282392048
0.14751320641881788,26.945415282392048
0.1485099172729991,26.945415282392048
0.1495066281271803,29.945415282392048
0.1505033389813615,20.945415282392048
0.1515000498355427,10.945415282392048
0.1524967606897239,7.945415282392048
0.1534934715439051,3.945415282392048
0.1544901823980863,-5.054584717607952
0.1554868932522675,-16.054584717607952
0.1564836041064487,-9.054584717607952
0.15748031496062992,-15.054584717607952
0.1584770258148111,-25.054584717607952
0.1594737366689923,-23.054584717607952
0.16047044752317352,-21.054584717607952
0.1614671583773547,-17.054584717607952
0.1624638692315359,-10.054584717607952
0.16346058008571712,-11.054584717607952
0.16445729093989833,6.945415282392048
0.1654540017940795,14.945415282392048
0.16645071264826072,8.945415282392048
0.16744742350244193,15.945415282392048
0.16844413435662312,21.945415282392048
0.16944084521080433,26.945415282392048
0.17043755606498553,23.945415282392048
0.17143426691916674,11.945415282392048
0.17243097777334793,5.945415282392048
0.17342768862752914,10.945415282392048
0.17442439948171035,-3.054584717607952
0.17542111033589153,-8.054584717607952
0.17641782119007274,-4.054584717607952
0.17741453204425395,-16.054584717607952
0.17841124289843516,-19.054584717607952
0.17940795375261634,-32.05458471760795
0.18040466460679755,-21.054584717607952
0.18140137546097876,-8.054584717607952
0.18239808631515997,-9.054584717607952
0.18339479716934115,-18.054584717607952
0.18439150802352236,-7.054584717607952
0.18538821887770357,7.945415282392048
0.18638492973188475,4.945415282392048
0.18738164058606596,10.945415282392048
0.18837835144024717,24.945415282392048
0.18937506229442838,31.945415282392048
0.19037177314860956,31.945415282392048
0.19136848400279077,28.945415282392048
0.19236519485697198,28.945415282392048
0.19336190571115316,22.945415282392048
0.19435861656533437,0.9454152823920481
0.19535532741951558,-28.054584717607952
0.1963520382736968,-30.054584717607952
0.19734874912787798,-32.05458471760795
0.19834545998205919,-30.054584717607952
0.1993421708362404,-23.054584717607952
0.20033888169042158,-21.054584717607952
0.2013355925446028,-12.054584717607952
0.202332303398784,-7.054584717607952
0.2033290142529652,-14.054584717607952
0.2043257251071464,2.945415282392048
0.2053224359613276,9.945415282392048
0.2063191468155088,7.945415282392048
0.20731585766969002,17.945415282392048
0.2083125685238712,33.94541528239205
0.2093092793780524,28.945415282392048
0.21030599023223362,16.945415282392048
0.2113027010864148,9.945415282392048
0.212299411940596,10.945415282392048
0.21329612279477722,13.945415282392048
0.21429283364895843,-3.054584717607952
0.2152895445031396,-6.054584717607952
0.21628625535732082,-12.054584717607952
0.21728296621150203,-20.054584717607952
0.21827967706568321,-31.054584717607952
0.21927638791986442,-27.054584717607952
0.22027309877404563,-20.054584717607952
0.22126980962822684,-12.054584717607952
0.22226652048240803,-8.054584717607952
0.22326323133658924,-11.054584717607952
0.22425994219077044,-7.054584717607952
0.22525665304495163,14.945415282392048
0.22625336389913284,12.945415282392048
0.22725007475331405,5.945415282392048
0.22824678560749526,10.945415282392048
0.22924349646167644,33.94541528239205
0.23024020731585765,39.94541528239205
0.23123691817003886,19.945415282392048
0.23223362902422004,13.945415282392048
0.23323033987840125,20.945415282392048
0.23422705073258246,-6.054584717607952
0.23522376158676367,-8.054584717607952
0.23622047244094485,-1.054584717607952
0.23721718329512606,-21.054584717607952
0.23821389414930727,-30.054584717607952
0.23921060500348845,-33.05458471760795
0.24020731585766966,-30.054584717607952
0.24120402671185087,-26.054584717607952
0.24220073756603208,-15.054584717607952
0.24319744842021326,-11.054584717607952
0.24419415927439447,-1.054584717607952
0.24519087012857568,13.945415282392048
0.2461875809827569,8.945415282392048
0.24718429183693807,18.945415282392048
0.24818100269111928,22.945415282392048
0.2491777135453005,34.94541528239205
0.2501744243994817,32.94541528239205
0.2511711352536629,16.945415282392048
0.2521678461078441,2.945415282392048
0.2531645569620253,13.945415282392048
0.2541612678162065,-4.054584717607952
0.2551579786703877,-13.054584717607952
0.2561546895245689,-10.054584717607952
0.2571514003787501,-18.054584717607952
0.2581481112329313,-26.054584717607952
0.2591448220871125,-24.054584717607952
0.2601415329412937,-20.054584717607952
0.2611382437954749,-14.054584717607952
0.26213495464965614,-7.054584717607952
0.2631316655038373,-12.054584717607952
0.2641283763580185,-8.054584717607952
0.26512508721219974,0.9454152823920481
0.2661217980663809,7.945415282392048
0.2671185089205621,21.945415282392048
0.26811521977474334,32.94541528239205
0.2691119306289245,40.94541528239205
0.2701086414831057,29.945415282392048
0.27110535233728694,13.945415282392048
0.2721020631914681,5.945415282392048
0.2730987740456493,6.945415282392048
0.27409548489983054,-11.054584717607952
0.2750921957540117,-18.054584717607952
0.27608890660819296,-20.054584717607952
0.27708561746237415,-16.054584717607952
0.2780823283165553,-19.054584717607952
0.27907903917073656,-16.054584717607952
0.28007575002491775,-20.054584717607952
0.28107246087909893,-15.054584717607952
0.28206917173328017,-14.054584717607952
0.28306588258746135,-23.054584717607952
0.28406259344164253,-2.054584717607952
0.28505930429582377,12.945415282392048
0.28605601515000495,14.945415282392048
0.2870527260041862,26.945415282392048
0.28804943685836737,28.945415282392048
0.28904614771254855,29.945415282392048
0.2900428585667298,28.945415282392048
0.29103956942091097,11.945415282392048
0.29203628027509215,5.945415282392048
0.2930329911292734,5.945415282392048
0.29402970198345457,-12.054584717607952
0.29502641283763575,-14.054584717607952
0.296023123691817,-5.054584717607952
0.2970198345459982,-21.054584717607952
0.29801654540017936,-26.054584717607952
0.2990132562543606,-22.054584717607952
0.3000099671085418,-22.054584717607952
0.301006677962723,-11.054584717607952
0.3020033888169042,-5.054584717607952
0.3030000996710854,-0.054584717607951916
0.3039968105252666,13.945415282392048
0.3049935213794478,25.945415282392048
0.305990232233629,9.945415282392048
0.3069869430878102,17.945415282392048
0.3079836539419914,22.945415282392048
0.3089803647961726,21.945415282392048
0.3099770756503538,16.945415282392048
0.310973786504535,18.945415282392048
0.3119704973587162,13.945415282392048
0.3129672082128974,12.945415282392048
0.3139639190670786,-4.054584717607952
0.31496062992125984,-16.054584717607952
0.315957340775441,-19.054584717607952
0.3169540516296222,-36.05458471760795
0.31795076248380344,-42.05458471760795
0.3189474733379846,-37.05458471760795
0.3199441841921658,-25.054584717607952
0.32094089504634704,-9.054584717607952
0.3219376059005282,-7.054584717607952
0.3229343167547094,-10.054584717607952
0.32393102760889064,7.945415282392048
0.3249277384630718,19.945415282392048
0.32592444931725306,19.945415282392048
0.32692116017143424,17.945415282392048
0.3279178710256154,26.945415282392048
0.32891458187979666,34.94541528239205
0.32991129273397785,21.945415282392048
0.330908003588159,0.9454152823920481
0.33190471444234027,2.945415282392048
0.33290142529652145,10.945415282392048
0.33389813615070263,-5.054584717607952
0.33489484700488387,-15.054584717607952
0.33589155785906505,-19.054584717607952
0.33688826871324623,-17.054584717607952
0.33788497956742747,-10.054584717607952
0.33888169042160865,-15.054584717607952
0.3398784012757899,-27.054584717607952
0.34087511212997107,-30.054584717607952
0.34187182298415225,-18.054584717607952
0.3428685338383335,-8.054584717607952
0.34386524469251467,11.945415282392048
0.34486195554669585,19.945415282392048
0.3458586664008771,8.945415282392048
0.3468553772550583,14.945415282392048
0.34785208810923945,22.945415282392048
0.3488487989634207,26.945415282392048
0.3498455098176019,20.945415282392048
0.35084222067178306,14.945415282392048
0.3518389315259643,13.945415282392048
0.3528356423801455,15.945415282392048
0.3538323532343267,-3.054584717607952
0.3548290640885079,-18.054584717607952
0.3558257749426891,-21.054584717607952
0.3568224857968703,-33.05458471760795
0.3578191966510515,-31.054584717607952
0.3588159075052327,-34.05458471760795
0.3598126183594139,-15.054584717607952
0.3608093292135951,-1.054584717607952
0.3618060400677763,3.945415282392048
0.3628027509219575,-9.054584717607952
0.3637994617761387,-4.054584717607952
0.36479617263031994,-3.054584717607952
0.3657928834845011,6.945415282392048
0.3667895943386823,29.945415282392048
0.36778630519286354,28.945415282392048
0.3687830160470447,35.94541528239205
0.3697797269012259,35.94541528239205
0.37077643775540714,29.945415282392048
0.3717731486095883,12.945415282392048
0.3727698594637695,-0.054584717607951916
0.37376657031795074,-22.054584717607952
0.3747632811721319,-33.05458471760795
0.3757599920263131,-36.05458471760795
0.37675670288049434,-27.054584717607952
0.3777534137346755,-14.054584717607952
0.37875012458885676,-15.054584717607952
0.37974683544303794,-19.054584717607952
0.3807435462972191,-20.054584717607952
0.38174025715140036,-11.054584717607952
0.38273696800558155,-9.054584717607952
0.38373367885976273,7.945415282392048
0.38473038971394397,8.945415282392048
0.38572710056812515,18.945415282392048
0.38672381142230633,34.94541528239205
0.38772052227648757,31.945415282392048
0.38871723313066875,25.945415282392048
0.38971394398485,16.945415282392048
0.39071065483903117,5.945415282392048
0.39170736569321235,8.945415282392048
0.3927040765473936,16.945415282392048
0.39370078740157477,0.9454152823920481
0.39469749825575595,-4.054584717607952
0.3956942091099372,-9.054584717607952
0.39669091996411837,-25.054584717607952
0.39768763081829955,-36.05458471760795
0.3986843416724808,-32.05458471760795
0.399681052526662,-23.054584717607952
0.40067776338084315,-18.054584717607952
0.4016744742350244,-12.054584717607952
0.4026711850892056,-20.054584717607952
0.4036678959433868,0.9454152823920481
0.404664606797568,21.945415282392048
0.4056613176517492,16.945415282392048
0.4066580285059304,15.945415282392048
0.4076547393601116,22.945415282392048
0.4086514502142928,33.94541528239205
0.409648161068474,30.945415282392048
0.4106448719226552,22.945415282392048
0.4116415827768364,26.945415282392048
0.4126382936310176,21.945415282392048
0.4136350044851988,-8.054584717607952
0.41463171533938004,-30.054584717607952
0.4156284261935612,-24.054584717607952
0.4166251370477424,-26.054584717607952
0.41762184790192364,-40.05458471760795
0.4186185587561048,-31.054584717607952
0.419615269610286,-20.054584717607952
0.42061198046446724,-20.054584717607952
0.4216086913186484,-15.054584717607952
0.4226054021728296,-11.054584717607952
0.42360211302701084,-1.054584717607952
0.424598823881192,18.945415282392048
0.4255955347353732,16.945415282392048
0.42659224558955444,19.945415282392048
0.4275889564437356,28.945415282392048
0.42858566729791686,36.94541528239205
0.42958237815209804,26.945415282392048
0.4305790890062792,16.945415282392048
0.43157579986046046,11.945415282392048
0.43257251071464164,8.945415282392048
0.4335692215688228,-10.054584717607952
0.43456593242300406,-15.054584717607952
0.43556264327718525,-15.054584717607952
0.43655935413136643,-20.054584717607952
0.43755606498554767,-28.054584717607952
0.43855277583972885,-26.054584717607952
0.43954948669391003,-20.054584717607952
0.44054619754809127,-16.054584717607952
0.44154290840227245,-18.054584717607952
0.4425396192564537,-18.054584717607952
0.44353633011063487,5.945415282392048
0.44453304096481605,11.945415282392048
0.4455297518189973,18.945415282392048
0.44652646267317847,22.945415282392048
0.44752317352735965,25.945415282392048
0.4485198843815409,39.94541528239205
0.44951659523572207,34.94541528239205
0.45051330608990325,8.945415282392048
0.4515100169440845,5.945415282392048
0.4525067277982657,13.945415282392048
0.4535034386524469,-3.054584717607952
0.4545001495066281,-12.054584717607952
0.4554968603608093,-12.054584717607952
0.4564935712149905,-18.054584717607952
0.4574902820691717,-20.054584717607952
0.4584869929233529,-29.054584717607952
0.4594837037775341,-34.05458471760795
0.4604804146317153,-22.054584717607952
0.4614771254858965,-15.054584717607952
0.4624738363400777,-17.054584717607952
0.4634705471942589,5.945415282392048
0.4644672580484401,31.945415282392048
0.4654639689026213,22.945415282392048
0.4664606797568025,15.945415282392048
0.46745739061098374,27.945415282392048
0.4684541014651649,28.945415282392048
0.4694508123193461,19.945415282392048
0.47044752317352734,12.945415282392048
0.4714442340277085,2.945415282392048
0.4724409448818897,7.945415282392048
0.47343765573607094,-4.054584717607952
0.4744343665902521,-12.054584717607952
0.4754310774444333,-18.054584717607952
0.47642778829861454,-26.054584717607952
0.4774244991527957,-26.054584717607952
0.4784212100069769,-26.054584717607952
0.47941792086115814,-24.054584717607952
0.4804146317153393,-4.054584717607952
0.48141134256952056,-4.054584717607952
0.48240805342370174,-26.054584717607952
0.4834047642778829,-11.054584717607952
0.48440147513206416,0.9454152823920481
0.48539818598624535,9.945415282392048
0.4863948968404265,23.945415282392048
0.48739160769460776,30.945415282392048
0.48838831854878895,27.945415282392048
0.48938502940297013,21.945415282392048
0.49038174025715137,16.945415282392048
0.49137845111133255,20.945415282392048
0.4923751619655138,11.945415282392048
0.49337187281969497,-1.054584717607952
0.49436858367387615,-15.054584717607952
0.4953652945280574,-8.054584717607952
0.49636200538223857,-26.054584717607952
0.49735871623641975,-34.05458471760795
0.498355427090601,-24.054584717607952
0.49935213794478217,-15.054584717607952
0.5003488487989634,-11.054584717607952
0.5013455596531445,-5.054584717607952
0.5023422705073258,-5.054584717607952
0.503338981361507,12.945415282392048
0.5043356922156882,16.945415282392048
0.5053324030698694,1.945415282392048
0.5063291139240506,-0.054584717607951916
0.5073258247782317,8.945415282392048
0.508322535632413,24.945415282392048
0.5093192464865942,19.945415282392048
0.5103159573407754,22.945415282392048
0.5113126681949566,15.945415282392048
0.5123093790491378,10.945415282392048
0.513306089903319,1.945415282392048
0.5143028007575002,-7.054584717607952
0.5152995116116814,-13.054584717607952
0.5162962224658626,-27.054584717607952
0.5172929333200438,-43.05458471760795
0.518289644174225,-38.05458471760795
0.5192863550284063,-27.054584717607952
0.5202830658825874,-2.054584717607952
0.5212797767367686,-0.054584717607951916
0.5222764875909498,-14.054584717607952
0.523273198445131,0.9454152823920481
0.5242699092993123,11.945415282392048
0.5252666201534935,9.945415282392048
0.5262633310076746,24.945415282392048
0.5272600418618558,34.94541528239205
0.528256752716037,37.94541528239205
0.5292534635702182,29.945415282392048
0.5302501744243995,10.945415282392048
0.5312468852785807,-7.054584717607952
0.5322435961327618,2.945415282392048
0.533240306986943,-11.054584717607952
0.5342370178411242,-22.054584717607952
0.5352337286953054,-15.054584717607952
0.5362304395494867,-9.054584717607952
0.5372271504036679,-10.054584717607952
0.538223861257849,-20.054584717607952
0.5392205721120302,-20.054584717607952
0.5402172829662114,-20.054584717607952
0.5412139938203927,-8.054584717607952
0.5422107046745739,-12.054584717607952
0.5432074155287551,0.9454152823920481
0.5442041263829362,12.945415282392048
0.5452008372371174,12.945415282392048
0.5461975480912986,23.945415282392048
0.5471942589454799,27.945415282392048
0.5481909697996611,22.945415282392048
0.5491876806538423,15.945415282392048
0.5501843915080235,16.945415282392048
0.5511811023622046,11.945415282392048
0.5521778132163859,8.945415282392048
0.5531745240705671,-11.054584717607952
0.5541712349247483,-20.054584717607952
0.5551679457789295,-21.054584717607952
0.5561646566331107,-8.054584717607952
0.5571613674872918,-15.054584717607952
0.5581580783414731,-31.054584717607952
0.5591547891956543,-35.05458471760795
0.5601515000498355,-20.054584717607952
0.5611482109040167,13.945415282392048
0.5621449217581979,8.945415282392048
0.5631416326123792,6.945415282392048
0.5641383434665603,4.945415282392048
0.5651350543207415,-4.054584717607952
0.5661317651749227,19.945415282392048
0.5671284760291039,37.94541528239205
0.5681251868832851,35.94541528239205
0.5691218977374664,26.945415282392048
0.5701186085916475,22.945415282392048
0.5711153194458287,1.945415282392048
0.5721120303000099,-2.054584717607952
0.5731087411541911,-8.054584717607952
0.5741054520083724,-19.054584717607952
0.5751021628625536,-18.054584717607952
0.5760988737167347,-23.054584717607952
0.5770955845709159,-26.054584717607952
0.5780922954250971,-19.054584717607952
0.5790890062792783,-16.054584717607952
0.5800857171334596,-12.054584717607952
0.5810824279876408,-18.054584717607952
0.5820791388418219,-14.054584717607952
0.5830758496960031,18.945415282392048
0.5840725605501843,24.945415282392048
0.5850692714043655,14.945415282392048
0.5860659822585468,8.945415282392048
0.587062693112728,11.945415282392048
0.5880594039669091,19.945415282392048
0.5890561148210903,19.945415282392048
0.5900528256752715,14.945415282392048
0.5910495365294528,10.945415282392048
0.592046247383634,23.945415282392048
0.5930429582378152,7.945415282392048
0.5940396690919963,-18.054584717607952
0.5950363799461775,-23.054584717607952
0.5960330908003587,-29.054584717607952
0.59702980165454,-41.05458471760795
0.5980265125087212,-33.05458471760795
0.5990232233629024,-18.054584717607952
0.6000199342170836,-9.054584717607952
0.6010166450712647,-8.054584717607952
0.602013355925446,-14.054584717607952
0.6030100667796272,9.945415282392048
0.6040067776338084,23.945415282392048
0.6050034884879896,22.945415282392048
0.6060001993421708,28.945415282392048
0.6069969101963519,23.945415282392048
0.6079936210505332,20.945415282392048
0.6089903319047144,23.945415282392048
0.6099870427588956,10.945415282392048
0.6109837536130768,5.945415282392048
0.611980464467258,0.9454152823920481
0.6129771753214392,-12.054584717607952
0.6139738861756204,-4.054584717607952
0.6149705970298016,-15.054584717607952
0.6159673078839828,-26.054584717607952
0.616964018738164,-24.054584717607952
0.6179607295923452,-15.054584717607952
0.6189574404465265,-23.054584717607952
0.6199541513007076,-13.054584717607952
0.6209508621548888,-12.054584717607952
0.62194757300907,-18.054584717607952
0.6229442838632512,-3.054584717607952
0.6239409947174324,14.945415282392048
0.6249377055716137,11.945415282392048
0.6259344164257948,16.945415282392048
0.626931127279976,27.945415282392048
0.6279278381341572,25.945415282392048
0.6289245489883384,24.945415282392048
0.6299212598425197,14.945415282392048
0.6309179706967009,7.945415282392048
0.631914681550882,12.945415282392048
0.6329113924050632,-12.054584717607952
0.6339081032592444,-19.054584717607952
0.6349048141134256,-11.054584717607952
0.6359015249676069,-20.054584717607952
0.6368982358217881,-27.054584717607952
0.6378949466759692,-20.054584717607952
0.6388916575301504,-12.054584717607952
0.6398883683843316,-10.054584717607952
0.6408850792385129,-14.054584717607952
0.6418817900926941,-14.054584717607952
0.6428785009468753,5.945415282392048
0.6438752118010564,5.945415282392048
0.6448719226552376,7.945415282392048
0.6458686335094188,16.945415282392048
0.6468653443636001,23.945415282392048
0.6478620552177813,28.945415282392048
0.6488587660719625,18.945415282392048
0.6498554769261436,19.945415282392048
0.6508521877803248,21.945415282392048
0.6518488986345061,29.945415282392048
0.6528456094886873,3.945415282392048
0.6538423203428685,-17.054584717607952
0.6548390311970497,-22.054584717607952
0.6558357420512309,-28.054584717607952
0.656832452905412,-24.054584717607952
0.6578291637595933,-25.054584717607952
0.6588258746137745,-23.054584717607952
0.6598225854679557,-28.054584717607952
0.6608192963221369,-16.054584717607952
0.661816007176318,-19.054584717607952
0.6628127180304992,-3.054584717607952
0.6638094288846805,15.945415282392048
0.6648061397388617,17.945415282392048
0.6658028505930429,13.945415282392048
0.6667995614472241,17.945415282392048
0.6677962723014053,29.945415282392048
0.6687929831555866,32.94541528239205
0.6697896940097677,24.945415282392048
0.6707864048639489,7.945415282392048
0.6717831157181301,17.945415282392048
0.6727798265723113,5.945415282392048
0.6737765374264925,-6.054584717607952
0.6747732482806738,-8.054584717607952
0.6757699591348549,-21.054584717607952
0.6767666699890361,-25.054584717607952
0.6777633808432173,-35.05458471760795
0.6787600916973985,-35.05458471760795
0.6797568025515798,-19.054584717607952
0.680753513405761,-18.054584717607952
0.6817502242599421,-15.054584717607952
0.6827469351141233,-8.054584717607952
0.6837436459683045,4.945415282392048
0.6847403568224857,19.945415282392048
0.685737067676667,37.94541528239205
0.6867337785308482,34.94541528239205
0.6877304893850293,28.945415282392048
0.6887272002392105,19.945415282392048
0.6897239110933917,11.945415282392048
0.690720621947573,14.945415282392048
0.6917173328017542,22.945415282392048
0.6927140436559354,6.945415282392048
0.6937107545101165,-15.054584717607952
0.6947074653642977,-15.054584717607952
0.6957041762184789,-31.054584717607952
0.6967008870726602,-37.05458471760795
0.6976975979268414,-29.054584717607952
0.6986943087810226,-23.054584717607952
0.6996910196352037,-8.054584717607952
0.7006877304893849,-6.054584717607952
0.7016844413435661,-13.054584717607952
0.7026811521977474,-1.054584717607952
0.7036778630519286,19.945415282392048
0.7046745739061098,12.945415282392048
0.705671284760291,17.945415282392048
0.7066679956144721,23.945415282392048
0.7076647064686534,27.945415282392048
0.7086614173228346,25.945415282392048
0.7096581281770158,14.945415282392048
0.710654839031197,4.945415282392048
0.7116515498853782,4.945415282392048
0.7126482607395593,-11.054584717607952
0.7136449715937406,-17.054584717607952
0.7146416824479218,-14.054584717607952
0.715638393302103,-12.054584717607952
0.7166351041562842,-23.054584717607952
0.7176318150104654,-26.054584717607952
0.7186285258646467,-27.054584717607952
0.7196252367188278,-13.054584717607952
0.720621947573009,-10.054584717607952
0.7216186584271902,-0.054584717607951916
0.7226153692813714,8.945415282392048
0.7236120801355526,18.945415282392048
0.7246087909897339,11.945415282392048
0.725605501843915,15.945415282392048
0.7266022126980962,12.945415282392048
0.7275989235522774,8.945415282392048
0.7285956344064586,11.945415282392048
0.7295923452606399,20.945415282392048
0.7305890561148211,16.945415282392048
0.7315857669690022,13.945415282392048
0.7325824778231834,1.945415282392048
0.7335791886773646,-2.054584717607952
0.7345758995315458,-7.054584717607952
0.7355726103857271,-19.054584717607952
0.7365693212399083,-36.05458471760795
0.7375660320940894,-31.054584717607952
0.7385627429482706,-21.054584717607952
0.7395594538024518,-11.054584717607952
0.7405561646566331,-10.054584717607952
0.7415528755108143,-7.054584717607952
0.7425495863649955,6.945415282392048
0.7435462972191766,9.945415282392048
0.7445430080733578,4.945415282392048
0.745539718927539,21.945415282392048
0.7465364297817203,24.945415282392048
0.7475331406359015,21.945415282392048
0.7485298514900827,18.945415282392048
0.7495265623442638,16.945415282392048
0.750523273198445,11.945415282392048
0.7515199840526262,15.945415282392048
0.7525166949068075,-1.054584717607952
0.7535134057609887,-6.054584717607952
0.7545101166151699,-10.054584717607952
0.755506827469351,-24.054584717607952
0.7565035383235322,-28.054584717607952
0.7575002491777135,-33.05458471760795
0.7584969600318947,-22.054584717607952
0.7594936708860759,-17.054584717607952
0.7604903817402571,-16.054584717607952
0.7614870925944383,-21.054584717607952
0.7624838034486194,-7.054584717607952
0.7634805143028007,6.945415282392048
0.7644772251569819,8.945415282392048
0.7654739360111631,16.945415282392048
0.7664706468653443,35.94541528239205
0.7674673577195255,33.94541528239205
0.7684640685737067,26.945415282392048
0.7694607794278879,27.945415282392048
0.7704574902820691,14.945415282392048
0.7714542011362503,12.945415282392048
0.7724509119904315,-4.054584717607952
0.7734476228446127,-15.054584717607952
0.774444333698794,-15.054584717607952
0.7754410445529751,-23.054584717607952
0.7764377554071563,-30.054584717607952
0.7774344662613375,-21.054584717607952
0.7784311771155187,-11.054584717607952
0.7794278879697,-25.054584717607952
0.7804245988238812,-22.054584717607952
0.7814213096780623,-9.054584717607952
0.7824180205322435,15.945415282392048
0.7834147313864247,13.945415282392048
0.7844114422406059,12.945415282392048
0.7854081530947872,22.945415282392048
0.7864048639489684,23.945415282392048
0.7874015748031495,18.945415282392048
0.7883982856573307,15.945415282392048
0.7893949965115119,11.945415282392048
0.7903917073656931,15.945415282392048
0.7913884182198744,12.945415282392048
0.7923851290740556,-7.054584717607952
0.7933818399282367,-16.054584717607952
0.7943785507824179,-15.054584717607952
0.7953752616365991,-26.054584717607952
0.7963719724907804,-25.054584717607952
0.7973686833449616,-27.054584717607952
0.7983653941991428,-16.054584717607952
0.799362105053324,-9.054584717607952
0.8003588159075051,-7.054584717607952
0.8013555267616863,-15.054584717607952
0.8023522376158676,-2.054584717607952
0.8033489484700488,9.945415282392048
0.80434565932423,13.945415282392048
0.8053423701784111,29.945415282392048
0.8063390810325923,31.945415282392048
0.8073357918867736,33.94541528239205
0.8083325027409548,20.945415282392048
0.809329213595136,13.945415282392048
0.8103259244493172,9.945415282392048
0.8113226353034984,18.945415282392048
0.8123193461576795,-10.054584717607952
0.8133160570118608,-29.054584717607952
0.814312767866042,-20.054584717607952
0.8153094787202232,-22.054584717607952
0.8163061895744044,-35.05458471760795
0.8173029004285856,-38.05458471760795
0.8182996112827668,-20.054584717607952
0.819296322136948,-9.054584717607952
0.8202930329911292,-7.054584717607952
0.8212897438453104,-20.054584717607952
0.8222864546994916,-0.054584717607951916
0.8232831655536728,18.945415282392048
0.824279876407854,22.945415282392048
0.8252765872620352,32.94541528239205
0.8262732981162164,31.945415282392048
0.8272700089703976,31.945415282392048
0.8282667198245788,25.945415282392048
0.8292634306787601,10.945415282392048
0.8302601415329413,4.945415282392048
0.8312568523871224,14.945415282392048
0.8322535632413036,-1.054584717607952
0.8332502740954848,-15.054584717607952
0.834246984949666,-17.054584717607952
0.8352436958038473,-29.054584717607952
0.8362404066580285,-32.05458471760795
0.8372371175122096,-26.054584717607952
0.8382338283663908,-11.054584717607952
0.839230539220572,-6.054584717607952
0.8402272500747532,-8.054584717607952
0.8412239609289345,-12.054584717607952
0.8422206717831157,3.945415282392048
0.8432173826372968,13.945415282392048
0.844214093491478,10.945415282392048
0.8452108043456592,16.945415282392048
0.8462075151998405,26.945415282392048
0.8472042260540217,27.945415282392048
0.8482009369082029,21.945415282392048
0.849197647762384,15.945415282392048
0.8501943586165652,9.945415282392048
0.8511910694707464,5.945415282392048
0.8521877803249277,-0.054584717607951916
0.8531844911791089,-14.054584717607952
0.8541812020332901,-13.054584717607952
0.8551779128874712,-18.054584717607952
0.8561746237416524,-39.05458471760795
0.8571713345958337,-28.054584717607952
0.8581680454500149,-21.054584717607952
0.8591647563041961,-15.054584717607952
0.8601614671583773,-4.054584717607952
0.8611581780125585,-4.054584717607952
0.8621548888667396,4.945415282392048
0.8631515997209209,12.945415282392048
0.8641483105751021,6.945415282392048
0.8651450214292833,4.945415282392048
0.8661417322834645,16.945415282392048
0.8671384431376457,23.945415282392048
0.868135153991827,23.945415282392048
0.8691318648460081,19.945415282392048
0.8701285757001893,10.945415282392048
0.8711252865543705,7.945415282392048
0.8721219974085517,0.9454152823920481
0.8731187082627329,-7.054584717607952
0.8741154191169141,-2.054584717607952
0.8751121299710953,-12.054584717607952
0.8761088408252765,-25.054584717607952
0.8771055516794577,-34.05458471760795
0.8781022625336389,-28.054584717607952
0.8790989733878201,-12.054584717607952
0.8800956842420014,-9.054584717607952
0.8810923950961825,-11.054584717607952
0.8820891059503637,11.945415282392048
0.8830858168045449,17.945415282392048
0.8840825276587261,5.945415282392048
0.8850792385129074,17.945415282392048
0.8860759493670886,15.945415282392048
0.8870726602212697,24.945415282392048
0.8880693710754509,28.945415282392048
0.8890660819296321,20.945415282392048
0.8900627927838133,8.945415282392048
0.8910595036379946,5.945415282392048
0.8920562144921758,-11.054584717607952
0.8930529253463569,-20.054584717607952
0.8940496362005381,-11.054584717607952
0.8950463470547193,-10.054584717607952
0.8960430579089006,-27.054584717607952
0.8970397687630818,-31.054584717607952
0.898036479617263,-23.054584717607952
0.8990331904714441,-13.054584717607952
0.9000299013256253,-7.054584717607952
0.9010266121798065,-9.054584717607952
0.9020233230339878,3.945415282392048
0.903020033888169,11.945415282392048
0.9040167447423502,10.945415282392048
0.9050134555965313,22.945415282392048
0.9060101664507125,24.945415282392048
0.9070068773048938,28.945415282392048
0.908003588159075,41.94541528239205
0.9090002990132562,19.945415282392048
0.9099970098674374,-2.054584717607952
0.9109937207216185,-1.054584717607952
0.9119904315757997,-10.054584717607952
0.912987142429981,-26.054584717607952
0.9139838532841622,-35.05458471760795
0.9149805641383434,-18.054584717607952
0.9159772749925246,-11.054584717607952
0.9169739858467058,-16.054584717607952
0.9179706967008869,-11.054584717607952
0.9189674075550682,-8.054584717607952
0.9199641184092494,-7.054584717607952
0.9209608292634306,-10.054584717607952
0.9219575401176118,1.945415282392048
0.922954250971793,7.945415282392048
0.9239509618259742,15.945415282392048
0.9249476726801554,18.945415282392048
0.9259443835343366,23.945415282392048
0.9269410943885178,29.945415282392048
0.927937805242699,27.945415282392048
0.9289345160968802,8.945415282392048
0.9299312269510615,1.945415282392048
0.9309279378052426,1.945415282392048
0.9319246486594238,-10.054584717607952
0.932921359513605,-14.054584717607952
0.9339180703677862,-4.054584717607952
0.9349147812219675,-15.054584717607952
0.9359114920761487,-27.054584717607952
0.9369082029303298,-27.054584717607952
0.937904913784511,-16.054584717607952
0.9389016246386922,-4.054584717607952
0.9398983354928734,-8.054584717607952
0.9408950463470547,-14.054584717607952
0.9418917572012359,3.945415282392048
0.942888468055417,11.945415282392048
0.9438851789095982,0.9454152823920481
0.9448818897637794,4.945415282392048
0.9458786006179607,11.945415282392048
0.9468753114721419,20.945415282392048
0.9478720223263231,18.945415282392048
0.9488687331805042,17.945415282392048
0.9498654440346854,21.945415282392048
0.9508621548888666,14.945415282392048
0.9518588657430479,-12.054584717607952
0.9528555765972291,-8.054584717607952
0.9538522874514103,-13.054584717607952
0.9548489983055914,-25.054584717607952
0.9558457091597726,-34.05458471760795
0.9568424200139538,-24.054584717607952
0.9578391308681351,-2.054584717607952
0.9588358417223163,-1.054584717607952
0.9598325525764975,-3.054584717607952
0.9608292634306786,-16.054584717607952
0.9618259742848598,-0.054584717607951916
0.9628226851390411,12.945415282392048
0.9638193959932223,9.945415282392048
0.9648161068474035,12.945415282392048
0.9658128177015847,17.945415282392048
0.9668095285557659,30.945415282392048
0.967806239409947,27.945415282392048
0.9688029502641283,12.945415282392048
0.9697996611183095,20.945415282392048
0.9707963719724907,16.945415282392048
0.9717930828266719,-2.054584717607952
0.972789793680853,-16.054584717607952
0.9737865045350343,-14.054584717607952
0.9747832153892155,-26.054584717607952
0.9757799262433967,-35.05458471760795
0.9767766370975779,-32.05458471760795
0.9777733479517591,-16.054584717607952
0.9787700588059403,-6.054584717607952
0.9797667696601216,-4.054584717607952
0.9807634805143027,-12.054584717607952
0.9817601913684839,0.9454152823920481
0.9827569022226651,11.945415282392048
0.9837536130768463,7.945415282392048
0.9847503239310276,6.945415282392048
0.9857470347852088,11.945415282392048
0.9867437456393899,18.945415282392048
0.9877404564935711,16.945415282392048
0.9887371673477523,19.945415282392048
0.9897338782019335,25.945415282392048
0.9907305890561148,25.945415282392048
0.991727299910296,-5.054584717607952
0.9927240107644771,-9.054584717607952
0.9937207216186583,-8.054584717607952
0.9947174324728395,-21.054584717607952
0.9957141433270208,-31.054584717607952
0.996710854181202,-27.054584717607952
0.9977075650353832,-20.054584717607952
0.9987042758895643,-11.054584717607952
0.9997009867437455,-15.054584717607952
1.0006976975979267,-11.054584717607952
1.001694408452108,5.945415282392048
1.002691119306289,18.945415282392048
1.0036878301604704,1.945415282392048
1.0046845410146517,10.945415282392048
1.0056812518688327,17.945415282392048
1.006677962723014,35.94541528239205
1.007674673577195,28.945415282392048
1.0086713844313764,15.945415282392048
1.0096680952855577,6.945415282392048
1.0106648061397387,6.945415282392048
1.01166151699392,-6.054584717607952
1.0126582278481011,-7.054584717607952
1.0136549387022824,-11.054584717607952
1.0146516495564635,-11.054584717607952
1.0156483604106448,-20.054584717607952
1.016645071264826,-21.054584717607952
1.0176417821190071,-22.054584717607952
1.0186384929731884,-15.054584717607952
1.0196352038273695,-8.054584717607952
1.0206319146815508,-12.054584717607952
1.021628625535732,0.9454152823920481
1.0226253363899132,8.945415282392048
1.0236220472440944,9.945415282392048
1.0246187580982755,11.945415282392048
1.0256154689524568,19.945415282392048
1.026612179806638,23.945415282392048
1.0276088906608192,27.945415282392048
1.0286056015150005,19.945415282392048
1.0296023123691815,19.945415282392048
1.0305990232233628,16.945415282392048
1.031595734077544,-2.054584717607952
1.0325924449317252,-15.054584717607952
1.0335891557859065,-16.054584717607952
1.0345858666400876,-16.054584717607952
1.0355825774942689,-28.054584717607952
1.03657928834845,-35.05458471760795
1.0375759992026312,-26.054584717607952
1.0385727100568125,-15.054584717607952
1.0395694209109936,-10.054584717607952
1.0405661317651749,-14.054584717607952
1.041562842619356,7.945415282392048
1.0425595534735372,19.945415282392048
1.0435562643277185,8.945415282392048
1.0445529751818996,15.945415282392048
1.045549686036081,32.94541528239205
1.046546396890262,30.945415282392048
1.0475431077444433,12.945415282392048
1.0485398185986246,0.9454152823920481
1.0495365294528056,0.9454152823920481
1.050533240306987,8.945415282392048
1.051529951161168,4.945415282392048
1.0525266620153493,3.945415282392048
1.0535233728695304,-3.054584717607952
1.0545200837237116,-27.054584717607952
1.055516794577893,-29.054584717607952
1.056513505432074,-32.05458471760795
1.0575102162862553,-23.054584717607952
1.0585069271404364,-13.054584717607952
1.0595036379946177,-7.054584717607952
1.060500348848799,-3.054584717607952
1.06149705970298,11.945415282392048
1.0624937705571613,10.945415282392048
1.0634904814113424,8.945415282392048
1.0644871922655237,18.945415282392048
1.065483903119705,19.945415282392048
1.066480613973886,18.945415282392048
1.0674773248280673,18.945415282392048
1.0684740356822484,9.945415282392048
1.0694707465364297,9.945415282392048
1.0704674573906108,13.945415282392048
1.071464168244792,-3.054584717607952
1.0724608790989734,-12.054584717607952
1.0734575899531544,-13.054584717607952
1.0744543008073357,-23.054584717607952
1.0754510116615168,-26.054584717607952
1.076447722515698,-26.054584717607952
1.0774444333698794,-27.054584717607952
1.0784411442240605,-14.054584717607952
1.0794378550782417,-10.054584717607952
1.0804345659324228,-9.054584717607952
1.0814312767866041,5.945415282392048
1.0824279876407854,16.945415282392048
1.0834246984949665,6.945415282392048
1.0844214093491478,10.945415282392048
1.0854181202033288,23.945415282392048
1.0864148310575101,28.945415282392048
1.0874115419116914,27.945415282392048
1.0884082527658725,22.945415282392048
1.0894049636200538,16.945415282392048
1.0904016744742349,5.945415282392048
1.0913983853284162,-2.054584717607952
1.0923950961825972,-19.054584717607952
1.0933918070367785,-12.054584717607952
1.0943885178909598,-13.054584717607952
1.0953852287451409,-21.054584717607952
1.0963819395993222,-35.05458471760795
1.0973786504535032,-30.054584717607952
1.0983753613076845,-20.054584717607952
1.0993720721618658,-12.054584717607952
1.100368783016047,-6.054584717607952
1.1013654938702282,7.945415282392048
1.1023622047244093,15.945415282392048
1.1033589155785906,15.945415282392048
1.1043556264327719,13.945415282392048
1.105352337286953,19.945415282392048
1.1063490481411342,22.945415282392048
1.1073457589953153,20.945415282392048
1.1083424698494966,23.945415282392048
1.1093391807036777,11.945415282392048
1.110335891557859,16.945415282392048
1.1113326024120402,1.945415282392048
1.1123293132662213,-12.054584717607952
1.1133260241204026,-13.054584717607952
1.1143227349745837,-35.05458471760795
1.115319445828765,-47.05458471760795
1.1163161566829463,-30.054584717607952
1.1173128675371273,-16.054584717607952
1.1183095783913086,-0.054584717607951916
1.1193062892454897,-0.054584717607951916
1.120303000099671,-4.054584717607952
1.1212997109538523,10.945415282392048
1.1222964218080334,16.945415282392048
1.1232931326622146,11.945415282392048
1.1242898435163957,18.945415282392048
1.125286554370577,22.945415282392048
1.1262832652247583,26.945415282392048
1.1272799760789394,20.945415282392048
1.1282766869331207,11.945415282392048
1.1292733977873017,14.945415282392048
1.130270108641483,12.945415282392048
1.131266819495664,-8.054584717607952
1.1322635303498454,-18.054584717607952
1.1332602412040267,-14.054584717607952
1.1342569520582078,-18.054584717607952
1.135253662912389,-35.05458471760795
1.1362503737665701,-36.05458471760795
1.1372470846207514,-28.054584717607952
1.1382437954749327,-11.054584717607952
1.1392405063291138,-5.054584717607952
1.140237217183295,-5.054584717607952
1.1412339280374761,11.945415282392048
1.1422306388916574,13.945415282392048
1.1432273497458387,5.945415282392048
1.1442240606000198,19.945415282392048
1.145220771454201,25.945415282392048
1.1462174823083822,23.945415282392048
1.1472141931625635,16.945415282392048
1.1482109040167447,11.945415282392048
1.1492076148709258,5.945415282392048
1.1502043257251071,12.945415282392048
1.1512010365792882,-3.054584717607952
1.1521977474334695,-11.054584717607952
1.1531944582876505,-15.054584717607952
1.1541911691418318,-28.054584717607952
1.1551878799960131,-31.054584717607952
1.1561845908501942,-29.054584717607952
1.1571813017043755,-27.054584717607952
1.1581780125585566,-14.054584717607952
1.1591747234127379,-15.054584717607952
1.1601714342669192,-6.054584717607952
1.1611681451211002,12.945415282392048
1.1621648559752815,18.945415282392048
1.1631615668294626,26.945415282392048
1.1641582776836439,32.94541528239205
1.1651549885378252,34.94541528239205
1.1661516993920062,31.945415282392048
1.1671484102461875,15.945415282392048
1.1681451211003686,4.945415282392048
1.16914183195455,-0.054584717607951916
1.170138542808731,4.945415282392048
1.1711352536629123,-11.054584717607952
1.1721319645170936,-15.054584717607952
1.1731286753712746,-14.054584717607952
1.174125386225456,-15.054584717607952
1.175122097079637,-20.054584717607952
1.1761188079338183,-26.054584717607952
1.1771155187879996,-22.054584717607952
1.1781122296421807,-22.054584717607952
1.179108940496362,-18.054584717607952
1.180105651350543,-13.054584717607952
1.1811023622047243,3.945415282392048
1.1820990730589056,19.945415282392048
1.1830957839130867,14.945415282392048
1.184092494767268,21.945415282392048
1.185089205621449,22.945415282392048
1.1860859164756303,21.945415282392048
1.1870826273298116,19.945415282392048
1.1880793381839927,20.945415282392048
1.189076049038174,4.945415282392048
1.190072759892355,8.945415282392048
1.1910694707465364,-4.054584717607952
1.1920661816007174,-11.054584717607952
1.1930628924548987,-19.054584717607952
1.19405960330908,-26.054584717607952
1.195056314163261,-16.054584717607952
1.1960530250174424,-25.054584717607952
1.1970497358716234,-26.054584717607952
1.1980464467258047,-19.054584717607952
1.199043157579986,-7.054584717607952
1.200039868434167,-9.054584717607952
1.2010365792883484,4.945415282392048
1.2020332901425295,21.945415282392048
1.2030300009967108,19.945415282392048
1.204026711850892,19.945415282392048
1.2050234227050731,25.945415282392048
1.2060201335592544,33.94541528239205
1.2070168444134355,23.945415282392048
1.2080135552676168,10.945415282392048
1.2090102661217978,-0.054584717607951916
1.2100069769759791,12.945415282392048
1.2110036878301604,-2.054584717607952
1.2120003986843415,-11.054584717607952
1.2129971095385228,-15.054584717607952
1.2139938203927039,-25.054584717607952
1.2149905312468852,-31.054584717607952
1.2159872421010665,-30.054584717607952
1.2169839529552475,-24.054584717607952
1.2179806638094288,-11.054584717607952
1.21897737466361,-7.054584717607952
1.2199740855177912,-9.054584717607952
1.2209707963719725,8.945415282392048
1.2219675072261535,11.945415282392048
1.2229642180803348,13.945415282392048
1.223960928934516,17.945415282392048
1.2249576397886972,19.945415282392048
1.2259543506428785,16.945415282392048
1.2269510614970596,16.945415282392048
1.2279477723512409,14.945415282392048
1.228944483205422,12.945415282392048
1.2299411940596032,11.945415282392048
1.2309379049137843,3.945415282392048
1.2319346157679656,-1.054584717607952
1.2329313266221469,-13.054584717607952
1.233928037476328,-31.054584717607952
1.2349247483305092,-43.05458471760795
1.2359214591846903,-36.05458471760795
1.2369181700388716,-24.054584717607952
1.237914880893053,-21.054584717607952
1.238911591747234,-11.054584717607952
1.2399083026014153,-5.054584717607952
1.2409050134555963,18.945415282392048
1.2419017243097776,28.945415282392048
1.242898435163959,23.945415282392048
1.24389514601814,23.945415282392048
1.2448918568723213,29.945415282392048
1.2458885677265024,27.945415282392048
1.2468852785806837,19.945415282392048
1.2478819894348647,8.945415282392048
1.248878700289046,-0.054584717607951916
1.2498754111432273,3.945415282392048
1.2508721219974084,-6.054584717607952
1.2518688328515897,-15.054584717607952
1.2528655437057707,-20.054584717607952
1.253862254559952,-21.054584717607952
1.2548589654141333,-23.054584717607952
1.2558556762683144,-25.054584717607952
1.2568523871224957,-19.054584717607952
1.2578490979766768,-14.054584717607952
1.258845808830858,-12.054584717607952
1.2598425196850394,-19.054584717607952
1.2608392305392204,4.945415282392048
1.2618359413934017,15.945415282392048
1.2628326522475828,11.945415282392048
1.263829363101764,16.945415282392048
1.2648260739559454,28.945415282392048
1.2658227848101264,27.945415282392048
1.2668194956643077,16.945415282392048
1.2678162065184888,21.945415282392048
1.26881291737267,14.945415282392048
1.2698096282268512,18.945415282392048
1.2708063390810325,-3.054584717607952
1.2718030499352138,-18.054584717607952
1.2727997607893948,-16.054584717607952
1.2737964716435761,-26.054584717607952
1.2747931824977572,-29.054584717607952
1.2757898933519385,-28.054584717607952
1.2767866042061198,-16.054584717607952
1.2777833150603009,-20.054584717607952
1.2787800259144821,-16.054584717607952
1.2797767367686632,-5.054584717607952
1.2807734476228445,15.945415282392048
1.2817701584770258,21.945415282392048
1.2827668693312069,15.945415282392048
1.2837635801853882,10.945415282392048
1.2847602910395692,15.945415282392048
1.2857570018937505,20.945415282392048
1.2867537127479316,17.945415282392048
1.287750423602113,17.945415282392048
1.2887471344562942,21.945415282392048
1.2897438453104753,13.945415282392048
1.2907405561646565,-3.054584717607952
1.2917372670188376,-7.054584717607952
1.292733977873019,-11.054584717607952
1.2937306887272002,-27.054584717607952
1.2947273995813813,-32.05458471760795
1.2957241104355626,-25.054584717607952
1.2967208212897436,-20.054584717607952
1.297717532143925,-19.054584717607952
1.2987142429981062,-8.054584717607952
1.2997109538522873,-6.054584717607952
1.3007076647064686,11.945415282392048
1.3017043755606497,15.945415282392048
1.302701086414831,6.945415282392048
1.3036977972690122,13.945415282392048
1.3046945081231933,20.945415282392048
1.3056912189773746,19.945415282392048
1.3066879298315557,16.945415282392048
1.307684640685737,12.945415282392048
1.308681351539918,11.945415282392048
1.3096780623940993,12.945415282392048
1.3106747732482806,-3.054584717607952
1.3116714841024617,-18.054584717607952
1.312668194956643,-15.054584717607952
1.313664905810824,-17.054584717607952
1.3146616166650054,-24.054584717607952
1.3156583275191867,-19.054584717607952
1.3166550383733677,-18.054584717607952
1.317651749227549,-20.054584717607952
1.31864846008173,-15.054584717607952
1.3196451709359114,-12.054584717607952
1.3206418817900927,4.945415282392048
1.3216385926442737,19.945415282392048
1.322635303498455,19.945415282392048
1.323632014352636,18.945415282392048
1.3246287252068174,16.945415282392048
1.3256254360609985,33.94541528239205
1.3266221469151798,35.94541528239205
1.327618857769361,16.945415282392048
1.3286155686235421,11.945415282392048
1.3296122794777234,5.945415282392048
1.3306089903319045,-15.054584717607952
1.3316057011860858,-21.054584717607952
1.332602412040267,-16.054584717607952
1.3335991228944482,-16.054584717607952
1.3345958337486294,-16.054584717607952
1.3355925446028105,-27.054584717607952
1.3365892554569918,-26.054584717607952
1.337585966311173,-29.054584717607952
1.3385826771653542,-24.054584717607952
1.3395793880195355,-8.054584717607952
1.3405760988737165,5.945415282392048
1.3415728097278978,17.945415282392048
1.3425695205820791,11.945415282392048
1.3435662314362602,16.945415282392048
1.3445629422904415,25.945415282392048
1.3455596531446226,27.945415282392048
1.3465563639988039,24.945415282392048
1.347553074852985,15.945415282392048
1.3485497857071662,10.945415282392048
1.3495464965613475,1.945415282392048
1.3505432074155286,-10.054584717607952
1.3515399182697099,-18.054584717607952
1.352536629123891,-14.054584717607952
1.3535333399780722,-23.054584717607952
1.3545300508322535,-17.054584717607952
1.3555267616864346,-24.054584717607952
1.356523472540616,-21.054584717607952
1.357520183394797,-11.054584717607952
1.3585168942489783,-6.054584717607952
1.3595136051031596,-14.054584717607952
1.3605103159573406,0.9454152823920481
1.361507026811522,13.945415282392048
1.362503737665703,9.945415282392048
1.3635004485198843,13.945415282392048
1.3644971593740653,18.945415282392048
1.3654938702282466,28.945415282392048
1.366490581082428,24.945415282392048
1.367487291936609,17.945415282392048
1.3684840027907903,11.945415282392048
1.3694807136449714,15.945415282392048
1.3704774244991527,-2.054584717607952
1.371474135353334,-9.054584717607952
1.372470846207515,-8.054584717607952
1.3734675570616963,-20.054584717607952
1.3744642679158774,-27.054584717607952
1.3754609787700587,-31.054584717607952
1.37645768962424,-24.054584717607952
1.377454400478421,-15.054584717607952
1.3784511113326023,-4.054584717607952
1.3794478221867834,-3.054584717607952
1.3804445330409647,4.945415282392048
1.381441243895146,6.945415282392048
1.382437954749327,3.945415282392048
1.3834346656035084,23.945415282392048
1.3844313764576894,24.945415282392048
1.3854280873118707,26.945415282392048
1.3864247981660518,18.945415282392048
1.387421509020233,10.945415282392048
1.3884182198744144,7.945415282392048
1.3894149307285955,3.945415282392048
1.3904116415827767,-12.054584717607952
1.3914083524369578,-18.054584717607952
1.3924050632911391,-11.054584717607952
1.3934017741453204,-10.054584717607952
1.3943984849995015,-21.054584717607952
1.3953951958536828,-28.054584717607952
1.3963919067078638,-25.054584717607952
1.3973886175620451,-17.054584717607952
1.3983853284162264,-10.054584717607952
1.3993820392704075,-5.054584717607952
1.4003787501245888,0.9454152823920481
1.4013754609787699,13.945415282392048
1.4023721718329512,16.945415282392048
1.4033688826871322,16.945415282392048
1.4043655935413135,35.94541528239205
1.4053623043954948,28.945415282392048
1.4063590152496759,11.945415282392048
1.4073557261038572,0.9454152823920481
1.4083524369580382,5.945415282392048
1.4093491478122195,8.945415282392048
1.4103458586664008,-5.054584717607952
1.411342569520582,-18.054584717607952
1.4123392803747632,-16.054584717607952
1.4133359912289443,-16.054584717607952
1.4143327020831256,-21.054584717607952
1.4153294129373069,-26.054584717607952
1.416326123791488,-26.054584717607952
1.4173228346456692,-15.054584717607952
1.4183195454998503,-10.054584717607952
1.4193162563540316,-9.054584717607952
1.4203129672082129,11.945415282392048
1.421309678062394,23.945415282392048
1.4223063889165752,19.945415282392048
1.4233030997707563,18.945415282392048
1.4242998106249376,20.945415282392048
1.4252965214791187,27.945415282392048
1.4262932323333,24.945415282392048
1.4272899431874813,17.945415282392048
1.4282866540416623,8.945415282392048
1.4292833648958436,13.945415282392048
1.4302800757500247,-16.054584717607952
1.431276786604206,-27.054584717607952
1.4322734974583873,-20.054584717607952
1.4332702083125684,-23.054584717607952
1.4342669191667496,-26.054584717607952
1.4352636300209307,-21.054584717607952
1.436260340875112,-13.054584717607952
1.4372570517292933,-11.054584717607952
1.4382537625834744,-12.054584717607952
1.4392504734376557,-11.054584717607952
1.4402471842918367,3.945415282392048
1.441243895146018,10.945415282392048
1.4422406060001993,1.945415282392048
1.4432373168543804,13.945415282392048
1.4442340277085617,32.94541528239205
1.4452307385627428,32.94541528239205
1.446227449416924,21.945415282392048
1.4472241602711051,13.945415282392048
1.4482208711252864,11.945415282392048
1.4492175819794677,21.945415282392048
1.4502142928336488,-3.054584717607952
1.45121100368783,-24.054584717607952
1.4522077145420111,-16.054584717607952
1.4532044253961924,-16.054584717607952
1.4542011362503737,-23.054584717607952
1.4551978471045548,-18.054584717607952
1.456194557958736,-20.054584717607952
1.4571912688129172,-22.054584717607952
1.4581879796670985,-11.054584717607952
1.4591846905212797,-6.054584717607952
1.4601814013754608,4.945415282392048
1.4611781122296421,12.945415282392048
1.4621748230838232,8.945415282392048
1.4631715339380045,11.945415282392048
1.4641682447921855,19.945415282392048
1.4651649556463668,25.945415282392048
1.4661616665005481,24.945415282392048
1.4671583773547292,7.945415282392048
1.4681550882089105,1.945415282392048
1.4691517990630916,6.945415282392048
1.4701485099172729,-6.054584717607952
1.4711452207714542,-8.054584717607952
1.4721419316256352,-0.054584717607951916
1.4731386424798165,-15.054584717607952
1.4741353533339976,-20.054584717607952
1.4751320641881789,-20.054584717607952
1.4761287750423602,-12.054584717607952
1.4771254858965412,-10.054584717607952
1.4781221967507225,-6.054584717607952
1.4791189076049036,-15.054584717607952
1.480115618459085,-5.054584717607952
1.4811123293132662,9.945415282392048
1.4821090401674473,5.945415282392048
1.4831057510216286,11.945415282392048
1.4841024618758096,34.94541528239205
1.485099172729991,33.94541528239205
1.486095883584172,28.945415282392048
1.4870925944383533,17.945415282392048
1.4880893052925346,16.945415282392048
1.4890860161467157,23.945415282392048
1.490082727000897,-0.054584717607951916
1.491079437855078,-13.054584717607952
1.4920761487092593,-17.054584717607952
1.4930728595634406,-28.054584717607952
1.4940695704176217,-26.054584717607952
1.495066281271803,-26.054584717607952
1.496062992125984,-26.054584717607952
1.4970597029801653,-30.054584717607952
1.4980564138343466,-28.054584717607952
1.4990531246885277,-13.054584717607952
1.500049835542709,6.945415282392048
1.50104654639689,10.945415282392048
1.5020432572510714,7.945415282392048
1.5030399681052524,28.945415282392048
1.5040366789594337,39.94541528239205
1.505033389813615,37.94541528239205
1.506030100667796,17.945415282392048
1.5070268115219774,13.945415282392048
1.5080235223761584,19.945415282392048
1.5090202332303397,16.945415282392048
1.510016944084521,-13.054584717607952
1.511013654938702,-28.054584717607952
1.5120103657928834,-26.054584717607952
1.5130070766470645,-20.054584717607952
1.5140037875012458,-13.054584717607952
1.515000498355427,-19.054584717607952
1.5159972092096081,-15.054584717607952
1.5169939200637894,-21.054584717607952
1.5179906309179705,-27.054584717607952
1.5189873417721518,-27.054584717607952
1.519984052626333,-3.054584717607952
1.5209807634805141,15.945415282392048
1.5219774743346954,14.945415282392048
1.5229741851888765,26.945415282392048
1.5239708960430578,30.945415282392048
1.5249676068972389,35.94541528239205
1.5259643177514202,29.945415282392048
1.5269610286056015,14.945415282392048
1.5279577394597825,11.945415282392048
1.5289544503139638,16.945415282392048
1.529951161168145,-6.054584717607952
1.5309478720223262,-23.054584717607952
1.5319445828765075,-21.054584717607952
1.5329412937306885,-23.054584717607952
1.5339380045848698,-25.054584717607952
1.534934715439051,-25.054584717607952
1.5359314262932322,-13.054584717607952
1.5369281371474135,-15.054584717607952
1.5379248480015946,-11.054584717607952
1.5389215588557759,-13.054584717607952
1.539918269709957,-1.054584717607952
1.5409149805641382,10.945415282392048
1.5419116914183193,9.945415282392048
1.5429084022725006,21.945415282392048
1.5439051131266819,25.945415282392048
1.544901823980863,26.945415282392048
1.5458985348350442,21.945415282392048
1.5468952456892253,20.945415282392048
1.5478919565434066,11.945415282392048
1.548888667397588,15.945415282392048
1.549885378251769,-5.054584717607952
1.5508820891059503,-34.05458471760795
1.5518787999601313,-35.05458471760795
1.5528755108143126,-22.054584717607952
1.553872221668494,-2.054584717607952
1.554868932522675,-8.054584717607952
1.5558656433768563,-15.054584717607952
1.5568623542310374,-20.054584717607952
1.5578590650852187,-13.054584717607952
1.5588557759394,-8.054584717607952
1.559852486793581,-3.054584717607952
1.5608491976477623,14.945415282392048
1.5618459085019434,11.945415282392048
1.5628426193561247,25.945415282392048
1.5638393302103057,35.94541528239205
1.564836041064487,24.945415282392048
1.5658327519186683,7.945415282392048
1.5668294627728494,13.945415282392048
1.5678261736270307,16.945415282392048
1.5688228844812118,11.945415282392048
1.569819595335393,-7.054584717607952
1.5708163061895744,-21.054584717607952
1.5718130170437554,-10.054584717607952
1.5728097278979367,-16.054584717607952
1.5738064387521178,-37.05458471760795
1.574803149606299,-35.05458471760795
1.5757998604604804,-17.054584717607952
1.5767965713146614,-24.054584717607952
1.5777932821688427,-12.054584717607952
1.5787899930230238,0.9454152823920481
1.579786703877205,8.945415282392048
1.5807834147313862,11.945415282392048
1.5817801255855675,7.945415282392048
1.5827768364397488,10.945415282392048
1.5837735472939298,29.945415282392048
1.5847702581481111,29.945415282392048
1.5857669690022922,16.945415282392048
1.5867636798564735,6.945415282392048
1.5877603907106548,11.945415282392048
1.5887571015648358,13.945415282392048
1.5897538124190171,0.9454152823920481
1.5907505232731982,-13.054584717607952
1.5917472341273795,-14.054584717607952
1.5927439449815608,-16.054584717607952
1.5937406558357419,-29.054584717607952
1.5947373666899232,-25.054584717607952
1.5957340775441042,-20.054584717607952
1.5967307883982855,-13.054584717607952
1.5977274992524668,-6.054584717607952
1.598724210106648,-7.054584717607952
1.5997209209608292,4.945415282392048
1.6007176318150103,11.945415282392048
1.6017143426691915,10.945415282392048
1.6027110535233726,22.945415282392048
1.603707764377554,22.945415282392048
1.6047044752317352,20.945415282392048
1.6057011860859163,19.945415282392048
1.6066978969400976,23.945415282392048
1.6076946077942786,30.945415282392048
1.60869131864846,18.945415282392048
1.6096880295026412,-10.054584717607952
1.6106847403568223,-27.054584717607952
1.6116814512110036,-15.054584717607952
1.6126781620651847,-27.054584717607952
1.613674872919366,-36.05458471760795
1.6146715837735472,-36.05458471760795
1.6156682946277283,-24.054584717607952
1.6166650054819096,-18.054584717607952
1.6176617163360907,-11.054584717607952
1.618658427190272,-15.054584717607952
1.619655138044453,4.945415282392048
1.6206518488986343,26.945415282392048
1.6216485597528156,20.945415282392048
1.6226452706069967,18.945415282392048
1.623641981461178,22.945415282392048
1.624638692315359,20.945415282392048
1.6256354031695404,18.945415282392048
1.6266321140237217,11.945415282392048
1.6276288248779027,14.945415282392048
1.628625535732084,17.945415282392048
1.629622246586265,-1.054584717607952
1.6306189574404464,-14.054584717607952
1.6316156682946277,-15.054584717607952
1.6326123791488087,-22.054584717607952
1.63360909000299,-21.054584717607952
1.634605800857171,-16.054584717607952
1.6356025117113524,-23.054584717607952
1.6365992225655337,-20.054584717607952
1.6375959334197148,-13.054584717607952
1.638592644273896,-18.054584717607952
1.6395893551280771,-6.054584717607952
1.6405860659822584,8.945415282392048
1.6415827768364395,12.945415282392048
1.6425794876906208,24.945415282392048
1.643576198544802,28.945415282392048
1.6445729093989832,29.945415282392048
1.6455696202531644,18.945415282392048
1.6465663311073455,9.945415282392048
1.6475630419615268,8.945415282392048
1.648559752815708,8.945415282392048
1.6495564636698892,-9.054584717607952
1.6505531745240705,-12.054584717607952
1.6515498853782515,1.945415282392048
1.6525465962324328,-11.054584717607952
1.6535433070866141,-29.054584717607952
1.6545400179407952,-38.05458471760795
1.6555367287949765,-18.054584717607952
1.6565334396491576,-23.054584717607952
1.6575301505033389,-13.054584717607952
1.6585268613575201,-3.054584717607952
1.6595235722117012,12.945415282392048
1.6605202830658825,29.945415282392048
1.6615169939200636,21.945415282392048
1.6625137047742449,15.945415282392048
1.663510415628426,18.945415282392048
1.6645071264826072,21.945415282392048
1.6655038373367885,19.945415282392048
1.6665005481909696,6.945415282392048
1.667497259045151,5.945415282392048
1.668493969899332,7.945415282392048
1.6694906807535133,-8.054584717607952
1.6704873916076945,-20.054584717607952
1.6714841024618756,-11.054584717607952
1.672480813316057,-20.054584717607952
1.673477524170238,-26.054584717607952
1.6744742350244193,-24.054584717607952
1.6754709458786006,-16.054584717607952
1.6764676567327816,-7.054584717607952
1.677464367586963,0.9454152823920481
1.678461078441144,-16.054584717607952
1.6794577892953253,-5.054584717607952
1.6804545001495064,10.945415282392048
1.6814512110036877,10.945415282392048
1.682447921857869,21.945415282392048
1.68344463271205,27.945415282392048
1.6844413435662313,23.945415282392048
1.6854380544204124,19.945415282392048
1.6864347652745937,22.945415282392048
1.687431476128775,11.945415282392048
1.688428186982956,8.945415282392048
1.6894248978371373,0.9454152823920481
1.6904216086913184,-14.054584717607952
1.6914183195454997,-18.054584717607952
1.692415030399681,-26.054584717607952
1.693411741253862,-20.054584717607952
1.6944084521080434,-20.054584717607952
1.6954051629622244,-23.054584717607952
1.6964018738164057,-20.054584717607952
1.697398584670587,-14.054584717607952
1.698395295524768,-14.054584717607952
1.6993920063789494,2.945415282392048
1.7003887172331305,15.945415282392048
1.7013854280873117,8.945415282392048
1.7023821389414928,24.945415282392048
1.703378849795674,28.945415282392048
1.7043755606498554,31.945415282392048
1.7053722715040365,24.945415282392048
1.7063689823582178,18.945415282392048
1.7073656932123988,1.945415282392048
1.7083624040665801,-0.054584717607951916
1.7093591149207614,-8.054584717607952
1.7103558257749425,-15.054584717607952
1.7113525366291238,-16.054584717607952
1.7123492474833049,-22.054584717607952
1.7133459583374862,-21.054584717607952
1.7143426691916674,-16.054584717607952
1.7153393800458485,-11.054584717607952
1.7163360909000298,-23.054584717607952
1.7173328017542109,-19.054584717607952
1.7183295126083922,-0.054584717607951916
1.7193262234625732,9.945415282392048
1.7203229343167545,14.945415282392048
1.7213196451709358,12.945415282392048
1.722316356025117,12.945415282392048
1.7233130668792982,22.945415282392048
1.7243097777334793,24.945415282392048
1.7253064885876606,10.945415282392048
1.7263031994418419,10.945415282392048
1.727299910296023,10.945415282392048
1.7282966211502042,10.945415282392048
1.7292933320043853,2.945415282392048
1.7302900428585666,-1.054584717607952
1.7312867537127479,-15.054584717607952
1.732283464566929,-18.054584717607952
1.7332801754211102,-30.054584717607952
1.7342768862752913,-32.05458471760795
1.7352735971294726,-17.054584717607952
1.736270307983654,0.9454152823920481
1.737267018837835,-7.054584717607952
1.7382637296920163,-12.054584717607952
1.7392604405461973,-7.054584717607952
1.7402571514003786,6.945415282392048
1.7412538622545597,2.945415282392048
1.742250573108741,10.945415282392048
1.7432472839629223,27.945415282392048
1.7442439948171033,23.945415282392048
1.7452407056712846,16.945415282392048
1.7462374165254657,11.945415282392048
1.747234127379647,13.945415282392048
1.7482308382338283,22.945415282392048
1.7492275490880094,3.945415282392048
1.7502242599421907,-18.054584717607952
1.7512209707963717,-20.054584717607952
1.752217681650553,-26.054584717607952
1.7532143925047343,-18.054584717607952
1.7542111033589154,-28.054584717607952
1.7552078142130967,-24.054584717607952
1.7562045250672778,-16.054584717607952
1.757201235921459,-9.054584717607952
1.7581979467756401,-9.054584717607952
1.7591946576298214,9.945415282392048
1.7601913684840027,21.945415282392048
1.7611880793381838,11.945415282392048
1.762184790192365,10.945415282392048
1.7631815010465461,19.945415282392048
1.7641782119007274,19.945415282392048
1.7651749227549087,21.945415282392048
1.7661716336090898,7.945415282392048
1.767168344463271,12.945415282392048
1.7681650553174522,19.945415282392048
1.7691617661716335,-1.054584717607952
1.7701584770258147,-11.054584717607952
1.7711551878799958,-9.054584717607952
1.7721518987341771,-23.054584717607952
1.7731486095883582,-32.05458471760795
1.7741453204425395,-32.05458471760795
1.7751420312967208,-26.054584717607952
1.7761387421509018,-12.054584717607952
1.7771354530050831,-7.054584717607952
1.7781321638592642,-12.054584717607952
1.7791288747134455,0.9454152823920481
1.7801255855676266,4.945415282392048
1.7811222964218079,-1.054584717607952
1.7821190072759892,15.945415282392048
1.7831157181301702,28.945415282392048
1.7841124289843515,28.945415282392048
1.7851091398385326,24.945415282392048
1.7861058506927139,23.945415282392048
1.7871025615468952,15.945415282392048
1.7880992724010762,17.945415282392048
1.7890959832552575,-3.054584717607952
1.7900926941094386,-14.054584717607952
1.79108940496362,-22.054584717607952
1.7920861158178012,-24.054584717607952
1.7930828266719823,-15.054584717607952
1.7940795375261636,-24.054584717607952
1.7950762483803446,-21.054584717607952
1.796072959234526,-10.054584717607952
1.797069670088707,-4.054584717607952
1.7980663809428883,-20.054584717607952
1.7990630917970696,-3.054584717607952
1.8000598026512507,15.945415282392048
1.801056513505432,11.945415282392048
1.802053224359613,19.945415282392048
1.8030499352137943,23.945415282392048
1.8040466460679756,19.945415282392048
1.8050433569221567,23.945415282392048
1.806040067776338,13.945415282392048
1.807036778630519,9.945415282392048
1.8080334894847003,11.945415282392048
1.8090302003388816,2.945415282392048
1.8100269111930627,-11.054584717607952
1.811023622047244,-13.054584717607952
1.812020332901425,-23.054584717607952
1.8130170437556064,-29.054584717607952
1.8140137546097876,-34.05458471760795
1.8150104654639687,-24.054584717607952
1.81600717631815,-14.054584717607952
1.817003887172331,-3.054584717607952
1.8180005980265124,0.9454152823920481
1.8189973088806934,20.945415282392048
1.8199940197348747,19.945415282392048
1.820990730589056,8.945415282392048
1.821987441443237,18.945415282392048
1.8229841522974184,15.945415282392048
1.8239808631515995,15.945415282392048
1.8249775740057808,8.945415282392048
1.825974284859962,8.945415282392048
1.8269709957141431,10.945415282392048
1.8279677065683244,9.945415282392048
1.8289644174225055,-4.054584717607952
1.8299611282766868,-16.054584717607952
1.830957839130868,-18.054584717607952
1.8319545499850491,-24.054584717607952
1.8329512608392304,-29.054584717607952
1.8339479716934115,-27.054584717607952
1.8349446825475928,-16.054584717607952
1.8359413934017739,0.9454152823920481
1.8369381042559552,2.945415282392048
1.8379348151101365,-5.054584717607952
1.8389315259643175,6.945415282392048
1.8399282368184988,16.945415282392048
1.84092494767268,6.945415282392048
1.8419216585268612,25.945415282392048
1.8429183693810425,25.945415282392048
1.8439150802352235,19.945415282392048
1.8449117910894048,7.945415282392048
1.845908501943586,5.945415282392048
1.8469052127977672,8.945415282392048
1.8479019236519485,8.945415282392048
1.8488986345061296,-15.054584717607952
1.8498953453603109,-29.054584717607952
1.850892056214492,-6.054584717607952
1.8518887670686732,-13.054584717607952
1.8528854779228545,-21.054584717607952
1.8538821887770356,-13.054584717607952
1.8548788996312169,-16.054584717607952
1.855875610485398,-17.054584717607952
1.8568723213395792,-23.054584717607952
1.8578690321937603,-11.054584717607952
1.8588657430479416,10.945415282392048
1.859862453902123,14.945415282392048
1.860859164756304,9.945415282392048
1.8618558756104853,18.945415282392048
1.8628525864646663,26.945415282392048
1.8638492973188476,22.945415282392048
1.864846008173029,17.945415282392048
1.86584271902721,14.945415282392048
1.8668394298813913,4.945415282392048
1.8678361407355724,10.945415282392048
1.8688328515897537,-6.054584717607952
1.869829562443935,-23.054584717607952
1.870826273298116,-12.054584717607952
1.8718229841522973,-10.054584717607952
1.8728196950064784,-9.054584717607952
1.8738164058606597,-13.054584717607952
1.8748131167148407,-18.054584717607952
1.875809827569022,-20.054584717607952
1.8768065384232033,-18.054584717607952
1.8778032492773844,-12.054584717607952
1.8787999601315657,4.945415282392048
1.8797966709857468,9.945415282392048
1.880793381839928,8.945415282392048
1.8817900926941094,23.945415282392048
1.8827868035482904,20.945415282392048
1.8837835144024717,22.945415282392048
1.8847802252566528,22.945415282392048
1.885776936110834,19.945415282392048
1.8867736469650154,3.945415282392048
1.8877703578191964,10.945415282392048
1.8887670686733777,-5.054584717607952
1.8897637795275588,-18.054584717607952
1.89076049038174,-26.054584717607952
1.8917572012359214,-28.054584717607952
1.8927539120901025,-22.054584717607952
1.8937506229442838,-21.054584717607952
1.8947473337984648,-16.054584717607952
1.8957440446526461,-9.054584717607952
1.8967407555068272,-13.054584717607952
1.8977374663610085,-14.054584717607952
1.8987341772151898,10.945415282392048
1.8997308880693708,21.945415282392048
1.9007275989235521,13.945415282392048
1.9017243097777332,14.945415282392048
1.9027210206319145,17.945415282392048
1.9037177314860958,22.945415282392048
1.9047144423402769,14.945415282392048
1.9057111531944582,8.945415282392048
1.9067078640486392,9.945415282392048
1.9077045749028205,19.945415282392048
1.9087012857570018,4.945415282392048
1.909697996611183,-13.054584717607952
1.9106947074653642,-18.054584717607952
1.9116914183195453,-25.054584717607952
1.9126881291737265,-13.054584717607952
1.9136848400279076,-14.054584717607952
1.914681550882089,-10.054584717607952
1.9156782617362702,-5.054584717607952
1.9166749725904513,-21.054584717607952
1.9176716834446326,-27.054584717607952
1.9186683942988136,-2.054584717607952
1.919665105152995,15.945415282392048
1.9206618160071762,24.945415282392048
1.9216585268613573,21.945415282392048
1.9226552377155386,23.945415282392048
1.9236519485697197,18.945415282392048
1.924648659423901,15.945415282392048
1.9256453702780822,29.945415282392048
1.9266420811322633,25.945415282392048
1.9276387919864446,14.945415282392048
1.9286355028406257,-5.054584717607952
1.929632213694807,-12.054584717607952
1.9306289245489883,-10.054584717607952
1.9316256354031693,-20.054584717607952
1.9326223462573506,-20.054584717607952
1.9336190571115317,-20.054584717607952
1.934615767965713,-15.054584717607952
1.935612478819894,-11.054584717607952
1.9366091896740754,-11.054584717607952
1.9376059005282567,-13.054584717607952
1.9386026113824377,-5.054584717607952
1.939599322236619,0.9454152823920481
1.9405960330908,4.945415282392048
1.9415927439449814,18.945415282392048
1.9425894547991627,21.945415282392048
1.9435861656533437,30.945415282392048
1.944582876507525,28.945415282392048
1.945579587361706,22.945415282392048
1.9465762982158874,9.945415282392048
1.9475730090700687,12.945415282392048
1.9485697199242498,-0.054584717607951916
1.949566430778431,-13.054584717607952
1.9505631416326121,-17.054584717607952
1.9515598524867934,-25.054584717607952
1.9525565633409747,-28.054584717607952
1.9535532741951558,-31.054584717607952
1.954549985049337,-23.054584717607952
1.9555466959035182,-14.054584717607952
1.9565434067576994,-11.054584717607952
1.9575401176118805,-9.054584717607952
1.9585368284660618,1.945415282392048
1.959533539320243,7.945415282392048
1.9605302501744242,5.945415282392048
1.9615269610286055,11.945415282392048
1.9625236718827865,14.945415282392048
1.9635203827369678,21.945415282392048
1.9645170935911491,35.94541528239205
1.9655138044453302,35.94541528239205
1.9665105152995115,23.945415282392048
1.9675072261536926,8.945415282392048
1.9685039370078738,-5.054584717607952
1.9695006478620551,-19.054584717607952
1.9704973587162362,-16.054584717607952
1.9714940695704175,-30.054584717607952
1.9724907804245986,-35.05458471760795
1.9734874912787799,-35.05458471760795
1.974484202132961,-24.054584717607952
1.9754809129871422,-15.054584717607952
1.9764776238413235,-14.054584717607952
1.9774743346955046,-14.054584717607952
1.978471045549686,5.945415282392048
1.979467756403867,26.945415282392048
1.9804644672580483,16.945415282392048
1.9814611781122295,20.945415282392048
1.9824578889664106,20.945415282392048
1.983454599820592,15.945415282392048
1.984451310674773,8.945415282392048
1.9854480215289543,13.945415282392048
1.9864447323831356,8.945415282392048
1.9874414432373166,24.945415282392048
1.988438154091498,8.945415282392048
1.989434864945679,-16.054584717607952
1.9904315757998603,-11.054584717607952
1.9914282866540416,-10.054584717607952
1.9924249975082227,-31.054584717607952
1.993421708362404,-44.05458471760795
1.994418419216585,-31.054584717607952
1.9954151300707663,-20.054584717607952
1.9964118409249474,-12.054584717607952
1.9974085517791287,-8.054584717607952
1.99840526263331,8.945415282392048
1.999401973487491,16.945415282392048
2.0003986843416723,7.945415282392048
2.0013953951958534,9.945415282392048
2.0023921060500345,29.945415282392048
2.003388816904216,47.94541528239205
2.004385527758397,26.945415282392048
2.005382238612578,16.945415282392048
2.0063789494667597,3.945415282392048
2.0073756603209407,14.945415282392048
2.008372371175122,-7.054584717607952
2.0093690820293033,-32.05458471760795
2.0103657928834844,-24.054584717607952
2.0113625037376655,-20.054584717607952
2.0123592145918465,-20.054584717607952
2.013355925446028,-28.054584717607952
2.014352636300209,-13.054584717607952
2.01534934715439,0.9454152823920481
2.0163460580085717,-13.054584717607952
2.0173427688627528,-24.054584717607952
2.018339479716934,4.945415282392048
2.0193361905711154,14.945415282392048
2.0203329014252964,9.945415282392048
2.0213296122794775,17.945415282392048
2.0223263231336586,26.945415282392048
2.02332303398784,19.945415282392048
2.024319744842021,12.945415282392048
2.0253164556962022,7.945415282392048
2.0263131665503837,24.945415282392048
2.027309877404565,25.945415282392048
2.028306588258746,1.945415282392048
2.029303299112927,-13.054584717607952
2.0303000099671085,-21.054584717607952
2.0312967208212895,-18.054584717607952
2.0322934316754706,-22.054584717607952
2.033290142529652,-29.054584717607952
2.034286853383833,-23.054584717607952
2.0352835642380143,-14.054584717607952
2.036280275092196,-16.054584717607952
2.037276985946377,-20.054584717607952
2.038273696800558,0.9454152823920481
2.039270407654739,18.945415282392048
2.0402671185089205,12.945415282392048
2.0412638293631016,24.945415282392048
2.0422605402172826,20.945415282392048
2.043257251071464,28.945415282392048
2.0442539619256452,28.945415282392048
2.0452506727798263,17.945415282392048
2.0462473836340074,11.945415282392048
2.047244094488189,0.9454152823920481
2.04824080534237,-13.054584717607952
2.049237516196551,-12.054584717607952
2.0502342270507325,-3.054584717607952
2.0512309379049136,-21.054584717607952
2.0522276487590947,-23.054584717607952
2.053224359613276,-24.054584717607952
2.0542210704674573,-18.054584717607952
2.0552177813216383,-18.054584717607952
2.0562144921758194,-14.054584717607952
2.057211203030001,-15.054584717607952
2.058207913884182,-2.054584717607952
2.059204624738363,4.945415282392048
2.0602013355925446,13.945415282392048
2.0611980464467257,17.945415282392048
2.0621947573009067,16.945415282392048
2.063191468155088,21.945415282392048
2.0641881790092693,18.945415282392048
2.0651848898634504,13.945415282392048
2.0661816007176315,2.945415282392048
2.067178311571813,7.945415282392048
2.068175022425994,8.945415282392048
2.069171733280175,-2.054584717607952
2.0701684441343566,0.9454152823920481
2.0711651549885377,-13.054584717607952
2.0721618658427188,-29.054584717607952
2.0731585766969,-26.054584717607952
2.0741552875510814,-18.054584717607952
2.0751519984052624,-14.054584717607952
2.0761487092594435,-19.054584717607952
2.077145420113625,-19.054584717607952
2.078142130967806,-0.054584717607951916
2.079138841821987,20.945415282392048
2.0801355526761687,23.945415282392048
2.0811322635303497,35.94541528239205
2.082128974384531,21.945415282392048
2.083125685238712,15.945415282392048
2.0841223960928934,21.945415282392048
2.0851191069470745,14.945415282392048
2.0861158178012555,10.945415282392048
2.087112528655437,9.945415282392048
2.088109239509618,-8.054584717607952
2.089105950363799,-19.054584717607952
2.0901026612179803,-7.054584717607952
2.091099372072162,-15.054584717607952
2.092096082926343,-35.05458471760795
2.093092793780524,-37.05458471760795
2.0940895046347054,-23.054584717607952
2.0950862154888865,-15.054584717607952
2.0960829263430676,-12.054584717607952
2.097079637197249,-16.054584717607952
2.09807634805143,2.945415282392048
2.0990730589056112,14.945415282392048
2.1000697697597923,14.945415282392048
2.101066480613974,25.945415282392048
2.102063191468155,16.945415282392048
2.103059902322336,8.945415282392048
2.1040566131765175,31.945415282392048
2.1050533240306986,36.94541528239205
2.1060500348848796,22.945415282392048
2.1070467457390607,8.945415282392048
2.108043456593242,-13.054584717607952
2.1090401674474233,-26.054584717607952
2.1100368783016044,-20.054584717607952
2.111033589155786,-20.054584717607952
2.112030300009967,-24.054584717607952
2.113027010864148,-24.054584717607952
2.1140237217183295,-14.054584717607952
2.1150204325725106,-8.054584717607952
2.1160171434266917,-1.054584717607952
2.1170138542808727,-14.054584717607952
2.1180105651350543,-4.054584717607952
2.1190072759892353,-1.054584717607952
2.1200039868434164,-2.054584717607952
2.121000697697598,23.945415282392048
2.121997408551779,29.945415282392048
2.12299411940596,16.945415282392048
2.123990830260141,31.945415282392048
2.1249875411143226,47.94541528239205
2.1259842519685037,21.945415282392048
2.126980962822685,-0.054584717607951916
2.1279776736768663,-11.054584717607952
2.1289743845310474,-21.054584717607952
2.1299710953852284,-23.054584717607952
2.13096780623941,-23.054584717607952
2.131964517093591,-30.054584717607952
2.132961227947772,-31.054584717607952
2.133957938801953,-14.054584717607952
2.1349546496561347,-8.054584717607952
2.1359513605103158,-10.054584717607952
2.136948071364497,-19.054584717607952
2.1379447822186783,1.945415282392048
2.1389414930728594,10.945415282392048
2.1399382039270405,18.945415282392048
2.1409349147812216,25.945415282392048
2.141931625635403,24.945415282392048
2.142928336489584,31.945415282392048
2.143925047343765,26.945415282392048
2.1449217581979467,9.945415282392048
2.145918469052128,7.945415282392048
2.146915179906309,14.945415282392048
2.1479118907604904,-7.054584717607952
2.1489086016146715,-16.054584717607952
2.1499053124688525,-10.054584717607952
2.1509020233230336,-20.054584717607952
2.151898734177215,-24.054584717607952
2.152895445031396,-20.054584717607952
2.1538921558855773,-23.054584717607952
2.1548888667397588,-24.054584717607952
2.15588557759394,-18.054584717607952
2.156882288448121,-29.054584717607952
2.1578789993023024,-10.054584717607952
2.1588757101564835,11.945415282392048
2.1598724210106646,18.945415282392048
2.1608691318648456,32.94541528239205
2.161865842719027,28.945415282392048
2.1628625535732082,18.945415282392048
2.1638592644273893,21.945415282392048
2.164855975281571,24.945415282392048
2.165852686135752,17.945415282392048
2.166849396989933,20.945415282392048
2.167846107844114,-2.054584717607952
2.1688428186982955,-24.054584717607952
2.1698395295524766,-21.054584717607952
2.1708362404066577,-35.05458471760795
2.171832951260839,-35.05458471760795
2.1728296621150203,-23.054584717607952
2.1738263729692013,-12.054584717607952
2.174823083823383,-15.054584717607952
2.175819794677564,-24.054584717607952
2.176816505531745,-18.054584717607952
2.177813216385926,5.945415282392048
2.1788099272401076,19.945415282392048
2.1798066380942887,20.945415282392048
2.1808033489484697,28.945415282392048
2.1818000598026512,28.945415282392048
2.1827967706568323,36.94541528239205
2.1837934815110134,26.945415282392048
2.1847901923651945,16.945415282392048
2.185786903219376,4.945415282392048
2.186783614073557,16.945415282392048
2.187780324927738,2.945415282392048
2.1887770357819196,-22.054584717607952
2.1897737466361007,-13.054584717607952
2.1907704574902818,-20.054584717607952
2.1917671683444633,-31.054584717607952
2.1927638791986444,-33.05458471760795
2.1937605900528254,-36.05458471760795
2.1947573009070065,-27.054584717607952
2.195754011761188,-16.054584717607952
2.196750722615369,-2.054584717607952
2.19774743346955,19.945415282392048
2.1987441443237317,32.94541528239205
2.1997408551779127,21.945415282392048
2.200737566032094,16.945415282392048
2.201734276886275,13.945415282392048
2.2027309877404564,19.945415282392048
2.2037276985946375,18.945415282392048
2.2047244094488185,13.945415282392048
2.205721120303,18.945415282392048
2.206717831157181,23.945415282392048
2.207714542011362,-10.054584717607952
2.2087112528655437,-42.05458471760795
2.2097079637197248,-27.054584717607952
2.210704674573906,-26.054584717607952
2.211701385428087,-24.054584717607952
2.2126980962822684,-21.054584717607952
2.2136948071364495,-11.054584717607952
2.2146915179906306,-12.054584717607952
2.215688228844812,-9.054584717607952
2.216684939698993,-7.054584717607952
2.2176816505531742,7.945415282392048
2.2186783614073553,13.945415282392048
2.219675072261537,20.945415282392048
2.220671783115718,42.94541528239205
2.221668493969899,21.945415282392048
2.2226652048240805,12.945415282392048
2.2236619156782615,19.945415282392048
2.2246586265324426,18.945415282392048
2.225655337386624,17.945415282392048
2.226652048240805,7.945415282392048
2.2276487590949863,-11.054584717607952
2.2286454699491673,-19.054584717607952
2.229642180803349,-14.054584717607952
2.23063889165753,-20.054584717607952
2.231635602511711,-37.05458471760795
2.2326323133658925,-33.05458471760795
2.2336290242200736,-21.054584717607952
2.2346257350742547,-22.054584717607952
2.235622445928436,-16.054584717607952
2.2366191567826172,-12.054584717607952
2.2376158676367983,-2.054584717607952
2.2386125784909794,14.945415282392048
2.239609289345161,20.945415282392048
2.240606000199342,24.945415282392048
2.241602711053523,25.945415282392048
2.2425994219077046,23.945415282392048
2.2435961327618856,35.94541528239205
2.2445928436160667,27.945415282392048
2.2455895544702478,5.945415282392048
2.2465862653244293,5.945415282392048
2.2475829761786104,-16.054584717607952
2.2485796870327914,-33.05458471760795
2.249576397886973,-35.05458471760795
2.250573108741154,-20.054584717607952
2.251569819595335,-11.054584717607952
2.2525665304495166,-8.054584717607952
2.2535632413036977,-1.054584717607952
2.2545599521578787,-8.054584717607952
2.25555666301206,-13.054584717607952
2.2565533738662413,-14.054584717607952
2.2575500847204224,2.945415282392048
2.2585467955746035,10.945415282392048
2.259543506428785,8.945415282392048
2.260540217282966,16.945415282392048
2.261536928137147,28.945415282392048
2.262533638991328,31.945415282392048
2.2635303498455097,20.945415282392048
2.264527060699691,7.945415282392048
2.265523771553872,4.945415282392048
2.2665204824080534,10.945415282392048
2.2675171932622344,-5.054584717607952
2.2685139041164155,-21.054584717607952
2.269510614970597,-10.054584717607952
2.270507325824778,-9.054584717607952
2.271504036678959,-28.054584717607952
2.2725007475331402,-37.05458471760795
2.2734974583873218,-29.054584717607952
2.274494169241503,-27.054584717607952
2.275490880095684,-4.054584717607952
2.2764875909498654,9.945415282392048
2.2774843018040465,4.945415282392048
2.2784810126582276,18.945415282392048
2.2794777235124086,21.945415282392048
2.28047443436659,22.945415282392048
2.281471145220771,24.945415282392048
2.2824678560749523,25.945415282392048
2.283464566929134,17.945415282392048
2.284461277783315,21.945415282392048
2.285457988637496,12.945415282392048
2.2864546994916775,-5.054584717607952
2.2874514103458585,-7.054584717607952
2.2884481212000396,-23.054584717607952
2.2894448320542207,-29.054584717607952
2.290441542908402,-23.054584717607952
2.2914382537625833,-25.054584717607952
2.2924349646167643,-31.054584717607952
2.293431675470946,-32.05458471760795
2.294428386325127,-18.054584717607952
2.295425097179308,-1.054584717607952
2.2964218080334895,-3.054584717607952
2.2974185188876706,22.945415282392048
2.2984152297418516,39.94541528239205
2.2994119405960327,29.945415282392048
2.3004086514502142,28.945415282392048
2.3014053623043953,11.945415282392048
2.3024020731585764,20.945415282392048
2.303398784012758,11.945415282392048
2.304395494866939,10.945415282392048
2.30539220572112,2.945415282392048
2.306388916575301,0.9454152823920481
2.3073856274294826,-9.054584717607952
2.3083823382836637,-16.054584717607952
2.3093790491378448,-16.054584717607952
2.3103757599920263,-18.054584717607952
2.3113724708462073,-30.054584717607952
2.3123691817003884,-21.054584717607952
2.31336589255457,-20.054584717607952
2.314362603408751,-14.054584717607952
2.315359314262932,-5.054584717607952
2.316356025117113,-5.054584717607952
2.3173527359712947,-0.054584717607951916
2.3183494468254757,5.945415282392048
2.319346157679657,12.945415282392048
2.3203428685338383,13.945415282392048
2.3213395793880194,15.945415282392048
2.3223362902422005,31.945415282392048
2.3233330010963815,24.945415282392048
2.324329711950563,19.945415282392048
2.325326422804744,23.945415282392048
2.326323133658925,9.945415282392048
2.3273198445131067,-2.054584717607952
2.3283165553672878,0.9454152823920481
2.329313266221469,-8.054584717607952
2.3303099770756504,-12.054584717607952
2.3313066879298314,-15.054584717607952
2.3323033987840125,-45.05458471760795
2.3333001096381936,-45.05458471760795
2.334296820492375,-32.05458471760795
2.335293531346556,-17.054584717607952
2.336290242200737,-2.054584717607952
2.3372869530549187,14.945415282392048
2.3382836639091,21.945415282392048
2.339280374763281,27.945415282392048
2.340277085617462,24.945415282392048
2.3412737964716435,14.945415282392048
2.3422705073258245,24.945415282392048
2.3432672181800056,26.945415282392048
2.344263929034187,11.945415282392048
2.345260639888368,5.945415282392048
2.3462573507425493,1.945415282392048
2.347254061596731,4.945415282392048
2.348250772450912,-13.054584717607952
2.349247483305093,-21.054584717607952
2.350244194159274,-27.054584717607952
2.3512409050134555,-23.054584717607952
2.3522376158676366,-13.054584717607952
2.3532343267218176,-23.054584717607952
2.354231037575999,-24.054584717607952
2.3552277484301802,-15.054584717607952
2.3562244592843613,-16.054584717607952
2.3572211701385424,1.945415282392048
2.358217880992724,18.945415282392048
2.359214591846905,16.945415282392048
2.360211302701086,19.945415282392048
2.3612080135552675,28.945415282392048
2.3622047244094486,31.945415282392048
2.3632014352636297,19.945415282392048
2.364198146117811,11.945415282392048
2.3651948569719923,16.945415282392048
2.3661915678261733,8.945415282392048
2.3671882786803544,-11.054584717607952
2.368184989534536,-12.054584717607952
2.369181700388717,-6.054584717607952
2.370178411242898,-20.054584717607952
2.3711751220970796,-34.05458471760795
2.3721718329512607,-30.054584717607952
2.3731685438054417,-17.054584717607952
2.3741652546596232,-10.054584717607952
2.3751619655138043,-14.054584717607952
2.3761586763679854,-16.054584717607952
2.3771553872221665,-2.054584717607952
2.378152098076348,9.945415282392048
2.379148808930529,6.945415282392048
2.38014551978471,24.945415282392048
2.3811422306388916,33.94541528239205
2.3821389414930727,28.945415282392048
2.3831356523472538,9.945415282392048
2.384132363201435,3.945415282392048
2.3851290740556164,19.945415282392048
2.3861257849097974,17.945415282392048
2.3871224957639785,-9.054584717607952
2.38811920661816,-10.054584717607952
2.389115917472341,-15.054584717607952
2.390112628326522,-27.054584717607952
2.3911093391807037,-24.054584717607952
2.3921060500348847,-22.054584717607952
2.393102760889066,-23.054584717607952
2.394099471743247,-23.054584717607952
2.3950961825974284,-10.054584717607952
2.3960928934516095,-10.054584717607952
2.3970896043057905,1.945415282392048
2.398086315159972,10.945415282392048
2.399083026014153,17.945415282392048
2.400079736868334,22.945415282392048
2.4010764477225153,23.945415282392048
2.402073158576697,12.945415282392048
2.403069869430878,26.945415282392048
2.404066580285059,19.945415282392048
2.4050632911392404,-0.054584717607951916
2.4060600019934215,-2.054584717607952
2.4070567128476026,-6.054584717607952
2.408053423701784,11.945415282392048
2.409050134555965,13.945415282392048
2.4100468454101462,-9.054584717607952
2.4110435562643273,-27.054584717607952
2.412040267118509,-33.05458471760795
2.41303697797269,-27.054584717607952
2.414033688826871,-33.05458471760795
2.4150303996810525,-28.054584717607952
2.4160271105352336,-20.054584717607952
2.4170238213894146,6.945415282392048
2.4180205322435957,25.945415282392048
2.419017243097777,23.945415282392048
2.4200139539519583,17.945415282392048
2.4210106648061394,15.945415282392048
2.422007375660321,34.94541528239205
2.423004086514502,32.94541528239205
2.424000797368683,21.945415282392048
2.4249975082228645,11.945415282392048
2.4259942190770456,8.945415282392048
2.4269909299312267,-7.054584717607952
2.4279876407854077,-27.054584717607952
2.4289843516395893,-25.054584717607952
2.4299810624937703,-33.05458471760795
2.4309777733479514,-27.054584717607952
2.431974484202133,-19.054584717607952
2.432971195056314,-24.054584717607952
2.433967905910495,-29.054584717607952
2.434964616764676,-24.054584717607952
2.4359613276188576,-12.054584717607952
2.4369580384730387,7.945415282392048
2.43795474932722,10.945415282392048
2.4389514601814013,19.945415282392048
2.4399481710355824,50.94541528239205
2.4409448818897634,51.94541528239205
2.441941592743945,33.94541528239205
2.442938303598126,20.945415282392048
2.443935014452307,16.945415282392048
2.444931725306488,18.945415282392048
2.4459284361606697,11.945415282392048
2.4469251470148508,-23.054584717607952
2.447921857869032,-22.054584717607952
2.4489185687232133,-15.054584717607952
2.4499152795773944,-27.054584717607952
2.4509119904315755,-37.05458471760795
2.451908701285757,-37.05458471760795
2.452905412139938,-19.054584717607952
2.453902122994119,-20.054584717607952
2.4548988338483,-10.054584717607952
2.4558955447024817,0.9454152823920481
2.456892255556663,9.945415282392048
2.457888966410844,9.945415282392048
2.4588856772650254,2.945415282392048
2.4598823881192065,11.945415282392048
2.4608790989733875,15.945415282392048
2.4618758098275686,8.945415282392048
2.46287252068175,5.945415282392048
2.463869231535931,31.945415282392048
2.4648659423901123,48.94541528239205
2.4658626532442938,33.94541528239205
2.466859364098475,-0.054584717607951916
2.467856074952656,-14.054584717607952
2.4688527858068374,-21.054584717607952
2.4698494966610185,-31.054584717607952
2.4708462075151996,-26.054584717607952
2.4718429183693806,-30.054584717607952
2.472839629223562,-25.054584717607952
2.4738363400777432,-25.054584717607952
2.4748330509319243,-21.054584717607952
2.475829761786106,-11.054584717607952
2.476826472640287,10.945415282392048
2.477823183494468,20.945415282392048
2.478819894348649,11.945415282392048
2.4798166052028305,23.945415282392048
2.4808133160570116,35.94541528239205
2.4818100269111927,41.94541528239205
2.482806737765374,7.945415282392048
2.4838034486195553,4.945415282392048
2.4848001594737363,13.945415282392048
2.485796870327918,6.945415282392048
2.486793581182099,-8.054584717607952
2.48779029203628,-16.054584717607952
2.488787002890461,-26.054584717607952
2.4897837137446426,-29.054584717607952
2.4907804245988237,-21.054584717607952
2.4917771354530047,-21.054584717607952
2.4927738463071862,-24.054584717607952
2.4937705571613673,-16.054584717607952
2.4947672680155484,-9.054584717607952
2.4957639788697294,2.945415282392048
2.496760689723911,20.945415282392048
2.497757400578092,8.945415282392048
2.498754111432273,2.945415282392048
2.4997508222864546,16.945415282392048
2.5007475331406357,23.945415282392048
2.5017442439948168,25.945415282392048
2.5027409548489983,21.945415282392048
2.5037376657031793,12.945415282392048
2.5047343765573604,6.945415282392048
2.5057310874115415,-0.054584717607951916
2.506727798265723,-11.054584717607952
2.507724509119904,-13.054584717607952
2.508721219974085,-4.054584717607952
2.5097179308282667,-5.054584717607952
2.5107146416824477,-16.054584717607952
2.511711352536629,-21.054584717607952
2.51270806339081,-8.054584717607952
2.5137047742449914,0.9454152823920481
2.5147014850991725,-14.054584717607952
2.5156981959533535,-18.054584717607952
2.516694906807535,-12.054584717607952
2.517691617661716,7.945415282392048
2.518688328515897,9.945415282392048
2.5196850393700787,10.945415282392048
2.5206817502242598,12.945415282392048
2.521678461078441,21.945415282392048
2.522675171932622,21.945415282392048
2.5236718827868034,17.945415282392048
2.5246685936409845,15.945415282392048
2.5256653044951656,21.945415282392048
2.526662015349347,12.945415282392048
2.527658726203528,-11.054584717607952
2.5286554370577092,-15.054584717607952
2.5296521479118907,-16.054584717607952
2.530648858766072,-27.054584717607952
2.531645569620253,-35.05458471760795
2.532642280474434,-29.054584717607952
2.5336389913286155,-22.054584717607952
2.5346357021827965,-19.054584717607952
2.5356324130369776,-15.054584717607952
2.536629123891159,-2.054584717607952
2.53762583474534,18.945415282392048
2.5386225455995213,26.945415282392048
2.5396192564537023,21.945415282392048
2.540615967307884,24.945415282392048
2.541612678162065,23.945415282392048
2.542609389016246,23.945415282392048
2.5436060998704275,22.945415282392048
2.5446028107246086,17.945415282392048
2.5455995215787897,13.945415282392048
2.546596232432971,-5.054584717607952
2.5475929432871522,-20.054584717607952
2.5485896541413333,-18.054584717607952
2.5495863649955144,-25.054584717607952
2.550583075849696,-27.054584717607952
2.551579786703877,-23.054584717607952
2.552576497558058,-20.054584717607952
2.5535732084122396,-24.054584717607952
2.5545699192664206,-17.054584717607952
2.5555666301206017,-12.054584717607952
2.5565633409747828,19.945415282392048
2.5575600518289643,29.945415282392048
2.5585567626831454,12.945415282392048
2.5595534735373264,10.945415282392048
2.560550184391508,13.945415282392048
2.561546895245689,15.945415282392048
2.56254360609987,7.945415282392048
2.5635403169540516,16.945415282392048
2.5645370278082327,21.945415282392048
2.5655337386624137,18.945415282392048
2.566530449516595,-11.054584717607952
2.5675271603707763,-23.054584717607952
2.5685238712249574,-19.054584717607952
2.5695205820791385,-8.054584717607952
2.57051729293332,-17.054584717607952
2.571514003787501,-27.054584717607952
2.572510714641682,-27.054584717607952
2.573507425495863,-19.054584717607952
2.5745041363500447,-8.054584717607952
2.575500847204226,-4.054584717607952
2.576497558058407,2.945415282392048
2.5774942689125884,5.945415282392048
2.5784909797667694,3.945415282392048
2.5794876906209505,19.945415282392048
2.580484401475132,26.945415282392048
2.581481112329313,24.945415282392048
2.582477823183494,12.945415282392048
2.5834745340376752,21.945415282392048
2.5844712448918568,25.945415282392048
2.585467955746038,17.945415282392048
2.586464666600219,-9.054584717607952
2.5874613774544004,-18.054584717607952
2.5884580883085815,-20.054584717607952
2.5894547991627626,-34.05458471760795
2.590451510016944,-25.054584717607952
2.591448220871125,-10.054584717607952
2.592444931725306,-6.054584717607952
2.5934416425794873,-11.054584717607952
2.594438353433669,-18.054584717607952
2.59543506428785,-10.054584717607952
2.596431775142031,3.945415282392048
2.5974284859962125,9.945415282392048
2.5984251968503935,10.945415282392048
2.5994219077045746,17.945415282392048
2.6004186185587557,25.945415282392048
2.601415329412937,21.945415282392048
2.6024120402671183,7.945415282392048
2.6034087511212993,-0.054584717607951916
2.604405461975481,5.945415282392048
2.605402172829662,16.945415282392048
2.606398883683843,8.945415282392048
2.6073955945380245,7.945415282392048
2.6083923053922056,-2.054584717607952
2.6093890162463866,-28.054584717607952
2.6103857271005677,-25.054584717607952
2.6113824379547492,-27.054584717607952
2.6123791488089303,-23.054584717607952
2.6133758596631114,-15.054584717607952
2.614372570517293,-7.054584717607952
2.615369281371474,-11.054584717607952
2.616365992225655,0.9454152823920481
2.617362703079836,-0.054584717607951916
2.6183594139340176,8.945415282392048
2.6193561247881987,11.945415282392048
2.6203528356423798,7.945415282392048
2.6213495464965613,35.94541528239205
2.6223462573507423,45.94541528239205
2.6233429682049234,37.94541528239205
2.624339679059105,5.945415282392048
2.625336389913286,-3.054584717607952
2.626333100767467,-11.054584717607952
2.627329811621648,-23.054584717607952
2.6283265224758297,-20.054584717607952
2.6293232333300107,-23.054584717607952
2.630319944184192,-11.054584717607952
2.6313166550383733,-16.054584717607952
2.6323133658925544,-18.054584717607952
2.6333100767467355,-23.054584717607952
2.6343067876009165,-21.054584717607952
2.635303498455098,-21.054584717607952
2.636300209309279,-4.054584717607952
2.63729692016346,11.945415282392048
2.6382936310176417,12.945415282392048
2.6392903418718228,27.945415282392048
2.640287052726004,40.94541528239205
2.6412837635801854,46.94541528239205
2.6422804744343664,22.945415282392048
2.6432771852885475,18.945415282392048
2.6442738961427286,10.945415282392048
2.64527060699691,8.945415282392048
2.646267317851091,-3.054584717607952
2.647264028705272,-18.054584717607952
2.6482607395594537,-14.054584717607952
2.649257450413635,-33.05458471760795
2.650254161267816,-30.054584717607952
2.651250872121997,-30.054584717607952
2.6522475829761785,-22.054584717607952
2.6532442938303595,-9.054584717607952
2.6542410046845406,8.945415282392048
2.655237715538722,8.945415282392048
2.656234426392903,19.945415282392048
2.6572311372470843,13.945415282392048
2.6582278481012658,-3.054584717607952
2.659224558955447,18.945415282392048
2.660221269809628,11.945415282392048
2.661217980663809,17.945415282392048
2.6622146915179905,16.945415282392048
2.6632114023721716,16.945415282392048
2.6642081132263526,19.945415282392048
2.665204824080534,18.945415282392048
2.6662015349347152,-3.054584717607952
2.6671982457888963,-18.054584717607952
2.668194956643078,-19.054584717607952
2.669191667497259,-25.054584717607952
2.67018837835144,-30.054584717607952
2.671185089205621,-24.054584717607952
2.6721818000598025,-24.054584717607952
2.6731785109139836,-9.054584717607952
2.6741752217681647,-9.054584717607952
2.675171932622346,-3.054584717607952
2.6761686434765273,3.945415282392048
2.6771653543307083,11.945415282392048
2.6781620651848894,4.945415282392048
2.679158776039071,15.945415282392048
2.680155486893252,25.945415282392048
2.681152197747433,20.945415282392048
2.6821489086016146,17.945415282392048
2.6831456194557957,15.945415282392048
2.6841423303099767,9.945415282392048
2.6851390411641582,7.945415282392048
2.6861357520183393,-3.054584717607952
2.6871324628725204,-14.054584717607952
2.6881291737267015,-22.054584717607952
2.689125884580883,-29.054584717607952
2.690122595435064,-27.054584717607952
2.691119306289245,-18.054584717607952
2.6921160171434266,-16.054584717607952
2.6931127279976077,-13.054584717607952
2.6941094388517888,-8.054584717607952
2.69510614970597,-10.054584717607952
2.6961028605601514,2.945415282392048
2.6970995714143324,15.945415282392048
2.6980962822685135,19.945415282392048
2.699092993122695,26.945415282392048
2.700089703976876,24.945415282392048
2.701086414831057,21.945415282392048
2.7020831256852387,7.945415282392048
2.7030798365394197,10.945415282392048
2.704076547393601,19.945415282392048
2.705073258247782,8.945415282392048
2.7060699691019634,-15.054584717607952
2.7070666799561445,-23.054584717607952
2.7080633908103255,-17.054584717607952
2.709060101664507,-13.054584717607952
2.710056812518688,-17.054584717607952
2.711053523372869,-20.054584717607952
2.7120502342270503,-26.054584717607952
2.713046945081232,-12.054584717607952
2.714043655935413,-7.054584717607952
2.715040366789594,-23.054584717607952
2.7160370776437754,2.945415282392048
2.7170337884979565,20.945415282392048
2.7180304993521376,1.945415282392048
2.719027210206319,12.945415282392048
2.7200239210605,23.945415282392048
2.7210206319146812,35.94541528239205
2.7220173427688623,28.945415282392048
2.723014053623044,10.945415282392048
2.724010764477225,4.945415282392048
2.725007475331406,3.945415282392048
2.7260041861855875,-5.054584717607952
2.7270008970397686,-13.054584717607952
2.7279976078939496,10.945415282392048
2.7289943187481307,-0.054584717607951916
2.729991029602312,-27.054584717607952
2.7309877404564933,-42.05458471760795
2.7319844513106744,-26.054584717607952
2.732981162164856,-4.054584717607952
2.733977873019037,-3.054584717607952
2.734974583873218,-15.054584717607952
2.7359712947273995,15.945415282392048
2.7369680055815806,16.945415282392048
2.7379647164357617,-0.054584717607951916
2.7389614272899427,0.9454152823920481
2.7399581381441243,17.945415282392048
2.7409548489983053,26.945415282392048
2.7419515598524864,17.945415282392048
2.742948270706668,15.945415282392048
2.743944981560849,28.945415282392048
2.74494169241503,24.945415282392048
2.7459384032692116,-12.054584717607952
2.7469351141233926,-16.054584717607952
2.7479318249775737,-15.054584717607952
2.748928535831755,-23.054584717607952
2.7499252466859363,-27.054584717607952
2.7509219575401174,-24.054584717607952
2.7519186683942984,-25.054584717607952
2.75291537924848,-12.054584717607952
2.753912090102661,0.9454152823920481
2.754908800956842,-8.054584717607952
2.755905511811023,9.945415282392048
2.7569022226652047,13.945415282392048
2.7578989335193858,1.945415282392048
2.758895644373567,12.945415282392048
2.7598923552277483,15.945415282392048
2.7608890660819294,22.945415282392048
2.7618857769361105,13.945415282392048
2.762882487790292,8.945415282392048
2.763879198644473,11.945415282392048
2.764875909498654,13.945415282392048
2.765872620352835,6.945415282392048
2.7668693312070167,-6.054584717607952
2.767866042061198,-13.054584717607952
2.768862752915379,-24.054584717607952
2.7698594637695604,-20.054584717607952
2.7708561746237415,-19.054584717607952
2.7718528854779225,-21.054584717607952
2.7728495963321036,-21.054584717607952
2.773846307186285,-16.054584717607952
2.774843018040466,-10.054584717607952
2.7758397288946473,5.945415282392048
2.7768364397488288,9.945415282392048
2.77783315060301,10.945415282392048
2.778829861457191,17.945415282392048
2.7798265723113724,29.945415282392048
2.7808232831655535,20.945415282392048
2.7818199940197346,9.945415282392048
2.7828167048739156,5.945415282392048
2.783813415728097,7.945415282392048
2.7848101265822782,10.945415282392048
2.7858068374364593,-3.054584717607952
2.786803548290641,-10.054584717607952
2.787800259144822,-8.054584717607952
2.788796969999003,-14.054584717607952
2.789793680853184,-20.054584717607952
2.7907903917073655,-24.054584717607952
2.7917871025615466,-14.054584717607952
2.7927838134157277,-16.054584717607952
2.793780524269909,-10.054584717607952
2.7947772351240903,-6.054584717607952
2.7957739459782713,-0.054584717607951916
2.796770656832453,5.945415282392048
2.797767367686634,8.945415282392048
2.798764078540815,18.945415282392048
2.799760789394996,28.945415282392048
2.8007575002491776,30.945415282392048
2.8017542111033586,19.945415282392048
2.8027509219575397,13.945415282392048
2.8037476328117212,7.945415282392048
2.8047443436659023,7.945415282392048
2.8057410545200834,-8.054584717607952
2.8067377653742644,-11.054584717607952
2.807734476228446,-7.054584717607952
2.808731187082627,-16.054584717607952
2.809727897936808,-18.054584717607952
2.8107246087909896,-20.054584717607952
2.8117213196451707,-23.054584717607952
2.8127180304993518,-27.054584717607952
2.8137147413535333,-13.054584717607952
2.8147114522077143,0.9454152823920481
2.8157081630618954,9.945415282392048
2.8167048739160765,16.945415282392048
2.817701584770258,6.945415282392048
2.818698295624439,6.945415282392048
2.81969500647862,19.945415282392048
2.8206917173328017,18.945415282392048
2.8216884281869827,12.945415282392048
2.822685139041164,14.945415282392048
2.8236818498953453,16.945415282392048
2.8246785607495264,24.945415282392048
2.8256752716037075,3.945415282392048
2.8266719824578885,-11.054584717607952
2.82766869331207,-11.054584717607952
2.828665404166251,-18.054584717607952
2.829662115020432,-36.05458471760795
2.8306588258746137,-39.05458471760795
2.8316555367287948,-29.054584717607952
2.832652247582976,-17.054584717607952
2.833648958437157,-15.054584717607952
2.8346456692913384,-13.054584717607952
2.8356423801455195,10.945415282392048
2.8366390909997006,26.945415282392048
2.837635801853882,19.945415282392048
2.838632512708063,18.945415282392048
2.8396292235622442,16.945415282392048
2.8406259344164257,18.945415282392048
2.841622645270607,19.945415282392048
2.842619356124788,13.945415282392048
2.843616066978969,9.945415282392048
2.8446127778331505,11.945415282392048
2.8456094886873315,-3.054584717607952
2.8466061995415126,-18.054584717607952
2.847602910395694,-11.054584717607952
2.848599621249875,-16.054584717607952
2.8495963321040563,-24.054584717607952
2.8505930429582373,-30.054584717607952
2.851589753812419,-21.054584717607952
2.8525864646666,-9.054584717607952
2.853583175520781,-10.054584717607952
2.8545798863749625,-9.054584717607952
2.8555765972291436,-2.054584717607952
2.8565733080833247,5.945415282392048
2.857570018937506,9.945415282392048
2.8585667297916872,18.945415282392048
2.8595634406458683,28.945415282392048
2.8605601515000494,38.94541528239205
2.861556862354231,35.94541528239205
2.862553573208412,19.945415282392048
2.863550284062593,16.945415282392048
2.8645469949167746,14.945415282392048
2.8655437057709556,-11.054584717607952
2.8665404166251367,-26.054584717607952
2.8675371274793178,-24.054584717607952
2.8685338383334993,-31.054584717607952
2.8695305491876804,-29.054584717607952
2.8705272600418614,-37.05458471760795
2.871523970896043,-26.054584717607952
2.872520681750224,-20.054584717607952
2.873517392604405,-10.054584717607952
2.8745141034585866,-4.054584717607952
2.8755108143127677,14.945415282392048
2.8765075251669487,22.945415282392048
2.87750423602113,20.945415282392048
2.8785009468753113,26.945415282392048
2.8794976577294924,34.94541528239205
2.8804943685836735,32.94541528239205
2.881491079437855,13.945415282392048
2.882487790292036,0.9454152823920481
2.883484501146217,4.945415282392048
2.8844812120003986,7.945415282392048
2.8854779228545797,-4.054584717607952
2.886474633708761,-13.054584717607952
2.887471344562942,-12.054584717607952
2.8884680554171234,-19.054584717607952
2.8894647662713044,-23.054584717607952
2.8904614771254855,-16.054584717607952
2.891458187979667,-21.054584717607952
2.892454898833848,-23.054584717607952
2.893451609688029,-7.054584717607952
2.8944483205422102,-13.054584717607952
2.8954450313963918,3.945415282392048
2.896441742250573,15.945415282392048
2.897438453104754,8.945415282392048
2.8984351639589354,23.945415282392048
2.8994318748131165,23.945415282392048
2.9004285856672976,23.945415282392048
2.901425296521479,16.945415282392048
2.90242200737566,19.945415282392048
2.903418718229841,35.94541528239205
2.9044154290840223,20.945415282392048
2.905412139938204,-3.054584717607952
2.906408850792385,-21.054584717607952
2.907405561646566,-25.054584717607952
2.9084022725007475,-32.05458471760795
2.9093989833549285,-37.05458471760795
2.9103956942091096,-31.054584717607952
2.9113924050632907,-26.054584717607952
2.912389115917472,-20.054584717607952
2.9133858267716533,-7.054584717607952
2.9143825376258343,-1.054584717607952
2.915379248480016,0.9454152823920481
2.916375959334197,7.945415282392048
2.917372670188378,7.945415282392048
2.9183693810425595,18.945415282392048
2.9193660918967406,27.945415282392048
2.9203628027509216,31.945415282392048
2.9213595136051027,23.945415282392048
2.9223562244592842,18.945415282392048
2.9233529353134653,14.945415282392048
2.9243496461676464,12.945415282392048
2.925346357021828,-7.054584717607952
2.926343067876009,-5.054584717607952
2.92733977873019,-6.054584717607952
2.928336489584371,-10.054584717607952
2.9293332004385526,-21.054584717607952
2.9303299112927337,-35.05458471760795
2.9313266221469148,-28.054584717607952
2.9323233330010963,-11.054584717607952
2.9333200438552773,-16.054584717607952
2.9343167547094584,-20.054584717607952
2.93531346556364,-5.054584717607952
2.936310176417821,9.945415282392048
2.937306887272002,13.945415282392048
2.938303598126183,16.945415282392048
2.9393003089803647,25.945415282392048
2.9402970198345457,31.945415282392048
2.941293730688727,24.945415282392048
2.9422904415429083,16.945415282392048
2.9432871523970894,20.945415282392048
2.9442838632512704,22.945415282392048
2.9452805741054515,0.9454152823920481
2.946277284959633,-8.054584717607952
2.947273995813814,-17.054584717607952
2.948270706667995,-36.05458471760795
2.9492674175221767,-35.05458471760795
2.9502641283763578,-32.05458471760795
2.951260839230539,-24.054584717607952
2.9522575500847204,-15.054584717607952
2.9532542609389014,-13.054584717607952
2.9542509717930825,-17.054584717607952
2.9552476826472636,3.945415282392048
2.956244393501445,14.945415282392048
2.957241104355626,21.945415282392048
2.958237815209807,25.945415282392048
2.9592345260639887,20.945415282392048
2.96023123691817,20.945415282392048
2.961227947772351,23.945415282392048
2.9622246586265324,32.94541528239205
2.9632213694807135,21.945415282392048
2.9642180803348945,8.945415282392048
2.9652147911890756,-14.054584717607952
2.966211502043257,-22.054584717607952
2.967208212897438,-19.054584717607952
2.9682049237516193,-28.054584717607952
2.9692016346058008,-24.054584717607952
2.970198345459982,-22.054584717607952
2.971195056314163,-15.054584717607952
2.972191767168344,-20.054584717607952
2.9731884780225255,-13.054584717607952
2.9741851888767066,-13.054584717607952
2.9751818997308876,4.945415282392048
2.976178610585069,12.945415282392048
2.9771753214392502,18.945415282392048
2.9781720322934313,29.945415282392048
2.979168743147613,15.945415282392048
2.980165454001794,32.94541528239205
2.981162164855975,34.94541528239205
2.982158875710156,9.945415282392048
2.9831555865643375,10.945415282392048
2.9841522974185186,5.945415282392048
2.9851490082726997,-2.054584717607952
2.986145719126881,-12.054584717607952
2.9871424299810623,-16.054584717607952
2.9881391408352433,-39.05458471760795
2.9891358516894244,-38.05458471760795
2.990132562543606,-23.054584717607952
2.991129273397787,-29.054584717607952
2.992125984251968,-24.054584717607952
2.9931226951061496,-5.054584717607952
2.9941194059603307,3.945415282392048
2.9951161168145117,17.945415282392048
2.9961128276686932,16.945415282392048
2.9971095385228743,9.945415282392048
2.9981062493770554,11.945415282392048
2.9991029602312365,30.945415282392048
3.000099671085418,35.94541528239205
3.001096381939599,27.945415282392048
3.00209309279378,27.945415282392048
3.0030898036479616,13.945415282392048
3.0040865145021427,7.945415282392048
3.0050832253563238,-19.054584717607952
3.006079936210505,-26.054584717607952
3.0070766470646864,-13.054584717607952
3.0080733579188674,-27.054584717607952
3.0090700687730485,-27.054584717607952
3.01006677962723,-25.054584717607952
3.011063490481411,-16.054584717607952
3.012060201335592,-8.054584717607952
3.0130569121897737,-9.054584717607952
3.0140536230439547,-20.054584717607952
3.015050333898136,-8.054584717607952
3.016047044752317,14.945415282392048
3.0170437556064984,9.945415282392048
3.0180404664606795,8.945415282392048
3.0190371773148605,25.945415282392048
3.020033888169042,35.94541528239205
3.021030599023223,23.945415282392048
3.022027309877404,19.945415282392048
3.0230240207315853,16.945415282392048
3.024020731585767,19.945415282392048
3.025017442439948,0.9454152823920481
3.026014153294129,-18.054584717607952
3.0270108641483104,-13.054584717607952
3.0280075750024915,-10.054584717607952
3.0290042858566726,-20.054584717607952
3.030000996710854,-24.054584717607952
3.030997707565035,-27.054584717607952
3.0319944184192162,-28.054584717607952
3.0329911292733973,-24.054584717607952
3.033987840127579,-20.054584717607952
3.03498455098176,-5.054584717607952
3.035981261835941,15.945415282392048
3.0369779726901225,19.945415282392048
3.0379746835443036,35.94541528239205
3.0389713943984846,32.94541528239205
3.039968105252666,25.945415282392048
3.040964816106847,16.945415282392048
3.0419615269610283,18.945415282392048
3.0429582378152094,17.945415282392048
3.043954948669391,8.945415282392048
3.044951659523572,-4.054584717607952
3.045948370377753,-21.054584717607952
3.0469450812319345,-24.054584717607952
3.0479417920861156,-32.05458471760795
3.0489385029402967,-31.054584717607952
3.0499352137944777,-15.054584717607952
3.0509319246486593,-5.054584717607952
3.0519286355028403,-9.054584717607952
3.0529253463570214,-9.054584717607952
3.053922057211203,-5.054584717607952
3.054918768065384,-5.054584717607952
3.055915478919565,3.945415282392048
3.0569121897737466,11.945415282392048
3.0579089006279276,23.945415282392048
3.0589056114821087,31.945415282392048
3.05990232233629,31.945415282392048
3.0608990331904713,24.945415282392048
3.0618957440446524,15.945415282392048
3.0628924548988334,9.945415282392048
3.063889165753015,4.945415282392048
3.064885876607196,-10.054584717607952
3.065882587461377,-20.054584717607952
3.066879298315558,-18.054584717607952
3.0678760091697397,-28.054584717607952
3.0688727200239208,-29.054584717607952
3.069869430878102,-20.054584717607952
3.0708661417322833,-5.054584717607952
3.0718628525864644,-8.054584717607952
3.0728595634406455,-22.054584717607952
3.073856274294827,-30.054584717607952
3.074852985149008,-9.054584717607952
3.075849696003189,12.945415282392048
3.07684640685737,18.945415282392048
3.0778431177115517,36.94541528239205
3.078839828565733,31.945415282392048
3.079836539419914,34.94541528239205
3.0808332502740954,14.945415282392048
3.0818299611282765,18.945415282392048
3.0828266719824575,19.945415282392048
3.0838233828366386,18.945415282392048
3.08482009369082,-0.054584717607951916
3.085816804545001,-20.054584717607952
3.0868135153991823,-25.054584717607952
3.0878102262533638,-29.054584717607952
3.088806937107545,-26.054584717607952
3.089803647961726,-34.05458471760795
3.0908003588159074,-20.054584717607952
3.0917970696700885,-11.054584717607952
3.0927937805242696,-10.054584717607952
3.0937904913784506,-23.054584717607952
3.094787202232632,-12.054584717607952
3.095783913086813,3.945415282392048
3.0967806239409943,11.945415282392048
3.097777334795176,37.94541528239205
3.098774045649357,45.94541528239205
3.099770756503538,41.94541528239205
3.1007674673577195,20.945415282392048
3.1017641782119005,16.945415282392048
3.1027608890660816,11.945415282392048
3.1037575999202627,3.945415282392048
3.104754310774444,-17.054584717607952
3.1057510216286253,-21.054584717607952
3.1067477324828063,-2.054584717607952
3.107744443336988,-23.054584717607952
3.108741154191169,-35.05458471760795
3.10973786504535,-30.054584717607952
3.110734575899531,-14.054584717607952
3.1117312867537126,-8.054584717607952
3.1127279976078936,-12.054584717607952
3.1137247084620747,-10.054584717607952
3.1147214193162562,3.945415282392048
3.1157181301704373,8.945415282392048
3.1167148410246184,7.945415282392048
3.1177115518788,16.945415282392048
3.118708262732981,23.945415282392048
3.119704973587162,29.945415282392048
3.120701684441343,25.945415282392048
3.1216983952955246,18.945415282392048
3.1226951061497057,10.945415282392048
3.1236918170038868,13.945415282392048
3.1246885278580683,-8.054584717607952
3.1256852387122493,-15.054584717607952
3.1266819495664304,-5.054584717607952
3.1276786604206115,-12.054584717607952
3.128675371274793,-24.054584717607952
3.129672082128974,-29.054584717607952
3.130668792983155,-35.05458471760795
3.1316655038373367,-31.054584717607952
3.1326622146915177,-22.054584717607952
3.133658925545699,-7.054584717607952
3.1346556363998803,15.945415282392048
3.1356523472540614,26.945415282392048
3.1366490581082425,17.945415282392048
3.1376457689624235,19.945415282392048
3.138642479816605,18.945415282392048
3.139639190670786,20.945415282392048
