Time,EMG
0.0,56.13990005552472
0.0009994503023337165,50.13990005552472
0.001998900604667433,18.13990005552472
0.002998350907001149,-40.86009994447528
0.003997801209334866,-51.86009994447528
0.004997251511668582,-53.86009994447528
0.005996701814002299,-26.860099944475284
0.006996152116336016,18.13990005552472
0.007995602418669732,19.13990005552472
0.008995052721003448,21.13990005552472
0.009994503023337164,10.139900055524722
0.010993953325670882,5.13990005552472
0.011993403628004598,-4.86009994447528
0.012992853930338314,-18.86009994447528
0.013992304232672031,-30.860099944475284
0.014991754535005748,-7.86009994447528
0.015991204837339464,43.13990005552472
0.01699065513967318,60.13990005552472
0.017990105442006896,61.13990005552472
0.018989555744340608,39.13990005552472
0.019989006046674328,13.139900055524722
0.020988456349008047,-23.860099944475284
0.021987906651341763,-42.86009994447528
0.022987356953675483,-51.86009994447528
0.023986807256009195,-47.86009994447528
0.024986257558342908,-24.860099944475284
0.025985707860676627,-11.860099944475278
0.026985158163010343,-5.86009994447528
0.027984608465344063,6.13990005552472
0.028984058767677782,17.13990005552472
0.029983509070011495,12.139900055524722
0.03098295937234521,-4.86009994447528
0.031982409674678934,2.13990005552472
0.03298185997701265,33.13990005552472
0.03398131027934636,25.139900055524716
0.03498076058168008,57.13990005552472
0.035980210884013784,37.13990005552472
0.03697966118634751,-2.86009994447528
0.037979111488681216,-6.86009994447528
0.038978561791014936,-16.86009994447528
0.039978012093348655,-59.86009994447528
0.040977462395682375,-55.86009994447528
0.041976912698016094,-31.860099944475284
0.042976363000349814,-0.8600999444752802
0.043975813302683534,1.1399000555247198
0.04497526360501724,5.13990005552472
0.045974713907350966,12.139900055524722
0.04697416420968467,12.139900055524722
0.04797361451201839,2.13990005552472
0.04897306481435211,12.139900055524722
0.049972515116685816,-3.86009994447528
0.050971965419019535,-9.860099944475278
0.051971415721353255,16.13990005552472
0.052970866023686974,-3.86009994447528
0.05397031632602069,-25.860099944475284
0.054969766628354406,-26.860099944475284
0.055969216930688126,-4.86009994447528
0.05696866723302184,6.13990005552472
0.057968117535355565,8.13990005552472
0.05896756783768928,1.1399000555247198
0.05996701814002299,-4.86009994447528
0.0609664684423567,17.13990005552472
0.06196591874469042,36.13990005552472
0.06296536904702414,47.13990005552472
0.06396481934935785,25.139900055524716
0.06496426965169158,15.139900055524722
0.0659637199540253,-12.860099944475278
0.066963170256359,-39.86009994447528
0.06796262055869272,-19.86009994447528
0.06896207086102643,-4.86009994447528
0.06996152116336016,-20.86009994447528
0.07096097146569387,-20.86009994447528
0.07196042176802757,-0.8600999444752802
0.07295987207036131,26.139900055524716
0.07395932237269502,40.13990005552472
0.07495877267502872,36.13990005552472
0.07595822297736245,36.13990005552472
0.07695767327969617,36.13990005552472
0.07795712358202989,10.139900055524722
0.0789565738843636,-30.860099944475284
0.07995602418669731,-45.86009994447528
0.08095547448903104,-38.86009994447528
0.08195492479136475,-27.860099944475284
0.08295437509369846,-34.86009994447528
0.08395382539603219,-34.86009994447528
0.0849532756983659,-29.860099944475284
0.08595272600069961,-28.860099944475284
0.08695217630303333,-4.86009994447528
0.08795162660536705,25.139900055524716
0.08895107690770078,53.13990005552472
0.08995052721003448,61.13990005552472
0.0909499775123682,40.13990005552472
0.09194942781470193,15.139900055524722
0.09294887811703564,23.139900055524716
0.09394832841936934,0.13990005552471985
0.09494777872170307,-28.860099944475284
0.09594722902403678,-37.86009994447528
0.0969466793263705,-13.860099944475278
0.09794612962870422,-3.86009994447528
0.09894557993103792,-18.86009994447528
0.09994503023337163,-22.860099944475284
0.10094448053570536,-25.860099944475284
0.10194393083803907,-12.860099944475278
0.1029433811403728,-7.86009994447528
0.10394283144270652,2.13990005552472
0.10494228174504024,9.139900055524722
0.10594173204737396,36.13990005552472
0.10694118234970766,65.13990005552472
0.10794063265204136,45.13990005552472
0.1089400829543751,-1.86009994447528
0.1099395332567088,-31.860099944475284
0.11093898355904253,-30.860099944475284
0.11193843386137624,3.13990005552472
0.11293788416370995,17.13990005552472
0.11393733446604368,8.13990005552472
0.1149367847683774,24.139900055524716
0.11593623507071113,22.139900055524716
0.11693568537304486,-12.860099944475278
0.11793513567537856,-49.86009994447528
0.11893458597771225,-54.86009994447528
0.11993403628004598,-51.86009994447528
0.12093348658237968,-28.860099944475284
0.1219329368847134,12.139900055524722
0.12293238718704713,45.13990005552472
0.12393183748938084,75.13990005552472
0.12493128779171454,118.1399000555247
0.12593073809404828,53.13990005552472
0.12693018839638198,-35.86009994447528
0.1279296386987157,-75.86009994447528
0.12892908900104946,-51.86009994447528
0.12992853930338313,-12.860099944475278
0.13092798960571686,24.139900055524716
0.1319274399080506,4.13990005552472
0.13292689021038429,-29.860099944475284
0.133926340512718,-30.860099944475284
0.1349257908150517,-12.860099944475278
0.13592524111738544,-23.860099944475284
0.13692469141971916,-10.860099944475278
0.13792414172205286,9.139900055524722
0.1389235920243866,10.139900055524722
0.13992304232672031,18.13990005552472
0.140922492629054,34.13990005552472
0.14192194293138774,16.13990005552472
0.14292139323372147,-11.860099944475278
0.14392084353605514,-4.86009994447528
0.1449202938383889,11.139900055524722
0.14591974414072262,40.13990005552472
0.14691919444305632,36.13990005552472
0.14791864474539004,14.139900055524722
0.14891809504772374,-2.86009994447528
0.14991754535005747,-2.86009994447528
0.1509169956523912,-2.86009994447528
0.1519164459547249,-42.86009994447528
0.15291589625705862,-69.86009994447528
0.15391534655939235,-42.86009994447528
0.15491479686172605,-6.86009994447528
0.15591424716405974,0.13990005552471985
0.1569136974663935,-4.86009994447528
0.1579131477687272,4.13990005552472
0.15891259807106092,-7.86009994447528
0.15991204837339462,16.13990005552472
0.16091149867572835,7.13990005552472
0.16191094897806207,-12.860099944475278
0.16291039928039575,-12.860099944475278
0.1639098495827295,3.13990005552472
0.16490929988506325,17.13990005552472
0.16590875018739693,19.13990005552472
0.16690820048973065,22.139900055524716
0.16790765079206438,21.13990005552472
0.16890710109439808,26.139900055524716
0.1699065513967318,11.139900055524722
0.17090600169906553,8.13990005552472
0.17190545200139926,8.13990005552472
0.17290490230373295,10.139900055524722
0.17390435260606665,11.139900055524722
0.17490380290840038,8.13990005552472
0.1759032532107341,-6.86009994447528
0.1769027035130678,-17.86009994447528
0.17790215381540153,-19.86009994447528
0.17890160411773526,-20.86009994447528
0.17990105442006896,-41.86009994447528
0.18090050472240268,-53.86009994447528
0.1818999550247364,-55.86009994447528
0.1828994053270701,-14.860099944475278
0.18389885562940386,1.1399000555247198
0.1848983059317376,33.13990005552472
0.1858977562340713,81.13990005552472
0.18689720653640501,92.1399000555247
0.18789665683873868,118.1399000555247
0.1888961071410724,72.13990005552472
0.18989555744340614,-1.86009994447528
0.19089500774573984,-43.86009994447528
0.1918944580480736,-85.86009994447528
0.1928939083504073,-103.8600999444753
0.19389335865274102,-91.8600999444753
0.19489280895507471,-64.86009994447528
0.19589225925740844,-26.860099944475284
0.1968917095597421,-17.86009994447528
0.19789115986207587,-0.8600999444752802
0.1988906101644096,16.13990005552472
0.1998900604667433,41.13990005552472
0.20088951076907705,61.13990005552472
0.20188896107141072,85.13990005552472
0.20288841137374444,68.13990005552472
0.20388786167607814,50.13990005552472
0.20488731197841187,36.13990005552472
0.2058867622807456,22.139900055524716
0.20688621258307927,-28.860099944475284
0.20788566288541305,-63.86009994447528
0.20888511318774675,-60.86009994447528
0.20988456349008047,-46.86009994447528
0.21088401379241414,-28.860099944475284
0.2118834640947479,-10.860099944475278
0.2128829143970816,1.1399000555247198
0.21388236469941527,0.13990005552471985
0.21488181500174905,-9.860099944475278
0.21588126530408275,-7.86009994447528
0.21688071560641647,0.13990005552471985
0.2178801659087502,0.13990005552471985
0.2188796162110839,13.139900055524722
0.21987906651341765,33.13990005552472
0.22087851681575132,8.13990005552472
0.22187796711808505,2.13990005552472
0.2228774174204188,6.13990005552472
0.2238768677227525,1.1399000555247198
0.2248763180250862,0.13990005552471985
0.22587576832741996,1.1399000555247198
0.22687521862975366,-5.86009994447528
0.2278746689320873,-6.86009994447528
0.2288741192344211,-14.860099944475278
0.2298735695367548,-1.86009994447528
0.2308730198390885,11.139900055524722
0.23187247014142226,-0.8600999444752802
0.23287192044375596,9.139900055524722
0.2338713707460897,32.13990005552472
0.23487082104842336,67.13990005552472
0.2358702713507571,36.13990005552472
0.2368697216530908,-17.86009994447528
0.2378691719554245,-21.860099944475284
0.23886862225775826,-36.86009994447528
0.239868072560092,-79.86009994447528
0.2408675228624257,-79.86009994447528
0.24186697316475936,-14.860099944475278
0.2428664234670931,41.13990005552472
0.2438658737694268,54.13990005552472
0.2448653240717605,54.13990005552472
0.24586477437409426,24.139900055524716
0.246864224676428,-34.86009994447528
0.2478636749787617,-16.86009994447528
0.24886312528109544,18.13990005552472
0.2498625755834291,12.139900055524722
0.25086202588576284,16.13990005552472
0.25186147618809657,33.13990005552472
0.2528609264904303,16.13990005552472
0.253860376792764,-17.86009994447528
0.2548598270950977,-38.86009994447528
0.2558592773974314,-39.86009994447528
0.25685872769976514,-18.86009994447528
0.2578581780020989,4.13990005552472
0.2588576283044325,15.139900055524722
0.2598570786067663,39.13990005552472
0.2608565289091,24.139900055524716
0.2618559792114337,-2.86009994447528
0.26285542951376745,-20.86009994447528
0.2638548798161012,-40.86009994447528
0.26485433011843484,-26.860099944475284
0.26585378042076857,-6.86009994447528
0.2668532307231023,0.13990005552471985
0.267852681025436,20.13990005552472
0.2688521313277697,15.139900055524722
0.2698515816301034,7.13990005552472
0.27085103193243715,8.13990005552472
0.2718504822347709,5.13990005552472
0.2728499325371046,4.13990005552472
0.2738493828394383,22.139900055524716
0.27484883314177205,15.139900055524722
0.2758482834441057,-26.860099944475284
0.27684773374643945,-32.86009994447528
0.2778471840487732,-0.8600999444752802
0.2788466343511069,5.13990005552472
0.27984608465344063,-34.86009994447528
0.2808455349557744,-43.86009994447528
0.281844985258108,17.13990005552472
0.2828444355604417,17.13990005552472
0.2838438858627755,0.13990005552471985
0.2848433361651092,14.139900055524722
0.2858427864674429,15.139900055524722
0.2868422367697766,7.13990005552472
0.28784168707211033,9.139900055524722
0.2888411373744441,19.13990005552472
0.2898405876767778,6.13990005552472
0.2908400379791115,-14.860099944475278
0.29183948828144524,-7.86009994447528
0.2928389385837789,2.13990005552472
0.29383838888611263,4.13990005552472
0.2948378391884464,-6.86009994447528
0.2958372894907801,-29.860099944475284
0.2968367397931138,-30.860099944475284
0.2978361900954475,-26.860099944475284
0.2988356403977812,-14.860099944475278
0.2998350907001149,1.1399000555247198
0.30083454100244866,14.139900055524722
0.3018339913047824,15.139900055524722
0.3028334416071161,36.13990005552472
0.3038328919094498,43.13990005552472
0.3048323422117835,55.13990005552472
0.30583179251411724,61.13990005552472
0.30683124281645097,32.13990005552472
0.3078306931187847,-8.860099944475278
0.3088301434211184,4.13990005552472
0.3098295937234521,15.139900055524722
0.3108290440257858,17.13990005552472
0.31182849432811954,-26.860099944475284
0.3128279446304533,-81.86009994447528
0.313827394932787,-110.8600999444753
0.3148268452351207,-75.86009994447528
0.3158262955374544,-15.860099944475278
0.3168257458397881,16.13990005552472
0.31782519614212185,17.13990005552472
0.3188246464444556,8.13990005552472
0.31982409674678924,3.13990005552472
0.32082354704912297,8.13990005552472
0.3218229973514567,23.139900055524716
0.3228224476537904,13.139900055524722
0.3238218979561241,18.13990005552472
0.3248213482584579,35.13990005552472
0.32582079856079155,29.139900055524716
0.3268202488631253,-54.86009994447528
0.327819699165459,-40.86009994447528
0.3288191494677927,15.139900055524722
0.32981859977012645,51.13990005552472
0.3308180500724602,64.13990005552472
0.33181750037479385,27.139900055524716
0.3328169506771276,-35.86009994447528
0.3338164009794613,-34.86009994447528
0.33481585128179503,-24.860099944475284
0.3358153015841288,-19.86009994447528
0.3368147518864624,-23.860099944475284
0.3378142021887961,-24.860099944475284
0.3388136524911299,-2.86009994447528
0.3398131027934636,5.13990005552472
0.3408125530957973,-18.86009994447528
0.34181200339813106,-3.86009994447528
0.34281145370046473,36.13990005552472
0.3438109040027985,52.13990005552472
0.3448103543051322,27.139900055524716
0.3458098046074659,19.13990005552472
0.34680925490979964,3.13990005552472
0.3478087052121333,-8.860099944475278
0.34880815551446703,-3.86009994447528
0.3498076058168008,1.1399000555247198
0.3508070561191345,-6.86009994447528
0.3518065064214682,-12.860099944475278
0.35280595672380194,-8.860099944475278
0.3538054070261356,-5.86009994447528
0.3548048573284693,5.13990005552472
0.35580430763080306,7.13990005552472
0.3568037579331368,1.1399000555247198
0.3578032082354705,11.139900055524722
0.3588026585378042,-3.86009994447528
0.3598021088401379,5.13990005552472
0.3608015591424717,18.13990005552472
0.36180100944480537,-6.86009994447528
0.3628004597471391,-27.860099944475284
0.3637999100494728,-21.860099944475284
0.3647993603518065,-26.860099944475284
0.3657988106541402,-23.860099944475284
0.3667982609564739,-7.86009994447528
0.3677977112588077,-3.86009994447528
0.3687971615611414,-1.86009994447528
0.3697966118634751,-17.86009994447528
0.3707960621658088,-31.860099944475284
0.3717955124681425,-7.86009994447528
0.37279496277047625,29.139900055524716
0.37379441307281003,84.13990005552472
0.3747938633751437,87.1399000555247
0.37579331367747737,42.13990005552472
0.3767927639798111,4.13990005552472
0.3777922142821448,-39.86009994447528
0.37879166458447855,-58.86009994447528
0.3797911148868123,-55.86009994447528
0.380790565189146,-27.860099944475284
0.3817900154914797,-7.86009994447528
0.3827894657938134,17.13990005552472
0.3837889160961471,22.139900055524716
0.3847883663984809,33.13990005552472
0.3857878167008146,24.139900055524716
0.38678726700314825,8.13990005552472
0.38778671730548203,-7.86009994447528
0.3887861676078157,-31.860099944475284
0.38978561791014943,-30.860099944475284
0.3907850682124832,-26.860099944475284
0.3917845185148169,1.1399000555247198
0.39278396881715055,48.13990005552472
0.3937834191194843,58.13990005552472
0.39478286942181795,36.13990005552472
0.3957823197241517,20.13990005552472
0.3967817700264855,0.13990005552471985
0.3977812203288191,-22.860099944475284
0.3987806706311529,-22.860099944475284
0.3997801209334866,-21.860099944475284
0.4007795712358203,-1.86009994447528
0.4017790215381541,-8.860099944475278
0.40277847184048776,-27.860099944475284
0.40377792214282143,-37.86009994447528
0.4047773724451552,-26.860099944475284
0.4057768227474889,4.13990005552472
0.4067762730498226,24.139900055524716
0.4077757233521563,38.13990005552472
0.4087751736544901,29.139900055524716
0.4097746239568237,28.139900055524716
0.4107740742591575,19.13990005552472
0.4117735245614912,-3.86009994447528
0.4127729748638249,-12.860099944475278
0.41377242516615853,-14.860099944475278
0.4147718754684923,-21.860099944475284
0.4157713257708261,-10.860099944475278
0.41677077607315977,8.13990005552472
0.4177702263754935,-5.86009994447528
0.4187696766778272,-20.86009994447528
0.41976912698016094,-16.86009994447528
0.4207685772824946,1.1399000555247198
0.4217680275848283,-5.86009994447528
0.4227674778871621,4.13990005552472
0.4237669281894958,3.13990005552472
0.4247663784918295,-25.860099944475284
0.4257658287941632,-31.860099944475284
0.4267652790964969,-10.860099944475278
0.42776472939883065,19.13990005552472
0.4287641797011644,52.13990005552472
0.4297636300034981,57.13990005552472
0.4307630803058318,47.13990005552472
0.4317625306081655,-0.8600999444752802
0.4327619809104992,-30.860099944475284
0.43376143121283295,0.13990005552471985
0.4347608815151667,49.13990005552472
0.4357603318175004,51.13990005552472
0.4367597821198341,20.13990005552472
0.4377592324221678,16.13990005552472
0.4387586827245015,-11.860099944475278
0.4397581330268353,-67.86009994447528
0.440757583329169,-91.8600999444753
0.4417570336315027,-73.86009994447528
0.4427564839338364,-39.86009994447528
0.4437559342361701,-10.860099944475278
0.44475538453850383,-7.86009994447528
0.4457548348408376,20.13990005552472
0.4467542851431713,38.13990005552472
0.447753735445505,27.139900055524716
0.4487531857478387,24.139900055524716
0.4497526360501724,14.139900055524722
0.4507520863525061,-4.86009994447528
0.4517515366548399,-14.860099944475278
0.4527509869571736,-11.860099944475278
0.4537504372595073,-3.86009994447528
0.45474988756184104,3.13990005552472
0.4557493378641747,-0.8600999444752802
0.4567487881665084,-10.860099944475278
0.4577482384688422,-3.86009994447528
0.4587476887711759,-5.86009994447528
0.4597471390735096,-5.86009994447528
0.4607465893758433,-1.86009994447528
0.461746039678177,28.139900055524716
0.4627454899805107,63.13990005552472
0.4637449402828445,73.13990005552472
0.4647443905851781,61.13990005552472
0.4657438408875119,13.139900055524722
0.4667432911898456,-14.860099944475278
0.4677427414921793,-11.860099944475278
0.468742191794513,1.1399000555247198
0.4697416420968468,-6.86009994447528
0.4707410923991805,-37.86009994447528
0.4717405427015142,-63.86009994447528
0.4727399930038479,-63.86009994447528
0.4737394433061816,-43.86009994447528
0.4747388936085154,-28.860099944475284
0.475738343910849,-13.860099944475278
0.4767377942131827,7.13990005552472
0.4777372445155165,4.13990005552472
0.4787366948178502,-26.860099944475284
0.4797361451201839,-38.86009994447528
0.4807355954225177,-23.860099944475284
0.4817350457248513,9.139900055524722
0.482734496027185,56.13990005552472
0.4837339463295188,70.13990005552472
0.4847333966318525,99.1399000555247
0.4857328469341862,102.1399000555247
0.4867322972365199,58.13990005552472
0.4877317475388536,-21.860099944475284
0.4887311978411874,-68.86009994447528
0.4897306481435211,-55.86009994447528
0.4907300984458548,-9.860099944475278
0.4917295487481885,3.13990005552472
0.4927289990505222,25.139900055524716
0.4937284493528559,4.13990005552472
0.4947278996551897,-16.86009994447528
0.4957273499575234,-37.86009994447528
0.4967268002598571,-50.86009994447528
0.4977262505621908,-19.86009994447528
0.4987257008645245,-9.860099944475278
0.4997251511668582,-20.86009994447528
0.500724601469192,-24.860099944475284
0.5017240517715257,-14.860099944475278
0.5027235020738594,-3.86009994447528
0.5037229523761931,21.13990005552472
0.5047224026785269,48.13990005552472
0.5057218529808606,63.13990005552472
0.5067213032831942,29.139900055524716
0.5077207535855279,5.13990005552472
0.5087202038878617,-3.86009994447528
0.5097196541901954,-9.860099944475278
0.5107191044925291,-11.860099944475278
0.5117185547948628,-10.860099944475278
0.5127180050971966,-10.860099944475278
0.5137174553995303,-7.86009994447528
0.514716905701864,2.13990005552472
0.5157163560041977,-4.86009994447528
0.5167158063065315,-20.86009994447528
0.5177152566088651,-28.860099944475284
0.5187147069111988,-28.860099944475284
0.5197141572135325,-25.860099944475284
0.5207136075158663,-17.86009994447528
0.5217130578182,-4.86009994447528
0.5227125081205337,17.13990005552472
0.5237119584228674,62.13990005552472
0.5247114087252012,77.13990005552472
0.5257108590275349,76.13990005552472
0.5267103093298686,61.13990005552472
0.5277097596322023,12.139900055524722
0.528709209934536,1.1399000555247198
0.5297086602368697,15.139900055524722
0.5307081105392034,14.139900055524722
0.5317075608415371,-18.86009994447528
0.5327070111438709,-51.86009994447528
0.5337064614462046,-95.8600999444753
0.5347059117485383,-74.86009994447528
0.535705362050872,-35.86009994447528
0.5367048123532058,-39.86009994447528
0.5377042626555395,-34.86009994447528
0.5387037129578732,0.13990005552471985
0.5397031632602068,41.13990005552472
0.5407026135625406,61.13990005552472
0.5417020638648743,40.13990005552472
0.5427015141672079,25.139900055524716
0.5437009644695417,32.13990005552472
0.5447004147718755,21.13990005552472
0.5456998650742092,-12.860099944475278
0.5466993153765429,-26.860099944475284
0.5476987656788767,-30.860099944475284
0.5486982159812104,-20.86009994447528
0.5496976662835441,-5.86009994447528
0.5506971165858777,5.13990005552472
0.5516965668882114,-0.8600999444752802
0.5526960171905452,4.13990005552472
0.5536954674928789,-15.860099944475278
0.5546949177952126,-24.860099944475284
0.5556943680975464,-7.86009994447528
0.5566938183998801,8.13990005552472
0.5576932687022138,33.13990005552472
0.5586927190045475,50.13990005552472
0.5596921693068813,45.13990005552472
0.560691619609215,20.13990005552472
0.5616910699115487,-7.86009994447528
0.5626905202138823,-19.86009994447528
0.563689970516216,-20.86009994447528
0.5646894208185498,-19.86009994447528
0.5656888711208835,-22.860099944475284
0.5666883214232172,-18.86009994447528
0.5676877717255511,-7.86009994447528
0.5686872220278847,-5.86009994447528
0.5696866723302184,-1.86009994447528
0.5706861226325521,-2.86009994447528
0.5716855729348859,-1.86009994447528
0.5726850232372196,-19.86009994447528
0.5736844735395532,-43.86009994447528
0.5746839238418869,-39.86009994447528
0.5756833741442207,-24.860099944475284
0.5766828244465544,13.139900055524722
0.5776822747488881,67.13990005552472
0.5786817250512218,88.1399000555247
0.5796811753535556,65.13990005552472
0.5806806256558893,68.13990005552472
0.581680075958223,30.139900055524716
0.5826795262605567,-8.860099944475278
0.5836789765628905,-23.860099944475284
0.5846784268652241,-3.86009994447528
0.5856778771675578,27.139900055524716
0.5866773274698915,22.139900055524716
0.5876767777722253,-10.860099944475278
0.588676228074559,-23.860099944475284
0.5896756783768927,-59.86009994447528
0.5906751286792264,-88.8600999444753
0.5916745789815602,-74.86009994447528
0.5926740292838939,-46.86009994447528
0.5936734795862276,-10.860099944475278
0.5946729298885614,0.13990005552471985
0.5956723801908951,5.13990005552472
0.5966718304932287,7.13990005552472
0.5976712807955624,31.139900055524716
0.5986707310978961,22.139900055524716
0.5996701814002299,21.13990005552472
0.6006696317025636,17.13990005552472
0.6016690820048973,-1.86009994447528
0.6026685323072309,-3.86009994447528
0.6036679826095648,17.13990005552472
0.6046674329118985,28.139900055524716
0.6056668832142322,18.13990005552472
0.6066663335165658,5.13990005552472
0.6076657838188996,-4.86009994447528
0.6086652341212333,-12.860099944475278
0.609664684423567,-17.86009994447528
0.6106641347259008,-23.860099944475284
0.6116635850282345,-20.86009994447528
0.6126630353305682,-4.86009994447528
0.6136624856329019,14.139900055524722
0.6146619359352357,28.139900055524716
0.6156613862375694,16.13990005552472
0.6166608365399031,7.13990005552472
0.6176602868422367,-3.86009994447528
0.6186597371445705,-28.860099944475284
0.6196591874469042,-9.860099944475278
0.6206586377492379,26.139900055524716
0.6216580880515716,50.13990005552472
0.6226575383539054,43.13990005552472
0.6236569886562391,12.139900055524722
0.6246564389585728,2.13990005552472
0.6256558892609065,-29.860099944475284
0.6266553395632403,-67.86009994447528
0.627654789865574,-38.86009994447528
0.6286542401679076,4.13990005552472
0.6296536904702413,25.139900055524716
0.6306531407725751,42.13990005552472
0.6316525910749088,31.139900055524716
0.6326520413772425,-10.860099944475278
0.6336514916795762,-43.86009994447528
0.63465094198191,-51.86009994447528
0.6356503922842437,-40.86009994447528
0.6366498425865774,-16.86009994447528
0.6376492928889111,17.13990005552472
0.6386487431912449,9.139900055524722
0.6396481934935785,-5.86009994447528
0.6406476437959122,40.13990005552472
0.6416470940982459,84.13990005552472
0.6426465444005797,88.1399000555247
0.6436459947029134,41.13990005552472
0.6446454450052471,12.139900055524722
0.6456448953075808,-39.86009994447528
0.6466443456099146,-69.86009994447528
0.6476437959122483,-62.86009994447528
0.648643246214582,-26.860099944475284
0.6496426965169158,12.139900055524722
0.6506421468192495,7.13990005552472
0.6516415971215831,-5.86009994447528
0.6526410474239168,-8.860099944475278
0.6536404977262505,-11.860099944475278
0.6546399480285843,-17.86009994447528
0.655639398330918,-14.860099944475278
0.6566388486332517,-7.86009994447528
0.6576382989355855,-6.86009994447528
0.6586377492379192,-10.860099944475278
0.6596371995402529,-8.860099944475278
0.6606366498425866,-3.86009994447528
0.6616361001449204,11.139900055524722
0.6626355504472541,16.13990005552472
0.6636350007495877,14.139900055524722
0.6646344510519214,6.13990005552472
0.6656339013542552,-4.86009994447528
0.6666333516565889,8.13990005552472
0.6676328019589226,15.139900055524722
0.6686322522612563,-1.86009994447528
0.6696317025635901,-10.860099944475278
0.6706311528659238,-2.86009994447528
0.6716306031682575,43.13990005552472
0.6726300534705912,65.13990005552472
0.6736295037729249,42.13990005552472
0.6746289540752586,29.139900055524716
0.6756284043775923,-7.86009994447528
0.676627854679926,-60.86009994447528
0.6776273049822598,-63.86009994447528
0.6786267552845935,-23.860099944475284
0.6796262055869272,-7.86009994447528
0.6806256558892609,-2.86009994447528
0.6816251061915947,-7.86009994447528
0.6826245564939284,-2.86009994447528
0.6836240067962621,-2.86009994447528
0.6846234570985957,-4.86009994447528
0.6856229074009295,-5.86009994447528
0.6866223577032632,-2.86009994447528
0.6876218080055969,-5.86009994447528
0.6886212583079306,6.13990005552472
0.6896207086102644,12.139900055524722
0.6906201589125981,24.139900055524716
0.6916196092149318,35.13990005552472
0.6926190595172655,19.13990005552472
0.6936185098195993,10.139900055524722
0.6946179601219329,13.139900055524722
0.6956174104242666,10.139900055524722
0.6966168607266003,36.13990005552472
0.6976163110289341,48.13990005552472
0.6986157613312678,11.139900055524722
0.6996152116336015,-26.860099944475284
0.7006146619359352,-61.86009994447528
0.701614112238269,-66.86009994447528
0.7026135625406027,-41.86009994447528
0.7036130128429364,-24.860099944475284
0.7046124631452702,7.13990005552472
0.7056119134476039,28.139900055524716
0.7066113637499375,5.13990005552472
0.7076108140522712,0.13990005552471985
0.708610264354605,-3.86009994447528
0.7096097146569387,-2.86009994447528
0.7106091649592724,-8.860099944475278
0.7116086152616061,-19.86009994447528
0.7126080655639399,6.13990005552472
0.7136075158662736,32.13990005552472
0.7146069661686073,42.13990005552472
0.7156064164709408,39.13990005552472
0.7166058667732748,11.139900055524722
0.7176053170756084,7.13990005552472
0.7186047673779421,-39.86009994447528
0.7196042176802758,-70.86009994447528
0.7206036679826096,-39.86009994447528
0.7216031182849433,-7.86009994447528
0.7226025685872769,-7.86009994447528
0.7236020188896107,-3.86009994447528
0.7246014691919445,21.13990005552472
0.7256009194942782,20.13990005552472
0.7266003697966119,19.13990005552472
0.7275998200989456,56.13990005552472
0.7285992704012794,37.13990005552472
0.7295987207036129,6.13990005552472
0.7305981710059467,-3.86009994447528
0.7315976213082804,-27.860099944475284
0.7325970716106142,-17.86009994447528
0.7335965219129479,1.1399000555247198
0.7345959722152816,-2.86009994447528
0.7355954225176153,-4.86009994447528
0.7365948728199491,-24.860099944475284
0.7375943231222828,-36.86009994447528
0.7385937734246165,-53.86009994447528
0.7395932237269502,-28.860099944475284
0.7405926740292839,23.139900055524716
0.7415921243316176,51.13990005552472
0.7425915746339513,44.13990005552472
0.743591024936285,22.139900055524716
0.7445904752386188,-2.86009994447528
0.7455899255409525,0.13990005552471985
0.7465893758432862,-3.86009994447528
0.7475888261456201,-1.86009994447528
0.7485882764479537,14.139900055524722
0.7495877267502874,13.139900055524722
0.7505871770526211,1.1399000555247198
0.7515866273549547,2.13990005552472
0.7525860776572885,-7.86009994447528
0.7535855279596222,-7.86009994447528
0.7545849782619559,11.139900055524722
0.7555844285642896,40.13990005552472
0.7565838788666234,53.13990005552472
0.7575833291689571,40.13990005552472
0.7585827794712908,20.13990005552472
0.7595822297736246,-21.860099944475284
0.7605816800759583,-30.860099944475284
0.761581130378292,-56.86009994447528
0.7625805806806256,-68.86009994447528
0.7635800309829593,-39.86009994447528
0.7645794812852931,-7.86009994447528
0.7655789315876268,11.139900055524722
0.7665783818899605,11.139900055524722
0.7675778321922943,-8.860099944475278
0.768577282494628,-7.86009994447528
0.7695767327969617,-21.860099944475284
0.7705761830992954,-31.860099944475284
0.7715756334016292,-19.86009994447528
0.7725750837039629,19.13990005552472
0.7735745340062965,57.13990005552472
0.7745739843086302,73.13990005552472
0.7755734346109641,38.13990005552472
0.7765728849132977,-7.86009994447528
0.7775723352156314,-10.860099944475278
0.7785717855179651,-4.86009994447528
0.7795712358202989,-10.860099944475278
0.7805706861226326,3.13990005552472
0.7815701364249663,-16.86009994447528
0.7825695867273,-51.86009994447528
0.7835690370296338,-49.86009994447528
0.7845684873319674,-27.860099944475284
0.7855679376343011,-0.8600999444752802
0.7865673879366348,11.139900055524722
0.7875668382389686,65.13990005552472
0.7885662885413023,111.1399000555247
0.7895657388436359,85.13990005552472
0.7905651891459697,43.13990005552472
0.7915646394483035,-14.860099944475278
0.7925640897506372,-65.86009994447528
0.7935635400529709,-54.86009994447528
0.7945629903553046,-59.86009994447528
0.7955624406576383,-53.86009994447528
0.796561890959972,-26.860099944475284
0.7975613412623057,-26.860099944475284
0.7985607915646394,-9.860099944475278
0.7995602418669732,7.13990005552472
0.8005596921693069,4.13990005552472
0.8015591424716406,1.1399000555247198
0.8025585927739743,16.13990005552472
0.8035580430763081,36.13990005552472
0.8045574933786418,49.13990005552472
0.8055569436809755,62.13990005552472
0.8065563939833091,40.13990005552472
0.8075558442856429,-2.86009994447528
0.8085552945879766,-37.86009994447528
0.8095547448903103,-36.86009994447528
0.810554195192644,-34.86009994447528
0.8115536454949778,-26.860099944475284
0.8125530957973115,-14.860099944475278
0.8135525460996452,-14.860099944475278
0.8145519964019791,0.13990005552471985
0.8155514467043127,22.139900055524716
0.8165508970066464,28.139900055524716
0.8175503473089801,31.139900055524716
0.8185497976113137,45.13990005552472
0.8195492479136475,27.139900055524716
0.8205486982159812,-3.86009994447528
0.8215481485183149,-11.860099944475278
0.8225475988206487,-33.86009994447528
0.8235470491229824,-58.86009994447528
0.8245464994253161,-46.86009994447528
0.8255459497276498,-0.8600999444752802
0.8265454000299836,48.13990005552472
0.8275448503323173,34.13990005552472
0.8285443006346509,20.13990005552472
0.8295437509369846,13.139900055524722
0.8305432012393184,2.13990005552472
0.8315426515416521,-18.86009994447528
0.8325421018439858,-45.86009994447528
0.8335415521463195,-62.86009994447528
0.8345410024486533,-12.860099944475278
0.8355404527509871,44.13990005552472
0.8365399030533207,79.13990005552472
0.8375393533556544,79.13990005552472
0.8385388036579882,36.13990005552472
0.8395382539603219,-23.860099944475284
0.8405377042626555,-79.86009994447528
0.8415371545649892,-57.86009994447528
0.8425366048673231,-29.860099944475284
0.8435360551696567,-16.86009994447528
0.8445355054719904,21.13990005552472
0.8455349557743241,36.13990005552472
0.8465344060766579,13.139900055524722
0.8475338563789916,-20.86009994447528
0.8485333066813253,-67.86009994447528
0.8495327569836592,-64.86009994447528
0.8505322072859928,-10.860099944475278
0.8515316575883264,27.139900055524716
0.8525311078906601,55.13990005552472
0.8535305581929938,81.13990005552472
0.8545300084953276,73.13990005552472
0.8555294587976613,39.13990005552472
0.856528909099995,-32.86009994447528
0.8575283594023287,-28.860099944475284
0.8585278097046625,-15.860099944475278
0.8595272600069962,5.13990005552472
0.8605267103093299,14.139900055524722
0.8615261606116636,4.13990005552472
0.8625256109139973,-3.86009994447528
0.863525061216331,-12.860099944475278
0.8645245115186647,-2.86009994447528
0.8655239618209984,-32.86009994447528
0.8665234121233322,-42.86009994447528
0.8675228624256659,-53.86009994447528
0.8685223127279996,-25.860099944475284
0.8695217630303334,5.13990005552472
0.8705212133326671,11.139900055524722
0.8715206636350008,25.139900055524716
0.8725201139373345,46.13990005552472
0.8735195642396681,32.13990005552472
0.8745190145420019,4.13990005552472
0.8755184648443356,-35.86009994447528
0.8765179151466693,-41.86009994447528
0.8775173654490029,-16.86009994447528
0.8785168157513368,9.139900055524722
0.8795162660536705,-3.86009994447528
0.8805157163560042,-19.86009994447528
0.881515166658338,-14.860099944475278
0.8825146169606717,65.13990005552472
0.8835140672630054,68.13990005552472
0.884513517565339,71.13990005552472
0.8855129678676728,72.13990005552472
0.8865124181700065,50.13990005552472
0.8875118684723402,-63.86009994447528
0.8885113187746739,-150.86009994447528
0.8895107690770077,-111.8600999444753
0.8905102193793414,-44.86009994447528
0.8915096696816751,5.13990005552472
0.8925091199840088,17.13990005552472
0.8935085702863426,41.13990005552472
0.8945080205886763,57.13990005552472
0.89550747089101,107.1399000555247
0.8965069211933436,140.13990005552472
0.8975063714956774,129.13990005552472
0.8985058217980111,49.13990005552472
0.8995052721003448,-43.86009994447528
0.9005047224026785,-134.86009994447528
0.9015041727050124,-133.86009994447528
0.902503623007346,-126.8600999444753
0.9035030733096796,-84.86009994447528
0.9045025236120134,-43.86009994447528
0.9055019739143472,-11.860099944475278
0.9065014242166808,-27.860099944475284
0.9075008745190144,-54.86009994447528
0.9085003248213482,-13.860099944475278
0.9094997751236821,66.13990005552472
0.9104992254260156,117.1399000555247
0.9114986757283494,139.13990005552472
0.9124981260306833,142.13990005552472
0.9134975763330168,57.13990005552472
0.9144970266353506,-29.860099944475284
0.9154964769376844,-45.86009994447528
0.9164959272400179,12.139900055524722
0.9174953775423518,68.13990005552472
0.9184948278446854,76.13990005552472
0.9194942781470192,7.13990005552472
0.9204937284493528,-58.86009994447528
0.9214931787516866,-94.8600999444753
0.9224926290540204,-107.8600999444753
0.923492079356354,-91.8600999444753
0.9244915296586876,-81.86009994447528
0.9254909799610216,-53.86009994447528
0.9264904302633552,35.13990005552472
0.9274898805656888,44.13990005552472
0.9284893308680228,9.139900055524722
0.9294887811703564,-23.860099944475284
0.93048823147269,-30.860099944475284
0.9314876817750236,-33.86009994447528
0.9324871320773576,-36.86009994447528
0.9334865823796912,0.13990005552471985
0.9344860326820248,56.13990005552472
0.9354854829843586,78.13990005552472
0.9364849332866924,116.1399000555247
0.937484383589026,74.13990005552472
0.9384838338913598,-28.860099944475284
0.9394832841936936,-53.86009994447528
0.9404827344960272,-36.86009994447528
0.9414821847983608,-23.860099944475284
0.9424816351006946,-45.86009994447528
0.9434810854030284,-6.86009994447528
0.944480535705362,25.139900055524716
0.9454799860076958,14.139900055524722
0.9464794363100296,-14.860099944475278
0.9474788866123632,-2.86009994447528
0.948478336914697,7.13990005552472
0.9494777872170308,-5.86009994447528
0.9504772375193644,-10.860099944475278
0.951476687821698,-28.860099944475284
0.9524761381240318,-17.86009994447528
0.9534755884263656,29.139900055524716
0.9544750387286992,39.13990005552472
0.9554744890310328,44.13990005552472
0.9564739393333668,53.13990005552472
0.9574733896357004,17.13990005552472
0.958472839938034,-10.860099944475278
0.9594722902403678,1.1399000555247198
0.9604717405427016,1.1399000555247198
0.9614711908450352,37.13990005552472
0.9624706411473688,-2.86009994447528
0.9634700914497026,-25.860099944475284
0.9644695417520364,-28.860099944475284
0.96546899205437,-14.860099944475278
0.9664684423567038,-26.860099944475284
0.9674678926590377,-25.860099944475284
0.9684673429613712,31.139900055524716
0.9694667932637049,66.13990005552472
0.9704662435660388,12.139900055524722
0.9714656938683724,-54.86009994447528
0.9724651441707062,-63.86009994447528
0.9734645944730398,-2.86009994447528
0.9744640447753736,17.13990005552472
0.9754634950777072,12.139900055524722
0.9764629453800409,47.13990005552472
0.9774623956823748,32.13990005552472
0.9784618459847084,9.139900055524722
0.979461296287042,35.13990005552472
0.980460746589376,32.13990005552472
0.9814601968917096,-26.860099944475284
0.9824596471940432,-94.8600999444753
0.983459097496377,-100.8600999444753
0.9844585477987108,-57.86009994447528
0.9854579981010444,-41.86009994447528
0.986457448403378,-22.860099944475284
0.9874568987057118,-29.860099944475284
0.9884563490080456,41.13990005552472
0.9894557993103792,94.1399000555247
0.990455249612713,78.13990005552472
0.9914546999150468,79.13990005552472
0.9924541502173804,20.13990005552472
0.9934536005197142,4.13990005552472
0.994453050822048,4.13990005552472
0.9954525011243816,39.13990005552472
0.9964519514267152,39.13990005552472
0.9974514017290491,12.139900055524722
0.9984508520313828,20.13990005552472
0.9994503023337163,17.13990005552472
1.0004497526360503,-30.860099944475284
1.001449202938384,-39.86009994447528
1.0024486532407175,-73.86009994447528
1.0034481035430514,-54.86009994447528
1.004447553845385,-43.86009994447528
1.0054470041477188,-47.86009994447528
1.0064464544500524,-77.86009994447528
1.0074459047523865,-65.86009994447528
1.00844535505472,-39.86009994447528
1.0094448053570535,5.13990005552472
1.0104442556593871,100.1399000555247
1.0114437059617212,135.13990005552472
1.0124431562640548,52.13990005552472
1.0134426065663884,4.13990005552472
1.0144420568687222,0.13990005552471985
1.015441507171056,28.139900055524716
1.0164409574733897,88.1399000555247
1.0174404077757233,122.1399000555247
1.0184398580780571,-6.86009994447528
1.0194393083803908,-45.86009994447528
1.0204387586827246,-4.86009994447528
1.0214382089850582,-31.860099944475284
1.022437659287392,-60.86009994447528
1.0234371095897257,-49.86009994447528
1.0244365598920593,-54.86009994447528
1.0254360101943931,-23.860099944475284
1.0264354604967267,-42.86009994447528
1.0274349107990606,-73.86009994447528
1.0284343611013942,-52.86009994447528
1.029433811403728,-2.86009994447528
1.0304332617060616,25.139900055524716
1.0314327120083957,33.13990005552472
1.032432162310729,30.139900055524716
1.033431612613063,-5.86009994447528
1.0344310629153963,5.13990005552472
1.0354305132177302,6.13990005552472
1.036429963520064,-27.860099944475284
1.0374294138223976,-27.860099944475284
1.0384288641247317,14.139900055524722
1.0394283144270648,35.13990005552472
1.0404277647293991,56.13990005552472
1.0414272150317323,33.13990005552472
1.0424266653340664,-22.860099944475284
1.0434261156364,-7.86009994447528
1.0444255659387338,-7.86009994447528
1.0454250162410674,6.13990005552472
1.0464244665434008,19.13990005552472
1.0474239168457349,22.139900055524716
1.0484233671480685,0.13990005552471985
1.0494228174504023,-19.86009994447528
1.050422267752736,-15.860099944475278
1.0514217180550698,-28.860099944475284
1.0524211683574034,-9.860099944475278
1.0534206186597372,20.13990005552472
1.0544200689620709,33.13990005552472
1.0554195192644047,12.139900055524722
1.0564189695667383,-15.860099944475278
1.057418419869072,-46.86009994447528
1.0584178701714058,-37.86009994447528
1.0594173204737394,-2.86009994447528
1.0604167707760732,83.13990005552472
1.0614162210784068,87.1399000555247
1.062415671380741,99.1399000555247
1.0634151216830745,108.1399000555247
1.064414571985408,81.13990005552472
1.0654140222877415,11.139900055524722
1.0664134725900756,-37.86009994447528
1.0674129228924092,-146.86009994447528
1.0684123731947428,-155.86009994447528
1.0694118234970766,-107.8600999444753
1.0704112737994105,-43.86009994447528
1.071410724101744,0.13990005552471985
1.0724101744040777,7.13990005552472
1.0734096247064115,13.139900055524722
1.0744090750087452,-14.860099944475278
1.0754085253110792,-61.86009994447528
1.0764079756134126,1.1399000555247198
1.0774074259157465,35.13990005552472
1.0784068762180798,54.13990005552472
1.0794063265204137,71.13990005552472
1.0804057768227475,79.13990005552472
1.0814052271250811,59.13990005552472
1.0824046774274152,-0.8600999444752802
1.0834041277297486,-46.86009994447528
1.0844035780320824,-40.86009994447528
1.0854030283344158,-36.86009994447528
1.08640247863675,-18.86009994447528
1.0874019289390835,17.13990005552472
1.088401379241417,40.13990005552472
1.089400829543751,22.139900055524716
1.0904002798460846,-14.860099944475278
1.0913997301484184,-6.86009994447528
1.092399180450752,40.13990005552472
1.093398630753086,-10.860099944475278
1.0943980810554197,-61.86009994447528
1.0953975313577533,-42.86009994447528
1.0963969816600871,-17.86009994447528
1.0973964319624208,4.13990005552472
1.0983958822647544,-2.86009994447528
1.0993953325670882,4.13990005552472
1.1003947828694218,49.13990005552472
1.1013942331717554,109.1399000555247
1.1023936834740893,135.13990005552472
1.103393133776423,36.13990005552472
1.1043925840787567,-49.86009994447528
1.1053920343810903,-51.86009994447528
1.1063914846834242,-36.86009994447528
1.1073909349857578,-43.86009994447528
1.1083903852880916,-140.86009994447528
1.1093898355904253,-158.86009994447528
1.1103892858927589,-114.8600999444753
1.1113887361950927,-34.86009994447528
1.1123881864974263,24.139900055524716
1.1133876367997602,84.13990005552472
1.1143870871020938,149.13990005552472
1.1153865374044276,117.1399000555247
1.1163859877067612,20.13990005552472
1.117385438009095,-14.860099944475278
1.118384888311429,-39.86009994447528
1.1193843386137623,-45.86009994447528
1.120383788916096,-10.860099944475278
1.12138323921843,14.139900055524722
1.1223826895207636,17.13990005552472
1.1233821398230974,-1.86009994447528
1.124381590125431,31.139900055524716
1.1253810404277649,73.13990005552472
1.1263804907300985,78.13990005552472
1.127379941032432,20.13990005552472
1.128379391334766,12.139900055524722
1.1293788416370996,-27.860099944475284
1.1303782919394334,-50.86009994447528
1.131377742241767,-50.86009994447528
1.1323771925441009,-49.86009994447528
1.1333766428464345,29.139900055524716
1.1343760931487683,137.13990005552472
1.1353755434511021,97.1399000555247
1.1363749937534355,-5.86009994447528
1.1373744440557694,-94.8600999444753
1.138373894358103,-100.8600999444753
1.1393733446604368,-119.8600999444753
1.1403727949627704,-113.8600999444753
1.1413722452651045,-46.86009994447528
1.1423716955674381,24.139900055524716
1.1433711458697715,46.13990005552472
1.1443705961721051,61.13990005552472
1.1453700464744392,67.13990005552472
1.1463694967767728,45.13990005552472
1.1473689470791064,-19.86009994447528
1.1483683973814405,-41.86009994447528
1.149367847683774,-7.86009994447528
1.1503672979861077,-14.860099944475278
1.151366748288441,-19.86009994447528
1.1523661985907752,-43.86009994447528
1.1533656488931088,-22.860099944475284
1.1543650991954426,16.13990005552472
1.1553645494977762,43.13990005552472
1.15636399980011,67.13990005552472
1.1573634501024437,29.139900055524716
1.1583629004047773,7.13990005552472
1.1593623507071111,2.13990005552472
1.1603618010094447,33.13990005552472
1.1613612513117786,44.13990005552472
1.1623607016141122,25.139900055524716
1.163360151916446,3.13990005552472
1.1643596022187797,-0.8600999444752802
1.1653590525211135,-8.860099944475278
1.1663585028234469,-70.86009994447528
1.167357953125781,-29.860099944475284
1.1683574034281146,22.139900055524716
1.1693568537304482,101.1399000555247
1.170356304032782,138.13990005552472
1.1713557543351156,32.13990005552472
1.1723552046374497,-71.86009994447528
1.1733546549397829,-84.86009994447528
1.174354105242117,-26.860099944475284
1.1753535555444503,-15.860099944475278
1.1763530058467844,-61.86009994447528
1.177352456149118,-115.8600999444753
1.1783519064514518,-108.8600999444753
1.1793513567537854,-76.86009994447528
1.180350807056119,-51.86009994447528
1.181350257358453,-19.86009994447528
1.1823497076607865,42.13990005552472
1.1833491579631203,36.13990005552472
1.1843486082654542,25.139900055524716
1.1853480585677878,65.13990005552472
1.1863475088701214,147.13990005552472
1.1873469591724553,145.13990005552472
1.1883464094747889,140.13990005552472
1.1893458597771227,82.13990005552472
1.1903453100794563,-2.86009994447528
1.1913447603817902,-111.8600999444753
1.1923442106841238,-132.86009994447528
1.1933436609864574,-87.8600999444753
1.1943431112887912,-66.86009994447528
1.1953425615911248,-46.86009994447528
1.196342011893459,7.13990005552472
1.1973414621957923,87.1399000555247
1.198340912498126,64.13990005552472
1.1993403628004595,25.139900055524716
1.2003398131027936,3.13990005552472
1.2013392634051272,14.139900055524722
1.2023387137074608,111.1399000555247
1.2033381640097949,149.13990005552472
1.2043376143121285,23.139900055524716
1.2053370646144619,-61.86009994447528
1.2063365149167955,-165.86009994447528
1.2073359652191296,-183.86009994447528
1.2083354155214632,-115.8600999444753
1.2093348658237972,-27.860099944475284
1.2103343161261306,65.13990005552472
1.2113337664284645,31.139900055524716
1.2123332167307979,-22.860099944475284
1.2133326670331317,-51.86009994447528
1.2143321173354655,-100.8600999444753
1.2153315676377991,-108.8600999444753
1.216331017940133,24.139900055524716
1.2173304682424666,191.13990005552472
1.2183299185448004,200.13990005552472
1.219329368847134,132.13990005552472
1.220328819149468,86.1399000555247
1.2213282694518015,-13.860099944475278
1.2223277197541351,-84.86009994447528
1.223327170056469,-81.86009994447528
1.2243266203588026,19.13990005552472
1.2253260706611364,104.1399000555247
1.22632552096347,65.13990005552472
1.227324971265804,-28.860099944475284
1.2283244215681377,-66.86009994447528
1.229323871870471,-126.8600999444753
1.230323322172805,-119.8600999444753
1.2313227724751388,-18.86009994447528
1.2323222227774724,89.1399000555247
1.2333216730798062,154.13990005552472
1.2343211233821398,113.1399000555247
1.2353205736844737,-31.860099944475284
1.2363200239868073,-122.8600999444753
1.237319474289141,-132.86009994447528
1.2383189245914747,-106.8600999444753
1.2393183748938084,-96.8600999444753
1.2403178251961422,-52.86009994447528
1.2413172754984758,-10.860099944475278
1.2423167258008097,12.139900055524722
1.2433161761031433,43.13990005552472
1.244315626405477,88.1399000555247
1.2453150767078107,148.13990005552472
1.2463145270101443,126.1399000555247
1.2473139773124782,27.139900055524716
1.2483134276148118,-42.86009994447528
1.2493128779171456,-57.86009994447528
1.2503123282194792,-16.86009994447528
1.251311778521813,-15.860099944475278
1.2523112288241467,-9.860099944475278
1.2533106791264803,-8.860099944475278
1.254310129428814,1.1399000555247198
1.255309579731148,46.13990005552472
1.2563090300334816,61.13990005552472
1.2573084803358152,-7.86009994447528
1.2583079306381493,-70.86009994447528
1.259307380940483,-117.8600999444753
1.2603068312428165,-146.86009994447528
1.26130628154515,-118.8600999444753
1.2623057318474842,-5.86009994447528
1.2633051821498176,124.1399000555247
1.2643046324521514,211.13990005552472
1.2653040827544852,188.13990005552472
1.2663035330568189,70.13990005552472
1.2673029833591525,-4.86009994447528
1.2683024336614859,-12.860099944475278
1.26930188396382,19.13990005552472
1.2703013342661535,-11.860099944475278
1.2713007845684874,-47.86009994447528
1.272300234870821,-17.86009994447528
1.2732996851731548,5.13990005552472
1.2742991354754885,31.139900055524716
1.2752985857778223,14.139900055524722
1.276298036080156,-76.86009994447528
1.2772974863824895,-85.86009994447528
1.2782969366848234,-96.8600999444753
1.279296386987157,-125.8600999444753
1.2802958372894908,-97.8600999444753
1.2812952875918244,-22.860099944475284
1.2822947378941585,94.1399000555247
1.283294188196492,71.13990005552472
1.2842936384988255,-6.86009994447528
1.2852930888011591,90.1399000555247
1.2862925391034932,137.13990005552472
1.2872919894058268,141.13990005552472
1.2882914397081606,88.1399000555247
1.2892908900104942,-27.860099944475284
1.2902903403128279,-110.8600999444753
1.2912897906151617,-125.8600999444753
1.2922892409174953,-68.86009994447528
1.2932886912198291,-15.860099944475278
1.2942881415221628,27.139900055524716
1.2952875918244966,30.139900055524716
1.2962870421268302,26.139900055524716
1.297286492429164,69.13990005552472
1.2982859427314977,24.139900055524716
1.2992853930338315,-18.86009994447528
1.3002848433361651,-31.860099944475284
1.3012842936384992,-26.860099944475284
1.3022837439408326,-42.86009994447528
1.3032831942431662,-45.86009994447528
1.3042826445455,-14.860099944475278
1.3052820948478336,-24.860099944475284
1.3062815451501677,-37.86009994447528
1.307280995452501,-27.860099944475284
1.308280445754835,43.13990005552472
1.3092798960571683,79.13990005552472
1.3102793463595024,0.13990005552471985
1.311278796661836,13.139900055524722
1.3122782469641698,71.13990005552472
1.3132776972665037,67.13990005552472
1.314277147568837,28.139900055524716
1.315276597871171,-52.86009994447528
1.3162760481735043,-80.86009994447528
1.3172754984758384,-68.86009994447528
1.3182749487781722,-76.86009994447528
1.3192743990805058,-16.86009994447528
1.3202738493828394,59.13990005552472
1.3212732996851733,105.1399000555247
1.3222727499875069,101.1399000555247
1.3232722002898407,38.13990005552472
1.3242716505921743,-35.86009994447528
1.3252711008945082,-74.86009994447528
1.3262705511968418,-93.8600999444753
1.3272700014991754,-83.86009994447528
1.3282694518015092,-63.86009994447528
1.3292689021038429,-4.86009994447528
1.3302683524061767,73.13990005552472
1.3312678027085103,58.13990005552472
1.332267253010844,46.13990005552472
1.3332667033131778,72.13990005552472
1.3342661536155116,89.1399000555247
1.3352656039178452,-27.860099944475284
1.3362650542201788,-53.86009994447528
1.3372645045225129,84.13990005552472
1.3382639548248465,52.13990005552472
1.33926340512718,-2.86009994447528
1.3402628554295135,-42.86009994447528
1.3412623057318476,-83.86009994447528
1.3422617560341812,-81.86009994447528
1.343261206336515,-67.86009994447528
1.3442606566388486,-52.86009994447528
1.3452601069411825,-7.86009994447528
1.3462595572435159,42.13990005552472
1.3472590075458497,38.13990005552472
1.3482584578481835,3.13990005552472
1.3492579081505172,-32.86009994447528
1.3502573584528508,-40.86009994447528
1.3512568087551846,-4.86009994447528
1.3522562590575185,51.13990005552472
1.353255709359852,78.13990005552472
1.354255159662186,24.139900055524716
1.3552546099645195,-46.86009994447528
1.3562540602668534,-30.860099944475284
1.3572535105691872,-31.860099944475284
1.3582529608715206,-48.86009994447528
1.3592524111738544,-34.86009994447528
1.360251861476188,49.13990005552472
1.361251311778522,133.13990005552472
1.3622507620808555,89.1399000555247
1.363250212383189,8.13990005552472
1.364249662685523,-25.860099944475284
1.3652491129878568,-42.86009994447528
1.3662485632901904,-25.860099944475284
1.3672480135925242,-11.860099944475278
1.368247463894858,-45.86009994447528
1.3692469141971917,-3.86009994447528
1.3702463644995253,65.13990005552472
1.3712458148018594,17.13990005552472
1.3722452651041928,-17.86009994447528
1.3732447154065264,46.13990005552472
1.3742441657088602,61.13990005552472
1.3752436160111938,124.1399000555247
1.3762430663135277,58.13990005552472
1.3772425166158613,-22.860099944475284
1.3782419669181951,-90.8600999444753
1.3792414172205287,-75.86009994447528
1.3802408675228623,-54.86009994447528
1.3812403178251962,-89.8600999444753
1.3822397681275298,-89.8600999444753
1.3832392184298636,-16.86009994447528
1.3842386687321973,49.13990005552472
1.385238119034531,41.13990005552472
1.3862375693368647,-31.860099944475284
1.3872370196391983,-22.860099944475284
1.3882364699415322,8.13990005552472
1.3892359202438658,72.13990005552472
1.3902353705461996,110.1399000555247
1.3912348208485332,101.1399000555247
1.392234271150867,80.13990005552472
1.393233721453201,-1.86009994447528
1.3942331717555343,-55.86009994447528
1.395232622057868,-90.8600999444753
1.396232072360202,-133.86009994447528
1.3972315226625356,-159.86009994447528
1.3982309729648694,-130.86009994447528
1.399230423267203,-14.860099944475278
1.4002298735695369,157.13990005552472
1.4012293238718705,183.13990005552472
1.402228774174204,140.13990005552472
1.403228224476538,88.1399000555247
1.4042276747788716,4.13990005552472
1.4052271250812054,-66.86009994447528
1.4062265753835392,-98.8600999444753
1.4072260256858728,-122.8600999444753
1.4082254759882065,-62.86009994447528
1.4092249262905403,61.13990005552472
1.410224376592874,108.1399000555247
1.4112238268952078,37.13990005552472
1.4122232771975414,-67.86009994447528
1.4132227274998752,-159.86009994447528
1.4142221778022088,-150.86009994447528
1.4152216281045424,-56.86009994447528
1.4162210784068765,68.13990005552472
1.41722052870921,227.13990005552472
1.4182199790115435,226.13990005552472
1.4192194293138771,143.13990005552472
1.4202188796162112,26.139900055524716
1.4212183299185448,-67.86009994447528
1.4222177802208786,-120.8600999444753
1.4232172305232125,-148.86009994447528
1.424216680825546,-84.86009994447528
1.4252161311278797,-69.86009994447528
1.426215581430213,-51.86009994447528
1.4272150317325472,-16.86009994447528
1.4282144820348808,6.13990005552472
1.4292139323372146,-4.86009994447528
1.4302133826395482,13.139900055524722
1.4312128329418816,90.1399000555247
1.4322122832442157,140.13990005552472
1.4332117335465495,99.1399000555247
1.4342111838488831,27.139900055524716
1.4352106341512167,-3.86009994447528
1.4362100844535506,-25.860099944475284
1.4372095347558842,72.13990005552472
1.438208985058218,105.1399000555247
1.4392084353605517,26.139900055524716
1.4402078856628855,-62.86009994447528
1.441207335965219,-99.8600999444753
1.4422067862675532,-98.8600999444753
1.4432062365698866,-107.8600999444753
1.4442056868722204,-131.86009994447528
1.4452051371745538,-98.8600999444753
1.4462045874768876,-26.860099944475284
1.4472040377792217,65.13990005552472
1.448203488081555,82.13990005552472
1.4492029383838891,49.13990005552472
1.4502023886862223,131.13990005552472
1.4512018389885564,55.13990005552472
1.4522012892908898,-12.860099944475278
1.4532007395932238,-30.860099944475284
1.4542001898955574,-9.860099944475278
1.4551996401978913,17.13990005552472
1.4561990905002251,-6.86009994447528
1.4571985408025587,-6.86009994447528
1.4581979911048923,-16.86009994447528
1.4591974414072257,-33.86009994447528
1.4601968917095598,-90.8600999444753
1.4611963420118934,-95.8600999444753
1.4621957923142272,-65.86009994447528
1.4631952426165609,-88.8600999444753
1.4641946929188947,15.139900055524722
1.4651941432212283,161.13990005552472
1.4661935935235622,195.13990005552472
1.4671930438258958,173.13990005552472
1.4681924941282296,123.1399000555247
1.4691919444305632,89.1399000555247
1.4701913947328968,59.13990005552472
1.471190845035231,-33.86009994447528
1.4721902953375643,-126.8600999444753
1.473189745639898,-151.86009994447528
1.4741891959422315,-95.8600999444753
1.4751886462445656,-21.860099944475284
1.4761880965468992,-42.86009994447528
1.4771875468492333,-79.86009994447528
1.4781869971515669,-58.86009994447528
1.4791864474539005,-2.86009994447528
1.480185897756234,-60.86009994447528
1.4811853480585675,-118.8600999444753
1.4821847983609016,-28.860099944475284
1.4831842486632352,51.13990005552472
1.4841836989655692,66.13990005552472
1.4851831492679026,139.13990005552472
1.4861825995702365,96.1399000555247
1.48718204987257,-6.86009994447528
1.4881815001749041,-33.86009994447528
1.4891809504772375,-4.86009994447528
1.4901804007795714,11.139900055524722
1.491179851081905,41.13990005552472
1.4921793013842386,48.13990005552472
1.4931787516865724,109.1399000555247
1.494178201988906,101.1399000555247
1.4951776522912401,30.139900055524716
1.4961771025935735,-16.86009994447528
1.4971765528959071,-80.86009994447528
1.498176003198241,-98.8600999444753
1.4991754535005748,-45.86009994447528
1.5001749038029084,-26.860099944475284
1.5011743541052422,-39.86009994447528
1.502173804407576,-40.86009994447528
1.5031732547099097,-5.86009994447528
1.504172705012243,-28.860099944475284
1.505172155314577,3.13990005552472
1.5061716056169108,41.13990005552472
1.5071710559192444,14.139900055524722
1.5081705062215782,-13.860099944475278
1.5091699565239118,-19.86009994447528
1.5101694068262457,5.13990005552472
1.5111688571285793,-0.8600999444752802
1.5121683074309131,-5.86009994447528
1.5131677577332467,-19.86009994447528
1.5141672080355804,-24.860099944475284
1.5151666583379142,-18.86009994447528
1.5161661086402478,-2.86009994447528
1.5171655589425816,81.13990005552472
1.5181650092449153,89.1399000555247
1.519164459547249,47.13990005552472
1.5201639098495827,-31.860099944475284
1.5211633601519166,-90.8600999444753
1.5221628104542502,-32.86009994447528
1.523162260756584,64.13990005552472
1.5241617110589176,94.1399000555247
1.5251611613612512,61.13990005552472
1.526160611663585,-61.86009994447528
1.5271600619659187,-89.8600999444753
1.5281595122682523,-19.86009994447528
1.529158962570586,-18.86009994447528
1.53015841287292,7.13990005552472
1.5311578631752536,44.13990005552472
1.5321573134775874,34.13990005552472
1.5331567637799208,-30.860099944475284
1.5341562140822549,-41.86009994447528
1.5351556643845885,73.13990005552472
1.536155114686922,71.13990005552472
1.537154564989256,-107.8600999444753
1.5381540152915896,-229.86009994447528
1.5391534655939234,-179.86009994447528
1.5401529158962568,1.1399000555247198
1.5411523661985909,160.13990005552472
1.5421518165009245,298.13990005552466
1.5431512668032583,230.13990005552472
1.544150717105592,120.1399000555247
1.5451501674079258,-20.86009994447528
1.5461496177102594,-137.86009994447528
1.547149068012593,-136.86009994447528
1.5481485183149268,-71.86009994447528
1.5491479686172605,2.13990005552472
1.5501474189195945,69.13990005552472
1.5511468692219281,39.13990005552472
1.5521463195242615,-41.86009994447528
1.5531457698265954,-116.8600999444753
1.5541452201289292,-139.86009994447528
1.5551446704312628,-139.86009994447528
1.5561441207335966,-81.86009994447528
1.5571435710359305,44.13990005552472
1.558143021338264,157.13990005552472
1.5591424716405975,138.13990005552472
1.560141921942931,129.13990005552472
1.5611413722452652,43.13990005552472
1.5621408225475988,-90.8600999444753
1.5631402728499326,-146.86009994447528
1.5641397231522662,-116.8600999444753
1.5651391734546,-32.86009994447528
1.5661386237569337,9.139900055524722
1.5671380740592675,40.13990005552472
1.5681375243616011,153.13990005552472
1.5691369746639348,153.13990005552472
1.5701364249662686,127.1399000555247
1.5711358752686022,87.1399000555247
1.5721353255709358,32.13990005552472
1.5731347758732697,-11.860099944475278
1.5741342261756035,-5.86009994447528
1.5751336764779371,-104.8600999444753
1.576133126780271,-163.86009994447528
1.5771325770826046,-145.86009994447528
1.5781320273849384,-113.8600999444753
1.5791314776872718,-47.86009994447528
1.5801309279896056,17.13990005552472
1.5811303782919397,41.13990005552472
1.5821298285942733,29.139900055524716
1.583129278896607,-7.86009994447528
1.5841287291989403,-2.86009994447528
1.5851281795012744,-7.86009994447528
1.586127629803608,5.13990005552472
1.5871270801059418,46.13990005552472
1.5881265304082754,85.13990005552472
1.5891259807106093,89.1399000555247
1.5901254310129431,31.139900055524716
1.5911248813152763,17.13990005552472
1.5921243316176104,54.13990005552472
1.593123781919944,4.13990005552472
1.5941232322222778,-77.86009994447528
1.5951226825246114,-114.8600999444753
1.5961221328269453,-126.8600999444753
1.5971215831292789,-49.86009994447528
1.5981210334316127,45.13990005552472
1.5991204837339463,85.13990005552472
1.6001199340362802,160.13990005552472
1.6011193843386138,66.13990005552472
1.6021188346409474,-40.86009994447528
1.6031182849432812,-113.8600999444753
1.6041177352456149,-41.86009994447528
1.605117185547949,149.13990005552472
1.6061166358502823,155.13990005552472
1.607116086152616,20.13990005552472
1.6081155364549498,-91.8600999444753
1.6091149867572836,-196.86009994447528
1.6101144370596172,-140.86009994447528
1.6111138873619508,-54.86009994447528
1.6121133376642849,102.1399000555247
1.6131127879666185,133.13990005552472
1.614112238268952,112.1399000555247
1.6151116885712855,14.139900055524722
1.6161111388736196,-97.8600999444753
1.6171105891759532,-135.86009994447528
1.6181100394782868,-95.8600999444753
1.6191094897806206,-26.860099944475284
1.6201089400829545,-8.860099944475278
1.621108390385288,-10.860099944475278
1.622107840687622,-14.860099944475278
1.6231072909899555,-51.86009994447528
1.6241067412922894,-9.860099944475278
1.625106191594623,24.139900055524716
1.6261056418969566,120.1399000555247
1.6271050921992904,250.13990005552472
1.6281045425016238,251.13990005552472
1.6291039928039581,171.13990005552472
1.6301034431062915,48.13990005552472
1.6311028934086254,-117.8600999444753
1.632102343710959,-220.86009994447528
1.6331017940132928,-194.86009994447528
1.6341012443156264,-84.86009994447528
1.6351006946179605,-73.86009994447528
1.636100144920294,-41.86009994447528
1.6370995952226275,19.13990005552472
1.638099045524961,60.13990005552472
1.639098495827295,33.13990005552472
1.6400979461296288,-16.86009994447528
1.6410973964319624,-23.860099944475284
1.6420968467342962,-59.86009994447528
1.6430962970366298,-45.86009994447528
1.6440957473389637,-17.86009994447528
1.6450951976412973,38.13990005552472
1.6460946479436311,99.1399000555247
1.6470940982459648,91.1399000555247
1.6480935485482984,30.139900055524716
1.6490929988506322,-1.86009994447528
1.6500924491529658,-2.86009994447528
1.6510918994552997,7.13990005552472
1.6520913497576333,-13.860099944475278
1.6530908000599671,-29.860099944475284
1.6540902503623007,-34.86009994447528
1.6550897006646346,93.1399000555247
1.6560891509669682,139.13990005552472
1.6570886012693018,38.13990005552472
1.6580880515716356,-14.860099944475278
1.6590875018739693,-87.8600999444753
1.6600869521763033,-93.8600999444753
1.6610864024786367,-43.86009994447528
1.6620858527809703,10.139900055524722
1.6630853030833042,7.13990005552472
1.6640847533856382,-13.860099944475278
1.6650842036879716,-12.860099944475278
1.6660836539903054,-6.86009994447528
1.6670831042926393,-57.86009994447528
1.6680825545949731,-115.8600999444753
1.6690820048973063,-83.86009994447528
1.67008145519964,-26.860099944475284
1.6710809055019742,2.13990005552472
1.6720803558043076,29.139900055524716
1.6730798061066414,32.13990005552472
1.674079256408975,-8.860099944475278
1.6750787067113089,23.139900055524716
1.6760781570136425,132.13990005552472
1.6770776073159763,266.13990005552466
1.6780770576183102,219.13990005552472
1.6790765079206438,98.1399000555247
1.6800759582229774,15.139900055524722
1.681075408525311,-88.8600999444753
1.6820748588276448,-163.86009994447528
1.6830743091299785,-153.86009994447528
1.6840737594323123,-169.86009994447528
1.6850732097346461,-124.8600999444753
1.6860726600369798,-10.860099944475278
1.6870721103393134,53.13990005552472
1.6880715606416472,113.1399000555247
1.6890710109439808,148.13990005552472
1.6900704612463149,33.13990005552472
1.6910699115486485,-60.86009994447528
1.6920693618509821,-9.860099944475278
1.6930688121533155,5.13990005552472
1.6940682624556491,-59.86009994447528
1.6950677127579832,-85.86009994447528
1.6960671630603168,-51.86009994447528
1.6970666133626506,-13.860099944475278
1.6980660636649842,30.139900055524716
1.6990655139673183,57.13990005552472
1.7000649642696517,47.13990005552472
1.7010644145719855,1.1399000555247198
1.7020638648743192,-46.86009994447528
1.7030633151766528,-54.86009994447528
1.7040627654789866,27.139900055524716
1.7050622157813202,80.13990005552472
1.706061666083654,49.13990005552472
1.7070611163859877,-21.860099944475284
1.7080605666883215,-84.86009994447528
1.7090600169906551,-127.8600999444753
1.710059467292989,-113.8600999444753
1.7110589175953226,2.13990005552472
1.7120583678976564,57.13990005552472
1.71305781819999,144.13990005552472
1.7140572685023236,370.13990005552466
1.7150567188046577,360.13990005552466
1.716056169106991,94.1399000555247
1.7170556194093247,-151.86009994447528
1.7180550697116586,-211.86009994447528
1.7190545200139924,-206.86009994447528
1.720053970316326,-151.86009994447528
1.7210534206186598,-110.8600999444753
1.7220528709209937,-93.8600999444753
1.7230523212233273,-62.86009994447528
1.7240517715256607,-33.86009994447528
1.7250512218279943,28.139900055524716
1.7260506721303284,66.13990005552472
1.727050122432662,39.13990005552472
1.7280495727349958,8.13990005552472
1.7290490230373294,-6.86009994447528
1.7300484733396633,21.13990005552472
1.7310479236419969,85.13990005552472
1.7320473739443307,118.1399000555247
1.7330468242466643,44.13990005552472
1.7340462745489982,-58.86009994447528
1.7350457248513318,-139.86009994447528
1.7360451751536654,-73.86009994447528
1.7370446254559992,-25.860099944475284
1.7380440757583329,34.13990005552472
1.7390435260606667,148.13990005552472
1.7400429763630003,232.13990005552472
1.7410424266653342,162.13990005552472
1.7420418769676678,34.13990005552472
1.7430413272700016,-72.86009994447528
1.7440407775723352,-147.86009994447528
1.7450402278746688,-168.86009994447528
1.746039678177003,-164.86009994447528
1.7470391284793363,-71.86009994447528
1.74803857878167,7.13990005552472
1.7490380290840035,67.13990005552472
1.7500374793863376,112.1399000555247
1.7510369296886712,152.13990005552472
1.7520363799910048,62.13990005552472
1.7530358302933386,-58.86009994447528
1.7540352805956725,-49.86009994447528
1.7550347308980059,-13.860099944475278
1.7560341812003402,-39.86009994447528
1.7570336315026736,-40.86009994447528
1.7580330818050072,-35.86009994447528
1.7590325321073408,-11.860099944475278
1.7600319824096746,-62.86009994447528
1.7610314327120085,-19.86009994447528
1.7620308830143419,45.13990005552472
1.763030333316676,49.13990005552472
1.7640297836190095,37.13990005552472
1.7650292339213434,53.13990005552472
1.7660286842236765,84.13990005552472
1.7670281345260108,32.13990005552472
1.7680275848283444,-18.86009994447528
1.769027035130678,-51.86009994447528
1.770026485433012,-80.86009994447528
1.7710259357353455,-13.860099944475278
1.7720253860376791,60.13990005552472
1.7730248363400132,68.13990005552472
1.7740242866423468,13.139900055524722
1.7750237369446804,-83.86009994447528
1.7760231872470142,-124.8600999444753
1.777022637549348,-161.86009994447528
1.7780220878516817,-139.86009994447528
1.779021538154015,-46.86009994447528
1.7800209884563492,93.1399000555247
1.7810204387586828,172.13990005552472
1.7820198890610164,186.13990005552472
1.7830193393633502,110.1399000555247
1.7840187896656838,63.13990005552472
1.7850182399680177,96.1399000555247
1.7860176902703513,103.1399000555247
1.7870171405726851,-54.86009994447528
1.7880165908750187,-101.8600999444753
1.7890160411773526,-105.8600999444753
1.7900154914796862,-121.8600999444753
1.79101494178202,-98.8600999444753
1.7920143920843536,-23.860099944475284
1.7930138423866873,51.13990005552472
1.7940132926890209,125.1399000555247
1.7950127429913547,117.1399000555247
1.7960121932936886,29.139900055524716
1.7970116435960222,-78.86009994447528
1.798011093898356,-198.86009994447528
1.7990105442006896,-254.86009994447528
1.8000099945030237,-195.86009994447528
1.8010094448053569,-33.86009994447528
1.802008895107691,132.13990005552472
1.8030083454100243,214.13990005552472
1.804007795712358,208.13990005552472
1.805007246014692,136.13990005552472
1.8060066963170256,50.13990005552472
1.8070061466193597,24.139900055524716
1.808005596921693,10.139900055524722
1.8090050472240269,-60.86009994447528
1.8100044975263605,-83.86009994447528
1.8110039478286943,-103.8600999444753
1.8120033981310282,-80.86009994447528
1.8130028484333616,-10.860099944475278
1.8140022987356956,8.13990005552472
1.815001749038029,27.139900055524716
1.8160011993403629,68.13990005552472
1.8170006496426965,98.1399000555247
1.8180000999450303,29.139900055524716
1.8189995502473641,3.13990005552472
1.8199990005496975,-28.860099944475284
1.8209984508520316,-59.86009994447528
1.8219979011543648,-43.86009994447528
1.8229973514566988,37.13990005552472
1.823996801759033,50.13990005552472
1.8249962520613665,1.1399000555247198
1.8259957023637,-42.86009994447528
1.8269951526660335,-31.860099944475284
1.8279946029683676,2.13990005552472
1.8289940532707007,-80.86009994447528
1.8299935035730348,-110.8600999444753
1.8309929538753689,-105.8600999444753
1.8319924041777025,-39.86009994447528
1.8329918544800359,90.1399000555247
1.8339913047823695,122.1399000555247
1.834990755084704,118.1399000555247
1.8359902053870367,90.1399000555247
1.8369896556893708,16.13990005552472
1.8379891059917048,-22.860099944475284
1.8389885562940385,19.13990005552472
1.8399880065963719,62.13990005552472
1.8409874568987057,16.13990005552472
1.8419869072010395,-52.86009994447528
1.8429863575033727,-62.86009994447528
1.8439858078057068,-43.86009994447528
1.8449852581080408,-28.860099944475284
1.8459847084103744,-10.860099944475278
1.846984158712708,9.139900055524722
1.8479836090150417,21.13990005552472
1.8489830593173755,12.139900055524722
1.849982509619709,-14.860099944475278
1.8509819599220432,-30.860099944475284
1.8519814102243768,-40.86009994447528
1.8529808605267104,-17.86009994447528
1.853980310829044,28.139900055524716
1.8549797611313776,34.13990005552472
1.8559792114337117,18.13990005552472
1.8569786617360453,8.13990005552472
1.857978112038379,9.139900055524722
1.8589775623407123,36.13990005552472
1.8599770126430464,31.139900055524716
1.86097646294538,-26.860099944475284
1.8619759132477136,-84.86009994447528
1.8629753635500477,-139.86009994447528
1.8639748138523813,-41.86009994447528
1.864974264154715,87.1399000555247
1.8659737144570487,144.13990005552472
1.8669731647593824,55.13990005552472
1.867972615061716,-68.86009994447528
1.8689720653640496,-90.8600999444753
1.8699715156663836,49.13990005552472
1.8709709659687173,117.1399000555247
1.8719704162710509,107.1399000555247
1.8729698665733847,-3.86009994447528
1.8739693168757183,-148.86009994447528
1.874968767178052,-158.86009994447528
1.8759682174803856,-98.8600999444753
1.87696766778272,-1.86009994447528
1.8779671180850528,84.13990005552472
1.878966568387387,149.13990005552472
1.879966018689721,123.1399000555247
1.8809654689920543,36.13990005552472
1.881964919294388,-9.860099944475278
1.8829643695967215,-65.86009994447528
1.883963819899056,-67.86009994447528
1.8849632702013888,4.13990005552472
1.885962720503723,89.1399000555247
1.8869621708060569,75.13990005552472
1.8879616211083905,-38.86009994447528
1.888961071410724,-113.8600999444753
1.889960521713058,-126.8600999444753
1.890959972015392,-132.86009994447528
1.8919594223177247,-67.86009994447528
1.892958872620059,-74.86009994447528
1.8939583229223929,-81.86009994447528
1.8949577732247265,-46.86009994447528
1.89595722352706,26.139900055524716
1.896956673829394,158.13990005552472
1.8979561241317275,229.13990005552472
1.8989555744340612,218.13990005552472
1.899955024736395,187.13990005552472
1.9009544750387288,56.13990005552472
1.9019539253410624,-15.860099944475278
1.902953375643396,-7.86009994447528
1.90395282594573,-2.86009994447528
1.9049522762480635,14.139900055524722
1.9059517265503971,-53.86009994447528
1.9069511768527307,-149.86009994447528
1.9079506271550648,-211.86009994447528
1.9089500774573984,-220.86009994447528
1.9099495277597325,-123.8600999444753
1.9109489780620657,-7.86009994447528
1.9119484283644,108.1399000555247
1.912947878666733,149.13990005552472
1.913947328969067,144.13990005552472
1.9149467792714008,112.1399000555247
1.9159462295737344,57.13990005552472
1.916945679876068,-60.86009994447528
1.9179451301784016,-123.8600999444753
1.918944580480736,-141.86009994447528
1.9199440307830693,-130.86009994447528
1.9209434810854031,-36.86009994447528
1.9219429313877368,105.1399000555247
1.9229423816900704,144.13990005552472
1.923941831992404,111.1399000555247
1.9249412822947376,68.13990005552472
1.925940732597072,62.13990005552472
1.9269401828994053,27.139900055524716
1.9279396332017391,-15.860099944475278
1.9289390835040727,-21.860099944475284
1.9299385338064063,-25.860099944475284
1.93093798410874,-18.86009994447528
1.931937434411074,-49.86009994447528
1.932936884713408,-20.86009994447528
1.9339363350157412,-31.860099944475284
1.9349357853180749,-32.86009994447528
1.9359352356204087,-23.860099944475284
1.9369346859227423,-77.86009994447528
1.937934136225076,-69.86009994447528
1.9389335865274098,-38.86009994447528
1.939933036829744,2.13990005552472
1.9409324871320772,52.13990005552472
1.9419319374344108,120.1399000555247
1.9429313877367451,55.13990005552472
1.9439308380390783,-23.860099944475284
1.9449302883414123,-39.86009994447528
1.9459297386437457,-49.86009994447528
1.94692918894608,-0.8600999444752802
1.9479286392484132,29.139900055524716
1.9489280895507466,62.13990005552472
1.9499275398530809,88.1399000555247
1.9509269901554145,80.13990005552472
1.9519264404577483,27.139900055524716
1.9529258907600817,-49.86009994447528
1.953925341062416,-48.86009994447528
1.9549247913647492,-28.860099944475284
1.9559242416670832,-28.860099944475284
1.9569236919694168,-42.86009994447528
1.9579231422717505,-29.860099944475284
1.9589225925740843,-68.86009994447528
1.9599220428764181,-91.8600999444753
1.960921493178752,6.13990005552472
1.9619209434810851,173.13990005552472
1.9629203937834192,176.13990005552472
1.9639198440857528,104.1399000555247
1.9649192943880869,39.13990005552472
1.9659187446904205,16.13990005552472
1.966918194992754,-2.86009994447528
1.967917645295088,-75.86009994447528
1.9689170955974216,-118.8600999444753
1.9699165458997552,-101.8600999444753
1.9709159962020888,-85.86009994447528
1.9719154465044224,-65.86009994447528
1.972914896806756,-2.86009994447528
1.97391434710909,29.139900055524716
1.974913797411424,67.13990005552472
1.975913247713757,95.1399000555247
1.9769126980160912,62.13990005552472
1.9779121483184252,17.13990005552472
1.9789115986207584,-27.860099944475284
1.9799110489230924,-54.86009994447528
1.980910499225426,-76.86009994447528
1.98190994952776,-30.860099944475284
1.9829093998300933,25.139900055524716
1.9839088501324271,17.13990005552472
1.984908300434761,-67.86009994447528
1.9859077507370944,-130.86009994447528
1.9869072010394284,-138.86009994447528
1.987906651341762,-32.86009994447528
1.988906101644096,120.1399000555247
1.9899055519464293,271.13990005552466
1.9909050022487635,325.13990005552466
1.991904452551097,134.13990005552472
1.9929039028534303,-40.86009994447528
1.9939033531557644,-107.8600999444753
1.9949028034580982,-42.86009994447528
1.995902253760432,19.13990005552472
1.9969017040627652,-62.86009994447528
1.9979011543650995,-92.8600999444753
1.9989006046674331,-49.86009994447528
1.9999000549697667,-23.860099944475284
2.0008995052721006,-20.86009994447528
2.001898955574434,-75.86009994447528
2.002898405876768,-112.8600999444753
2.0038978561791017,-95.8600999444753
2.004897306481435,-55.86009994447528
2.0058967567837693,-4.86009994447528
2.0068962070861027,97.1399000555247
2.007895657388437,151.13990005552472
2.00889510769077,149.13990005552472
2.009894557993104,76.13990005552472
2.0108940082954376,8.13990005552472
2.0118934585977715,-57.86009994447528
2.012892908900105,-100.8600999444753
2.0138923592024387,-83.86009994447528
2.0148918095047725,-76.86009994447528
2.015891259807106,-91.8600999444753
2.01689071010944,-72.86009994447528
2.0178901604117736,-58.86009994447528
2.0188896107141074,40.13990005552472
2.019889061016441,149.13990005552472
2.0208885113187747,233.13990005552472
2.0218879616211085,214.13990005552472
2.0228874119234423,90.1399000555247
2.023886862225776,3.13990005552472
2.0248863125281096,-22.860099944475284
2.0258857628304434,30.139900055524716
2.026885213132777,52.13990005552472
2.02788466343511,-31.860099944475284
2.0288841137374445,-83.86009994447528
2.0298835640397783,-117.8600999444753
2.030883014342112,-126.8600999444753
2.0318824646444456,-71.86009994447528
2.0328819149467794,-39.86009994447528
2.033881365249113,12.139900055524722
2.0348808155514466,-19.86009994447528
2.0358802658537805,-22.860099944475284
2.0368797161561143,-11.860099944475278
2.037879166458448,-42.86009994447528
2.038878616760781,-36.86009994447528
2.039878067063116,-24.860099944475284
2.040877517365449,8.13990005552472
2.0418769676677826,63.13990005552472
2.0428764179701164,85.13990005552472
2.0438758682724503,52.13990005552472
2.044875318574784,9.139900055524722
2.045874768877117,-19.86009994447528
2.046874219179452,23.139900055524716
2.047873669481785,45.13990005552472
2.0488731197841186,58.13990005552472
2.0498725700864524,8.13990005552472
2.0508720203887862,-4.86009994447528
2.05187147069112,28.139900055524716
2.052870920993453,38.13990005552472
2.0538703712957878,-14.860099944475278
2.054869821598121,-44.86009994447528
2.055869271900455,-54.86009994447528
2.0568687222027884,-43.86009994447528
2.0578681725051218,-29.860099944475284
2.058867622807456,4.13990005552472
2.059867073109789,9.139900055524722
2.0608665234121237,8.13990005552472
2.0618659737144567,0.13990005552471985
2.062865424016791,-46.86009994447528
2.0638648743191244,-11.860099944475278
2.064864324621458,8.13990005552472
2.065863774923792,-34.86009994447528
2.066863225226126,-50.86009994447528
2.0678626755284597,1.1399000555247198
2.068862125830793,44.13990005552472
2.069861576133127,52.13990005552472
2.0708610264354603,22.139900055524716
2.071860476737794,22.139900055524716
2.072859927040128,-40.86009994447528
2.073859377342462,-113.8600999444753
2.0748588276447952,-69.86009994447528
2.075858277947129,60.13990005552472
2.0768577282494634,134.13990005552472
2.0778571785517967,102.1399000555247
2.0788566288541297,-2.86009994447528
2.079856079156464,-83.86009994447528
2.0808555294587983,-42.86009994447528
2.0818549797611308,60.13990005552472
2.082854430063465,128.13990005552472
2.083853880365799,81.13990005552472
2.0848533306681327,-43.86009994447528
2.0858527809704657,-147.86009994447528
2.0868522312728,-109.8600999444753
2.0878516815751342,68.13990005552472
2.088851131877468,178.13990005552472
2.089850582179801,104.1399000555247
2.090850032482135,29.139900055524716
2.0918494827844687,-48.86009994447528
2.0928489330868016,-95.8600999444753
2.093848383389136,-89.8600999444753
2.0948478336914698,-87.8600999444753
2.095847283993804,-61.86009994447528
2.096846734296137,-37.86009994447528
2.097846184598471,-48.86009994447528
2.0988456349008047,-64.86009994447528
2.0998450852031385,-75.86009994447528
2.100844535505472,2.13990005552472
2.1018439858078057,90.1399000555247
2.10284343611014,128.13990005552472
2.103842886412473,115.1399000555247
2.104842336714807,37.13990005552472
2.1058417870171406,-50.86009994447528
2.1068412373194745,-67.86009994447528
2.107840687621808,-8.860099944475278
2.1088401379241417,51.13990005552472
2.1098395882264755,102.1399000555247
2.1108390385288094,83.13990005552472
2.1118384888311432,33.13990005552472
2.1128379391334766,-17.86009994447528
2.1138373894358105,-46.86009994447528
2.114836839738144,-102.8600999444753
2.1158362900404777,-100.8600999444753
2.1168357403428115,-6.86009994447528
2.1178351906451454,31.139900055524716
2.1188346409474788,15.139900055524722
2.1198340912498126,19.13990005552472
2.1208335415521464,-1.86009994447528
2.1218329918544803,-15.860099944475278
2.1228324421568137,-34.86009994447528
2.1238318924591475,-46.86009994447528
2.1248313427614813,-59.86009994447528
2.1258307930638147,-31.860099944475284
2.126830243366149,101.1399000555247
2.1278296936684824,215.13990005552472
2.128829143970816,190.13990005552472
2.1298285942731496,11.139900055524722
2.1308280445754835,-77.86009994447528
2.1318274948778173,-34.86009994447528
2.1328269451801507,-79.86009994447528
2.1338263954824845,-171.86009994447528
2.1348258457848184,-153.86009994447528
2.1358252960871518,-67.86009994447528
2.1368247463894856,22.139900055524716
2.1378241966918194,136.13990005552472
2.1388236469941533,198.13990005552472
2.1398230972964867,148.13990005552472
2.1408225475988205,-10.860099944475278
2.1418219979011544,-77.86009994447528
2.142821448203488,-68.86009994447528
2.143820898505822,-42.86009994447528
2.1448203488081554,-24.860099944475284
2.1458197991104893,12.139900055524722
2.1468192494128235,52.13990005552472
2.1478186997151565,16.13990005552472
2.1488181500174903,-11.860099944475278
2.1498176003198237,10.139900055524722
2.1508170506221584,-62.86009994447528
2.1518165009244914,-106.8600999444753
2.152815951226825,-84.86009994447528
2.153815401529159,-62.86009994447528
2.154814851831493,-10.860099944475278
2.1558143021338263,42.13990005552472
2.1568137524361597,72.13990005552472
2.1578132027384944,39.13990005552472
2.158812653040828,24.139900055524716
2.1598121033431608,13.139900055524722
2.160811553645495,44.13990005552472
2.161811003947829,6.13990005552472
2.1628104542501623,-35.86009994447528
2.1638099045524957,40.13990005552472
2.1648093548548304,1.1399000555247198
2.1658088051571642,-33.86009994447528
2.166808255459497,18.13990005552472
2.167807705761831,68.13990005552472
2.168807156064165,118.1399000555247
2.1698066063664982,153.13990005552472
2.1708060566688316,104.1399000555247
2.171805506971166,-32.86009994447528
2.1728049572735,-154.86009994447528
2.1738044075758327,-226.86009994447528
2.174803857878167,-190.86009994447528
2.175803308180501,-83.86009994447528
2.1768027584828347,-31.860099944475284
2.177802208785168,23.139900055524716
2.178801659087502,90.1399000555247
2.179801109389836,136.13990005552472
2.1808005596921687,149.13990005552472
2.1818000099945034,160.13990005552472
2.182799460296837,77.13990005552472
2.18379891059917,-42.86009994447528
2.184798360901504,-72.86009994447528
2.185797811203838,-61.86009994447528
2.186797261506172,-78.86009994447528
2.187796711808505,-87.8600999444753
2.1887961621108394,-64.86009994447528
2.1897956124131728,-22.860099944475284
2.1907950627155066,-30.860099944475284
2.19179451301784,-25.860099944475284
2.1927939633201743,-32.86009994447528
2.193793413622508,0.13990005552471985
2.194792863924841,6.13990005552472
2.195792314227175,41.13990005552472
2.1967917645295088,49.13990005552472
2.1977912148318426,71.13990005552472
2.1987906651341764,56.13990005552472
2.19979011543651,26.139900055524716
2.200789565738844,1.1399000555247198
2.201789016041177,57.13990005552472
2.202788466343511,72.13990005552472
2.2037879166458447,-17.86009994447528
2.2047873669481786,-56.86009994447528
2.2057868172505124,-88.8600999444753
2.206786267552846,-115.8600999444753
2.20778571785518,-139.86009994447528
2.208785168157513,-72.86009994447528
2.2097846184598477,51.13990005552472
2.2107840687621807,116.1399000555247
2.2117835190645145,102.1399000555247
2.2127829693668484,44.13990005552472
2.2137824196691818,-1.86009994447528
2.214781869971516,50.13990005552472
2.215781320273849,155.13990005552472
2.2167807705761837,131.13990005552472
2.2177802208785167,29.139900055524716
2.2187796711808505,-46.86009994447528
2.2197791214831843,-138.86009994447528
2.2207785717855177,-152.86009994447528
2.221778022087852,-95.8600999444753
2.2227774723901854,-78.86009994447528
2.2237769226925197,-65.86009994447528
2.224776372994853,-52.86009994447528
2.2257758232971865,-2.86009994447528
2.2267752735995203,50.13990005552472
2.2277747239018537,137.13990005552472
2.228774174204188,128.13990005552472
2.2297736245065214,13.139900055524722
2.2307730748088552,26.139900055524716
2.231772525111189,85.13990005552472
2.2327719754135225,79.13990005552472
2.2337714257158563,22.139900055524716
2.23477087601819,-35.86009994447528
2.235770326320524,-102.8600999444753
2.2367697766228574,-93.8600999444753
2.237769226925191,-88.8600999444753
2.2387686772275246,-88.8600999444753
2.2397681275298584,-76.86009994447528
2.2407675778321923,0.13990005552471985
2.241767028134526,27.139900055524716
2.24276647843686,-12.860099944475278
2.2437659287391933,13.139900055524722
2.2447653790415267,81.13990005552472
2.2457648293438606,142.13990005552472
2.246764279646195,108.1399000555247
2.247763729948528,93.1399000555247
2.248763180250862,19.13990005552472
2.249762630553196,-76.86009994447528
2.2507620808555293,-126.8600999444753
2.251761531157863,-124.8600999444753
2.2527609814601965,-84.86009994447528
2.253760431762531,-2.86009994447528
2.254759882064864,29.139900055524716
2.255759332367198,65.13990005552472
2.256758782669532,48.13990005552472
2.2577582329718657,-21.860099944475284
2.2587576832741996,-64.86009994447528
2.2597571335765334,-1.86009994447528
2.260756583878867,33.13990005552472
2.2617560341812,15.139900055524722
2.262755484483534,15.139900055524722
2.2637549347858683,49.13990005552472
2.2647543850882017,98.1399000555247
2.265753835390535,76.13990005552472
2.266753285692869,43.13990005552472
2.2677527359952028,-8.860099944475278
2.2687521862975366,-111.8600999444753
2.26975163659987,-50.86009994447528
2.2707510869022043,-46.86009994447528
2.2717505372045377,-42.86009994447528
2.272749987506871,-20.86009994447528
2.273749437809205,-0.8600999444752802
2.2747488881115387,-6.86009994447528
2.2757483384138726,0.13990005552471985
2.276747788716206,-20.86009994447528
2.2777472390185403,-7.86009994447528
2.2787466893208737,16.13990005552472
2.2797461396232075,25.139900055524716
2.280745589925541,29.139900055524716
2.2817450402278747,-4.86009994447528
2.282744490530209,-57.86009994447528
2.283743940832542,-39.86009994447528
2.2847433911348762,27.139900055524716
2.2857428414372096,25.139900055524716
2.2867422917395435,-23.860099944475284
2.287741742041877,-3.86009994447528
2.2887411923442107,8.13990005552472
2.2897406426465445,55.13990005552472
2.2907400929488784,40.13990005552472
2.291739543251212,-9.860099944475278
2.2927389935535456,8.13990005552472
2.2937384438558794,51.13990005552472
2.294737894158213,93.1399000555247
2.2957373444605467,76.13990005552472
2.2967367947628805,-14.860099944475278
2.2977362450652143,-99.8600999444753
2.298735695367548,-81.86009994447528
2.2997351456698816,-16.86009994447528
2.3007345959722154,16.13990005552472
2.3017340462745493,4.13990005552472
2.302733496576882,-30.860099944475284
2.3037329468792165,4.13990005552472
2.3047323971815503,82.13990005552472
2.305731847483884,106.1399000555247
2.306731297786217,20.13990005552472
2.3077307480885514,-77.86009994447528
2.308730198390885,-49.86009994447528
2.3097296486932186,-79.86009994447528
2.3107290989955525,-92.8600999444753
2.3117285492978863,-59.86009994447528
2.31272799960022,-29.860099944475284
2.313727449902553,-2.86009994447528
2.314726900204888,33.13990005552472
2.3157263505072208,56.13990005552472
2.3167258008095546,41.13990005552472
2.3177252511118884,13.139900055524722
2.3187247014142223,17.13990005552472
2.319724151716556,-4.86009994447528
2.320723602018889,-76.86009994447528
2.321723052321224,-136.86009994447528
2.3227225026235567,-148.86009994447528
2.323721952925891,-54.86009994447528
2.3247214032282244,113.1399000555247
2.3257208535305582,287.13990005552466
2.326720303832892,341.13990005552466
2.327719754135225,164.13990005552472
2.3287192044375598,12.139900055524722
2.329718654739893,-75.86009994447528
2.330718105042227,-85.86009994447528
2.3317175553445604,-81.86009994447528
2.3327170056468938,-50.86009994447528
2.333716455949228,-14.860099944475278
2.334715906251562,-62.86009994447528
2.3357153565538957,-74.86009994447528
2.336714806856229,-40.86009994447528
2.337714257158563,-40.86009994447528
2.3387137074608964,-52.86009994447528
2.3397131577632297,-67.86009994447528
2.340712608065564,-68.86009994447528
2.341712058367898,-27.860099944475284
2.3427115086702317,72.13990005552472
2.343710958972565,125.1399000555247
2.344710409274899,66.13990005552472
2.3457098595772328,34.13990005552472
2.3467093098795657,53.13990005552472
2.3477087601819,21.13990005552472
2.348708210484234,-49.86009994447528
2.3497076607865672,-11.860099944475278
2.350707111088901,21.13990005552472
2.351706561391235,33.13990005552472
2.3527060116935687,89.1399000555247
2.3537054619959017,20.13990005552472
2.354704912298236,-16.86009994447528
2.35570436260057,-49.86009994447528
2.356703812902904,-109.8600999444753
2.3577032632052366,-126.8600999444753
2.358702713507571,-71.86009994447528
2.3597021638099047,24.139900055524716
2.360701614112238,74.13990005552472
2.361701064414572,92.1399000555247
2.362700514716906,76.13990005552472
2.36369996501924,-4.86009994447528
2.3646994153215735,-38.86009994447528
2.365698865623907,-33.86009994447528
2.3666983159262407,-39.86009994447528
2.3676977662285745,-51.86009994447528
2.3686972165309084,-76.86009994447528
2.3696966668332418,-95.8600999444753
2.370696117135576,-14.860099944475278
2.3716955674379094,75.13990005552472
2.3726950177402433,113.1399000555247
2.3736944680425767,103.1399000555247
2.3746939183449105,25.139900055524716
2.3756933686472443,-43.86009994447528
2.3766928189495777,-30.860099944475284
2.377692269251912,76.13990005552472
2.3786917195542454,126.1399000555247
2.379691169856579,75.13990005552472
2.3806906201589126,5.13990005552472
2.3816900704612465,-15.860099944475278
2.3826895207635803,-41.86009994447528
2.3836889710659137,-61.86009994447528
2.3846884213682475,-92.8600999444753
2.3856878716705814,-113.8600999444753
2.3866873219729148,-99.8600999444753
2.3876867722752486,-58.86009994447528
2.3886862225775825,-17.86009994447528
2.3896856728799163,92.1399000555247
2.3906851231822497,189.13990005552472
2.3916845734845835,134.13990005552472
2.3926840237869174,12.139900055524722
2.3936834740892508,-74.86009994447528
2.3946829243915846,-85.86009994447528
2.3956823746939184,-62.86009994447528
2.3966818249962523,-38.86009994447528
2.3976812752985857,-13.860099944475278
2.3986807256009195,10.139900055524722
2.3996801759032533,14.139900055524722
2.4006796262055867,-18.86009994447528
2.401679076507921,-2.86009994447528
2.4026785268102544,13.139900055524722
2.403677977112588,21.13990005552472
2.4046774274149216,46.13990005552472
2.4056768777172555,31.139900055524716
2.4066763280195893,6.13990005552472
2.407675778321923,12.139900055524722
2.4086752286242565,61.13990005552472
2.4096746789265904,84.13990005552472
2.4106741292289238,53.13990005552472
2.4116735795312585,16.13990005552472
2.4126730298335914,-12.860099944475278
2.4136724801359253,-18.86009994447528
2.414671930438259,-34.86009994447528
2.4156713807405925,-60.86009994447528
2.4166708310429263,-113.8600999444753
2.4176702813452597,-141.86009994447528
2.4186697316475945,-118.8600999444753
2.4196691819499274,-67.86009994447528
2.4206686322522613,23.139900055524716
2.421668082554595,168.13990005552472
2.4226675328569294,196.13990005552472
2.4236669831592623,67.13990005552472
2.4246664334615957,-81.86009994447528
2.42566588376393,-122.8600999444753
2.4266653340662634,-13.860099944475278
2.427664784368597,72.13990005552472
2.428664234670931,166.13990005552472
2.4296636849732653,172.13990005552472
2.4306631352755983,20.13990005552472
2.4316625855779317,-70.86009994447528
2.432662035880266,-114.8600999444753
2.4336614861826,-145.86009994447528
2.434660936484933,-109.8600999444753
2.435660386787267,-58.86009994447528
2.4366598370896013,-1.86009994447528
2.4376592873919343,88.1399000555247
2.438658737694268,119.1399000555247
2.439658187996602,73.13990005552472
2.440657638298936,14.139900055524722
2.441657088601269,-46.86009994447528
2.442656538903603,-75.86009994447528
2.4436559892059373,-97.8600999444753
2.4446554395082707,-113.8600999444753
2.4456548898106036,-47.86009994447528
2.446654340112938,40.13990005552472
2.447653790415272,67.13990005552472
2.448653240717605,74.13990005552472
2.449652691019939,29.139900055524716
2.450652141322273,-31.860099944475284
2.4516515916246067,-30.860099944475284
2.45265104192694,-9.860099944475278
2.453650492229274,115.1399000555247
2.454649942531608,181.13990005552472
2.4556493928339416,142.13990005552472
2.456648843136275,63.13990005552472
2.457648293438609,-25.860099944475284
2.458647743740942,-89.8600999444753
2.459647194043276,-137.86009994447528
2.46064664434561,-119.8600999444753
2.461646094647944,-55.86009994447528
2.462645544950277,-31.860099944475284
2.463644995252611,-9.860099944475278
2.4646444455549448,-12.860099944475278
2.4656438958572786,-35.86009994447528
2.4666433461596124,-8.860099944475278
2.467642796461946,41.13990005552472
2.46864224676428,27.139900055524716
2.469641697066613,-10.860099944475278
2.4706411473689465,-10.860099944475278
2.4716405976712807,-1.86009994447528
2.4726400479736146,54.13990005552472
2.4736394982759484,90.1399000555247
2.474638948578282,71.13990005552472
2.475638398880616,45.13990005552472
2.476637849182949,11.139900055524722
2.4776372994852838,-16.86009994447528
2.4786367497876167,-30.860099944475284
2.4796362000899506,-79.86009994447528
2.4806356503922844,-99.8600999444753
2.4816351006946182,-79.86009994447528
2.482634550996952,-65.86009994447528
2.483634001299285,-26.860099944475284
2.4846334516016197,32.13990005552472
2.4856329019039527,105.1399000555247
2.4866323522062865,74.13990005552472
2.4876318025086204,55.13990005552472
2.488631252810954,66.13990005552472
2.489630703113288,30.139900055524716
2.490630153415621,-3.86009994447528
2.4916296037179557,1.1399000555247198
2.4926290540202887,-5.86009994447528
2.4936285043226225,26.139900055524716
2.4946279546249563,63.13990005552472
2.49562740492729,16.13990005552472
2.496626855229624,-84.86009994447528
2.4976263055319574,-151.86009994447528
2.4986257558342917,-132.86009994447528
2.499625206136625,-78.86009994447528
2.5006246564389585,-17.86009994447528
2.5016241067412923,60.13990005552472
2.502623557043626,68.13990005552472
2.50362300734596,61.13990005552472
2.5046224576482934,64.13990005552472
2.5056219079506272,55.13990005552472
2.506621358252961,66.13990005552472
2.5076208085552945,26.139900055524716
2.5086202588576283,-40.86009994447528
2.509619709159962,-67.86009994447528
2.510619159462296,-35.86009994447528
2.5116186097646294,-41.86009994447528
2.5126180600669628,-5.86009994447528
2.513617510369297,22.139900055524716
2.5146169606716304,-39.86009994447528
2.5156164109739643,-61.86009994447528
2.5166158612762985,-34.86009994447528
2.5176153115786315,-19.86009994447528
2.5186147618809653,43.13990005552472
2.5196142121832987,107.1399000555247
2.520613662485633,77.13990005552472
2.521613112787967,33.13990005552472
2.5226125630903,-8.860099944475278
2.5236120133926345,-13.860099944475278
2.5246114636949684,-8.860099944475278
2.5256109139973013,-8.860099944475278
2.5266103642996347,-24.860099944475284
2.527609814601969,-10.860099944475278
2.5286092649043033,40.13990005552472
2.5296087152066358,38.13990005552472
2.5306081655089705,-12.860099944475278
2.5316076158113043,-64.86009994447528
2.5326070661136377,-73.86009994447528
2.5336065164159707,-27.860099944475284
2.534605966718305,-17.86009994447528
2.5356054170206392,17.13990005552472
2.5366048673229717,68.13990005552472
2.537604317625306,59.13990005552472
2.53860376792764,-4.86009994447528
2.5396032182299737,-38.86009994447528
2.5406026685323067,-41.86009994447528
2.541602118834641,33.13990005552472
2.5426015691369748,67.13990005552472
2.5436010194393086,68.13990005552472
2.544600469741642,60.13990005552472
2.545599920043976,25.139900055524716
2.5465993703463097,-63.86009994447528
2.547598820648643,-106.8600999444753
2.548598270950977,-56.86009994447528
2.5495977212533107,40.13990005552472
2.5505971715556446,24.139900055524716
2.551596621857978,-10.860099944475278
2.552596072160312,-30.860099944475284
2.5535955224626457,-9.860099944475278
2.5545949727649795,-21.860099944475284
2.5555944230673133,-72.86009994447528
2.5565938733696467,-68.86009994447528
2.557593323671981,-19.86009994447528
2.558592773974314,32.13990005552472
2.559592224276648,82.13990005552472
2.5605916745789816,84.13990005552472
2.5615911248813155,61.13990005552472
2.562590575183649,52.13990005552472
2.5635900254859827,-53.86009994447528
2.5645894757883165,-104.8600999444753
2.5655889260906504,-63.86009994447528
2.566588376392984,25.139900055524716
2.5675878266953176,59.13990005552472
2.5685872769976514,-2.86009994447528
2.5695867272999853,-36.86009994447528
2.5705861776023187,-19.86009994447528
2.5715856279046525,-12.860099944475278
2.5725850782069863,-10.860099944475278
2.57358452850932,-44.86009994447528
2.5745839788116536,-21.860099944475284
2.5755834291139874,62.13990005552472
2.576582879416321,101.1399000555247
2.577582329718654,116.1399000555247
2.5785817800209885,136.13990005552472
2.5795812303233223,125.1399000555247
2.5805806806256557,38.13990005552472
2.581580130927989,-36.86009994447528
2.5825795812303234,-89.8600999444753
2.5835790315326568,-97.8600999444753
2.5845784818349906,-101.8600999444753
2.5855779321373245,-116.8600999444753
2.5865773824396583,-111.8600999444753
2.5875768327419917,-113.8600999444753
2.588576283044325,-58.86009994447528
2.58957573334666,4.13990005552472
2.590575183648993,113.1399000555247
2.5915746339513266,243.13990005552472
2.5925740842536604,245.13990005552472
2.5935735345559943,124.1399000555247
2.594572984858328,-26.860099944475284
2.595572435160661,-99.8600999444753
2.5965718854629958,-103.8600999444753
2.597571335765329,-111.8600999444753
2.598570786067663,-71.86009994447528
2.5995702363699964,-49.86009994447528
2.6005696866723302,-83.86009994447528
2.601569136974664,-60.86009994447528
2.6025685872769984,-53.86009994447528
2.6035680375793318,-28.860099944475284
2.604567487881665,38.13990005552472
2.605566938183999,89.1399000555247
2.6065663884863324,113.1399000555247
2.607565838788666,120.1399000555247
2.608565289091,117.1399000555247
2.609564739393334,69.13990005552472
2.6105641896956677,-21.860099944475284
2.6115636399980007,-69.86009994447528
2.612563090300335,-87.8600999444753
2.613562540602669,-68.86009994447528
2.614561990905002,-53.86009994447528
2.615561441207336,-46.86009994447528
2.61656089150967,-59.86009994447528
2.6175603418120037,-53.86009994447528
2.6185597921143366,-29.860099944475284
2.619559242416671,60.13990005552472
2.6205586927190048,110.1399000555247
2.621558143021338,96.1399000555247
2.622557593323672,61.13990005552472
2.623557043626006,65.13990005552472
2.62455649392834,87.1399000555247
2.6255559442306735,63.13990005552472
2.626555394533007,-7.86009994447528
2.6275548448353407,-44.86009994447528
2.628554295137674,-74.86009994447528
2.6295537454400084,-107.8600999444753
2.630553195742342,-100.8600999444753
2.631552646044676,-80.86009994447528
2.632552096347009,-56.86009994447528
2.6335515466493433,-23.860099944475284
2.6345509969516767,2.13990005552472
2.6355504472540106,27.139900055524716
2.6365498975563444,32.13990005552472
2.6375493478586782,2.13990005552472
2.638548798161012,-10.860099944475278
2.639548248463345,47.13990005552472
2.6405476987656793,51.13990005552472
2.6415471490680127,61.13990005552472
2.6425465993703465,73.13990005552472
2.6435460496726804,45.13990005552472
2.6445454999750138,32.13990005552472
2.645544950277348,-3.86009994447528
2.646544400579681,-17.86009994447528
2.6475438508820153,-10.860099944475278
2.6485433011843487,4.13990005552472
2.6495427514866825,38.13990005552472
2.6505422017890163,28.139900055524716
2.6515416520913497,-26.860099944475284
2.652541102393684,-45.86009994447528
2.6535405526960174,-32.86009994447528
2.6545400029983512,-77.86009994447528
2.6555394533006846,-137.86009994447528
2.6565389036030185,-87.8600999444753
2.6575383539053523,-0.8600999444752802
2.6585378042076857,74.13990005552472
2.6595372545100195,103.1399000555247
2.6605367048123534,67.13990005552472
2.6615361551146868,35.13990005552472
2.6625356054170206,-15.860099944475278
2.6635350557193544,-38.86009994447528
2.6645345060216883,-38.86009994447528
2.6655339563240217,0.13990005552471985
2.6665334066263555,-14.860099944475278
2.6675328569286894,-55.86009994447528
2.668532307231023,-43.86009994447528
2.6695317575333566,-57.86009994447528
2.6705312078356904,-58.86009994447528
2.6715306581380243,5.13990005552472
2.6725301084403577,66.13990005552472
2.6735295587426915,164.13990005552472
2.6745290090450253,164.13990005552472
2.6755284593473587,93.1399000555247
2.676527909649693,77.13990005552472
2.6775273599520264,-7.86009994447528
2.67852681025436,-122.8600999444753
2.679526260556694,-174.86009994447528
2.6805257108590275,-135.86009994447528
2.6815251611613613,-68.86009994447528
2.6825246114636947,-30.860099944475284
2.6835240617660285,140.13990005552472
2.6845235120683624,214.13990005552472
2.685522962370696,98.1399000555247
2.68652241267303,13.139900055524722
2.6875218629753634,18.13990005552472
2.6885213132776973,-4.86009994447528
2.6895207635800307,-16.86009994447528
2.6905202138823654,26.139900055524716
2.6915196641846983,6.13990005552472
2.6925191144870317,-92.8600999444753
2.6935185647893656,-162.86009994447528
2.6945180150916994,-155.86009994447528
2.6955174653940333,-77.86009994447528
2.6965169156963666,-49.86009994447528
2.6975163659987014,-27.860099944475284
2.6985158163010343,28.139900055524716
2.6995152666033677,90.1399000555247
2.7005147169057016,20.13990005552472
2.7015141672080363,-33.86009994447528
2.702513617510369,44.13990005552472
2.703513067812703,92.1399000555247
2.704512518115037,98.1399000555247
2.7055119684173703,124.1399000555247
2.706511418719704,78.13990005552472
2.707510869022038,-33.86009994447528
2.708510319324372,-32.86009994447528
2.709509769626705,-96.8600999444753
2.710509219929039,-86.8600999444753
2.7115086702313733,-34.86009994447528
2.7125081205337067,38.13990005552472
2.7135075708360397,104.1399000555247
2.7145070211383744,38.13990005552472
2.7155064714407082,-61.86009994447528
2.716505921743041,-87.8600999444753
2.717505372045375,-90.8600999444753
2.718504822347709,-81.86009994447528
2.7195042726500427,-18.86009994447528
2.720503722952376,75.13990005552472
2.72150317325471,102.1399000555247
2.722502623557044,101.1399000555247
2.7235020738593776,30.139900055524716
2.7245015241617105,-4.86009994447528
2.7255009744640453,-37.86009994447528
2.7265004247663787,-62.86009994447528
2.7274998750687116,4.13990005552472
2.728499325371046,30.139900055524716
2.72949877567338,19.13990005552472
2.7304982259757136,-28.860099944475284
2.731497676278047,-65.86009994447528
2.732497126580381,12.139900055524722
2.733496576882714,72.13990005552472
2.7344960271850485,16.13990005552472
2.735495477487382,-78.86009994447528
2.736494927789716,-73.86009994447528
2.737494378092049,8.13990005552472
2.7384938283943834,124.1399000555247
2.7394932786967168,147.13990005552472
2.7404927289990506,-15.860099944475278
2.7414921793013844,-108.8600999444753
2.7424916296037187,-113.8600999444753
2.743491079906052,-38.86009994447528
2.744490530208385,48.13990005552472
2.74548998051072,58.13990005552472
2.7464894308130527,9.139900055524722
2.7474888811153866,-20.86009994447528
2.7484883314177204,-26.860099944475284
2.7494877817200543,-12.860099944475278
2.750487232022388,49.13990005552472
2.751486682324721,81.13990005552472
2.7524861326270558,48.13990005552472
2.7534855829293887,-19.86009994447528
2.7544850332317226,-107.8600999444753
2.7554844835340564,-118.8600999444753
2.7564839338363902,-64.86009994447528
2.757483384138724,38.13990005552472
2.758482834441057,136.13990005552472
2.7594822847433917,122.1399000555247
2.7604817350457247,90.1399000555247
2.7614811853480585,72.13990005552472
2.7624806356503924,-24.860099944475284
2.763480085952726,-115.8600999444753
2.76447953625506,-102.8600999444753
2.765478986557393,-52.86009994447528
2.7664784368597277,-31.860099944475284
2.7674778871620607,-8.860099944475278
2.7684773374643945,95.1399000555247
2.7694767877667283,31.139900055524716
2.770476238069062,-23.860099944475284
2.771475688371396,-65.86009994447528
2.7724751386737294,-62.86009994447528
2.7734745889760632,17.13990005552472
2.774474039278397,29.139900055524716
2.7754734895807305,-4.86009994447528
2.7764729398830643,-81.86009994447528
2.7774723901853977,-22.860099944475284
2.7784718404877315,32.13990005552472
2.7794712907900654,39.13990005552472
2.7804707410923992,86.1399000555247
2.781470191394733,27.139900055524716
2.7824696416970665,-54.86009994447528
2.7834690919994003,-45.86009994447528
2.784468542301734,32.13990005552472
2.7854679926040684,49.13990005552472
2.7864674429064014,60.13990005552472
2.787466893208735,40.13990005552472
2.788466343511069,22.139900055524716
2.7894657938134033,-12.860099944475278
2.7904652441157363,-100.8600999444753
2.7914646944180697,-94.8600999444753
2.792464144720404,-42.86009994447528
2.7934635950227373,7.13990005552472
2.7944630453250707,65.13990005552472
2.795462495627405,159.13990005552472
2.7964619459297393,133.13990005552472
2.797461396232072,48.13990005552472
2.798460846534406,-71.86009994447528
2.7994602968367404,-127.8600999444753
2.8004597471390738,-123.8600999444753
2.8014591974414067,-97.8600999444753
2.8024586477437405,-67.86009994447528
2.8034580980460753,11.139900055524722
2.804457548348408,121.1399000555247
2.8054569986507416,167.13990005552472
2.806456448953076,107.1399000555247
2.8074558992554097,-40.86009994447528
2.808455349557743,-129.86009994447528
2.809454799860077,-137.86009994447528
2.8104542501624112,-91.8600999444753
2.8114537004647446,1.1399000555247198
2.8124531507670785,62.13990005552472
2.8134526010694123,85.13990005552472
2.8144520513717457,85.13990005552472
2.8154515016740786,17.13990005552472
2.816450951976413,-23.860099944475284
2.8174504022787468,-68.86009994447528
2.8184498525810806,-45.86009994447528
2.8194493028834136,-7.86009994447528
2.820448753185748,-18.86009994447528
2.8214482034880817,-37.86009994447528
2.8224476537904155,-7.86009994447528
2.823447104092749,56.13990005552472
2.8244465543950827,83.13990005552472
2.8254460046974166,80.13990005552472
2.8264454549997504,103.1399000555247
2.8274449053020843,113.1399000555247
2.8284443556044176,42.13990005552472
2.8294438059067515,-75.86009994447528
2.830443256209085,-150.86009994447528
2.8314427065114187,-106.8600999444753
2.832442156813753,-26.860099944475284
2.8334416071160864,33.13990005552472
2.83444105741842,15.139900055524722
2.8354405077207536,-10.860099944475278
2.8364399580230875,-61.86009994447528
2.8374394083254213,-72.86009994447528
2.8384388586277547,15.139900055524722
2.8394383089300885,72.13990005552472
2.8404377592324224,122.1399000555247
2.841437209534756,102.1399000555247
2.8424366598370896,7.13990005552472
2.8434361101394234,-59.86009994447528
2.8444355604417573,-43.86009994447528
2.8454350107440907,-15.860099944475278
2.8464344610464245,6.13990005552472
2.8474339113487583,31.139900055524716
2.848433361651092,-31.860099944475284
2.8494328119534256,-92.8600999444753
2.8504322622557594,-91.8600999444753
2.851431712558093,-131.86009994447528
2.852431162860426,-94.8600999444753
2.8534306131627605,9.139900055524722
2.8544300634650943,102.1399000555247
2.8554295137674286,177.13990005552472
2.856428964069761,147.13990005552472
2.8574284143720954,81.13990005552472
2.8584278646744288,-8.860099944475278
2.8594273149767626,-47.86009994447528
2.8604267652790965,-52.86009994447528
2.8614262155814303,-26.860099944475284
2.8624256658837632,-11.860099944475278
2.863425116186097,-6.86009994447528
2.864424566488432,-15.860099944475278
2.8654240167907647,-40.86009994447528
2.8664234670930986,-63.86009994447528
2.8674229173954324,-96.8600999444753
2.8684223676977663,-46.86009994447528
2.8694218180001,136.13990005552472
2.870421268302433,232.13990005552472
2.8714207186047678,129.13990005552472
2.872420168907101,-22.860099944475284
2.873419619209435,-39.86009994447528
2.8744190695117684,-26.860099944475284
2.8754185198141022,-22.860099944475284
2.876417970116436,3.13990005552472
2.8774174204187704,-24.860099944475284
2.8784168707211037,-49.86009994447528
2.8794163210234367,-67.86009994447528
2.8804157713257714,-85.86009994447528
2.8814152216281044,-71.86009994447528
2.882414671930438,-41.86009994447528
2.883414122232772,-4.86009994447528
2.8844135725351063,43.13990005552472
2.8854130228374397,76.13990005552472
2.886412473139773,21.13990005552472
2.887411923442107,-18.86009994447528
2.8884113737444412,5.13990005552472
2.8894108240467737,-14.860099944475278
2.8904102743491076,9.139900055524722
2.8914097246514423,93.1399000555247
2.8924091749537757,177.13990005552472
2.8934086252561086,161.13990005552472
2.894408075558443,28.139900055524716
2.8954075258607768,-75.86009994447528
2.89640697616311,-141.86009994447528
2.897406426465444,-151.86009994447528
2.8984058767677783,-54.86009994447528
2.899405327070112,33.13990005552472
2.900404777372445,65.13990005552472
2.901404227674779,28.139900055524716
2.9024036779771127,-42.86009994447528
2.9034031282794466,-69.86009994447528
2.9044025785817795,-93.8600999444753
2.905402028884114,-58.86009994447528
2.906401479186448,-50.86009994447528
2.907400929488781,-5.86009994447528
2.9084003797911153,61.13990005552472
2.9093998300934487,49.13990005552472
2.9103992803957826,84.13990005552472
2.9113987306981164,88.1399000555247
2.9123981810004502,132.13990005552472
2.913397631302784,106.1399000555247
2.914397081605117,30.139900055524716
2.9153965319074513,16.13990005552472
2.9163959822097847,-17.86009994447528
2.9173954325121185,-21.860099944475284
2.9183948828144515,-30.860099944475284
2.9193943331167858,-46.86009994447528
2.92039378341912,-29.860099944475284
2.921393233721453,-89.8600999444753
2.9223926840237873,-136.86009994447528
2.9233921343261207,-122.8600999444753
2.9243915846284545,-71.86009994447528
2.9253910349307883,38.13990005552472
2.9263904852331217,96.1399000555247
2.927389935535456,84.13990005552472
2.9283893858377894,4.13990005552472
2.929388836140123,-91.8600999444753
2.9303882864424566,-123.8600999444753
2.9313877367447905,-112.8600999444753
2.9323871870471243,-14.860099944475278
2.9333866373494577,173.13990005552472
2.9343860876517915,242.13990005552472
2.9353855379541254,183.13990005552472
2.936384988256459,99.1399000555247
2.9373844385587926,31.139900055524716
2.9383838888611264,-63.86009994447528
2.9393833391634603,-118.8600999444753
2.9403827894657937,-51.86009994447528
2.9413822397681275,-6.86009994447528
2.9423816900704614,-25.860099944475284
2.9433811403727947,-16.86009994447528
2.9443805906751286,-48.86009994447528
2.9453800409774624,-62.86009994447528
2.9463794912797963,-43.86009994447528
2.9473789415821297,-69.86009994447528
2.9483783918844635,-67.86009994447528
2.9493778421867973,23.139900055524716
2.950377292489131,110.1399000555247
2.951376742791465,139.13990005552472
2.9523761930937984,81.13990005552472
2.953375643396132,29.139900055524716
2.9543750936984665,-19.86009994447528
2.9553745440007995,-62.86009994447528
2.9563739943031333,-110.8600999444753
2.9573734446054667,-149.86009994447528
2.958372894907801,-118.8600999444753
2.9593723452101344,-93.8600999444753
2.960371795512468,-89.8600999444753
2.961371245814802,16.13990005552472
2.9623706961171354,214.13990005552472
2.9633701464194693,391.13990005552466
2.964369596721803,418.13990005552466
2.965369047024137,163.13990005552472
2.9663684973264703,-95.8600999444753
2.9673679476288037,-177.86009994447528
2.9683673979311385,-169.86009994447528
2.9693668482334714,-136.86009994447528
2.970366298535805,-116.8600999444753
2.9713657488381386,-120.8600999444753
2.972365199140473,-95.8600999444753
2.9733646494428063,-52.86009994447528
2.97436409974514,-15.860099944475278
2.975363550047474,34.13990005552472
2.9763630003498083,84.13990005552472
2.977362450652141,63.13990005552472
2.9783619009544746,65.13990005552472
2.9793613512568085,58.13990005552472
2.9803608015591427,21.13990005552472
2.981360251861476,-24.860099944475284
2.98235970216381,-60.86009994447528
2.9833591524661434,-8.860099944475278
2.984358602768477,25.139900055524716
2.985358053070811,2.13990005552472
2.986357503373145,11.139900055524722
2.9873569536754787,52.13990005552472
2.988356403977812,45.13990005552472
2.9893558542801464,-5.86009994447528
2.9903553045824802,-30.860099944475284
2.9913547548848136,-26.860099944475284
2.9923542051871475,6.13990005552472
2.9933536554894817,86.1399000555247
2.9943531057918147,78.13990005552472
2.995352556094148,-21.860099944475284
2.996352006396482,-83.86009994447528
2.997351456698816,-121.8600999444753
2.9983509070011496,-160.86009994447528
2.999350357303483,-83.86009994447528
3.000349807605817,77.13990005552472
3.0013492579081507,96.1399000555247
3.0023487082104845,67.13990005552472
3.0033481585128183,124.1399000555247
3.004347608815152,93.1399000555247
3.0053470591174856,69.13990005552472
3.006346509419819,0.13990005552471985
3.0073459597221537,-55.86009994447528
3.008345410024486,-64.86009994447528
3.0093448603268205,-85.86009994447528
3.010344310629154,-56.86009994447528
3.011343760931488,-34.86009994447528
3.012343211233821,-51.86009994447528
3.013342661536156,-33.86009994447528
3.0143421118384888,49.13990005552472
3.0153415621408226,70.13990005552472
3.0163410124431564,55.13990005552472
3.0173404627454903,7.13990005552472
3.018339913047824,-8.860099944475278
3.019339363350157,30.139900055524716
3.020338813652492,32.13990005552472
3.0213382639548247,-19.86009994447528
3.0223377142571586,-42.86009994447528
3.0233371645594924,-31.860099944475284
3.0243366148618263,-25.860099944475284
3.02533606516416,-52.86009994447528
3.026335515466493,-90.8600999444753
3.0273349657688278,-61.86009994447528
3.0283344160711607,-59.86009994447528
3.0293338663734946,-30.860099944475284
3.0303333166758284,88.1399000555247
3.0313327669781622,209.13990005552472
3.032332217280496,201.13990005552472
3.033331667582829,157.13990005552472
3.0343311178851637,18.13990005552472
3.035330568187497,-110.8600999444753
3.0363300184898305,-129.86009994447528
3.0373294687921644,-79.86009994447528
3.038328919094498,22.139900055524716
3.039328369396832,0.13990005552471985
3.040327819699165,-74.86009994447528
3.0413272700014997,-55.86009994447528
3.042326720303833,-35.86009994447528
3.0433261706061665,-13.860099944475278
3.0443256209085003,52.13990005552472
3.0453250712108337,89.1399000555247
3.046324521513168,53.13990005552472
3.0473239718155014,10.139900055524722
3.0483234221178352,40.13990005552472
3.049322872420169,17.13990005552472
3.0503223227225025,-51.86009994447528
3.0513217730248363,-94.8600999444753
3.05232122332717,-93.8600999444753
3.053320673629504,-83.86009994447528
3.0543201239318374,-66.86009994447528
3.0553195742341717,7.13990005552472
3.0563190245365046,69.13990005552472
3.0573184748388385,76.13990005552472
3.0583179251411723,42.13990005552472
3.059317375443506,13.139900055524722
3.06031682574584,70.13990005552472
3.0613162760481734,115.1399000555247
3.0623157263505068,168.13990005552472
3.0633151766528415,159.13990005552472
3.064314626955175,50.13990005552472
3.0653140772575083,-85.86009994447528
3.0663135275598417,-161.86009994447528
3.0673129778621764,-156.86009994447528
3.0683124281645098,-173.86009994447528
3.069311878466843,-143.86009994447528
3.0703113287691766,-45.86009994447528
3.071310779071511,23.139900055524716
3.072310229373844,121.1399000555247
3.073309679676178,187.13990005552472
3.074309129978512,57.13990005552472
3.0753085802808457,-112.8600999444753
3.076308030583179,-154.86009994447528
3.0773074808855134,-117.8600999444753
3.078306931187847,-68.86009994447528
3.0793063814901807,63.13990005552472
3.0803058317925136,165.13990005552472
3.0813052820948483,168.13990005552472
3.0823047323971817,141.13990005552472
3.083304182699515,68.13990005552472
3.0843036330018485,-13.860099944475278
3.085303083304183,-92.8600999444753
3.0863025336065166,-81.86009994447528
3.08730198390885,-65.86009994447528
3.088301434211184,-43.86009994447528
3.0893008845135177,-33.86009994447528
3.0903003348158515,-47.86009994447528
3.0912997851181854,-20.86009994447528
3.0922992354205188,-21.860099944475284
3.0932986857228526,-46.86009994447528
3.094298136025186,-39.86009994447528
3.09529758632752,-6.86009994447528
3.0962970366298537,30.139900055524716
3.0972964869321875,95.1399000555247
3.0982959372345213,174.13990005552472
3.0992953875368547,88.1399000555247
3.100294837839189,22.139900055524716
3.1012942881415224,-7.86009994447528
3.1022937384438563,-7.86009994447528
3.1032931887461896,-51.86009994447528
3.1042926390485235,1.1399000555247198
3.1052920893508573,28.139900055524716
3.1062915396531907,-30.860099944475284
3.107290989955525,-74.86009994447528
3.1082904402578584,-28.860099944475284
3.109289890560192,19.13990005552472
3.1102893408625256,1.1399000555247198
3.1112887911648595,-59.86009994447528
3.1122882414671933,-101.8600999444753
3.1132876917695267,-73.86009994447528
3.1142871420718605,13.139900055524722
3.1152865923741944,86.1399000555247
3.116286042676528,138.13990005552472
3.1172854929788616,116.1399000555247
3.1182849432811954,19.13990005552472
3.1192843935835293,-66.86009994447528
3.1202838438858627,-81.86009994447528
3.1212832941881965,-108.8600999444753
3.1222827444905303,-96.8600999444753
3.1232821947928637,-28.860099944475284
3.1242816450951976,72.13990005552472
3.1252810953975314,95.1399000555247
3.126280545699865,49.13990005552472
3.127279996002198,-11.860099944475278
3.1282794463045325,10.139900055524722
3.1292788966068663,50.13990005552472
3.1302783469092,13.139900055524722
3.131277797211533,18.13990005552472
3.1322772475138674,25.139900055524716
3.1332766978162017,-9.860099944475278
3.1342761481185355,-50.86009994447528
3.1352755984208684,-55.86009994447528
3.1362750487232023,-6.86009994447528
3.137274499025536,31.139900055524716
3.138273949327869,20.13990005552472
3.139273399630204,-18.86009994447528
3.140272849932537,-5.86009994447528
3.141272300234871,14.139900055524722
3.1422717505372044,-5.86009994447528
3.1432712008395383,23.139900055524716
3.1442706511418717,-5.86009994447528
3.1452701014442064,-23.860099944475284
3.1462695517465398,-34.86009994447528
3.147269002048873,-36.86009994447528
3.148268452351207,5.13990005552472
3.1492679026535404,29.139900055524716
3.1502673529558742,23.139900055524716
3.151266803258208,36.13990005552472
3.152266253560542,39.13990005552472
3.1532657038628757,22.139900055524716
3.154265154165209,-30.860099944475284
3.155264604467543,-53.86009994447528
3.1562640547698773,-34.86009994447528
3.1572635050722098,-21.860099944475284
3.1582629553745436,-12.860099944475278
3.159262405676878,-12.860099944475278
3.1602618559792117,-7.86009994447528
3.161261306281545,48.13990005552472
3.162260756583879,-15.860099944475278
3.163260206886213,-77.86009994447528
3.1642596571885466,-55.86009994447528
3.16525910749088,4.13990005552472
3.166258557793214,111.1399000555247
3.167258008095548,125.1399000555247
3.1682574583978815,45.13990005552472
3.1692569087002145,24.139900055524716
3.1702563590025488,2.13990005552472
3.1712558093048817,-27.860099944475284
3.172255259607216,-20.86009994447528
3.17325470990955,22.139900055524716
3.174254160211884,12.139900055524722
3.175253610514217,-16.86009994447528
3.1762530608165513,-51.86009994447528
3.1772525111188847,-55.86009994447528
3.1782519614212186,-58.86009994447528
3.179251411723552,-51.86009994447528
3.1802508620258862,-51.86009994447528
3.18125031232822,-21.860099944475284
3.182249762630553,23.139900055524716
3.1832492129328864,14.139900055524722
3.1842486632352207,-20.86009994447528
3.1852481135375545,61.13990005552472
3.186247563839888,118.1399000555247
3.187247014142222,74.13990005552472
3.188246464444556,14.139900055524722
3.189245914746889,10.139900055524722
3.1902453650492233,27.139900055524716
3.1912448153515567,37.13990005552472
3.1922442656538905,93.1399000555247
3.1932437159562235,96.1399000555247
3.1942431662585578,0.13990005552471985
3.195242616560892,-55.86009994447528
3.196242066863225,-144.86009994447528
