Time,EMG
0.0,-2.9001663893510568
0.0009983527180152747,-2.9001663893510568
0.0019967054360305494,-1.9001663893510568
0.002995058154045824,1.0998336106489432
0.003993410872061099,5.099833610648943
0.004991763590076374,11.099833610648943
0.005990116308091648,8.099833610648943
0.006988469026106923,8.099833610648943
0.007986821744122198,8.099833610648943
0.008985174462137473,5.099833610648943
0.009983527180152748,3.0998336106489432
0.010981879898168023,3.0998336106489432
0.011980232616183296,-0.9001663893510568
0.01297858533419857,-3.9001663893510568
0.013976938052213846,-4.900166389351057
0.01497529077022912,-8.900166389351057
0.015973643488244395,-6.900166389351057
0.01697199620625967,-6.900166389351057
0.017970348924274945,-6.900166389351057
0.01896870164229022,-7.900166389351057
0.019967054360305495,-2.9001663893510568
0.02096540707832077,-1.9001663893510568
0.021963759796336045,0.09983361064894325
0.02296211251435132,4.099833610648943
0.02396046523236659,7.099833610648943
0.024958817950381868,7.099833610648943
0.02595717066839714,6.099833610648943
0.026955523386412418,8.099833610648943
0.02795387610442769,5.099833610648943
0.028952228822442968,6.099833610648943
0.02995058154045824,2.0998336106489432
0.030948934258473518,1.0998336106489432
0.03194728697648879,-1.9001663893510568
0.032945639694504064,-1.9001663893510568
0.03394399241251934,-4.900166389351057
0.03494234513053462,-5.900166389351057
0.03594069784854989,-6.900166389351057
0.036939050566565164,-5.900166389351057
0.03793740328458044,-3.9001663893510568
0.03893575600259572,-5.900166389351057
0.03993410872061099,-2.9001663893510568
0.040932461438626264,0.09983361064894325
0.04193081415664154,0.09983361064894325
0.04292916687465681,1.0998336106489432
0.04392751959267209,7.099833610648943
0.04492587231068736,7.099833610648943
0.04592422502870264,8.099833610648943
0.04692257774671791,4.099833610648943
0.04792093046473318,5.099833610648943
0.04891928318274846,5.099833610648943
0.049917635900763736,3.0998336106489432
0.05091598861877901,1.0998336106489432
0.05191434133679428,1.0998336106489432
0.05291269405480956,-2.9001663893510568
0.053911046772824836,-2.9001663893510568
0.05490939949084011,-5.900166389351057
0.05590775220885538,-6.900166389351057
0.056906104926870656,-2.9001663893510568
0.057904457644885936,-6.900166389351057
0.05890281036290121,-7.900166389351057
0.05990116308091648,-3.9001663893510568
0.060899515798931755,-1.9001663893510568
0.061897868516947036,1.0998336106489432
0.0628962212349623,4.099833610648943
0.06389457395297758,3.0998336106489432
0.06489292667099286,7.099833610648943
0.06589127938900813,6.099833610648943
0.06688963210702341,5.099833610648943
0.06788798482503867,6.099833610648943
0.06888633754305395,5.099833610648943
0.06988469026106923,2.0998336106489432
0.0708830429790845,0.09983361064894325
0.07188139569709978,0.09983361064894325
0.07287974841511505,-0.9001663893510568
0.07387810113313033,-2.9001663893510568
0.07487645385114561,-8.900166389351057
0.07587480656916087,-6.900166389351057
0.07687315928717615,-4.900166389351057
0.07787151200519143,-8.900166389351057
0.0788698647232067,-4.900166389351057
0.07986821744122198,-2.9001663893510568
0.08086657015923725,-1.9001663893510568
0.08186492287725253,2.0998336106489432
0.08286327559526781,1.0998336106489432
0.08386162831328307,4.099833610648943
0.08485998103129835,9.099833610648943
0.08585833374931362,9.099833610648943
0.0868566864673289,4.099833610648943
0.08785503918534418,7.099833610648943
0.08885339190335945,5.099833610648943
0.08985174462137473,2.0998336106489432
0.09085009733938999,-0.9001663893510568
0.09184845005740527,-2.9001663893510568
0.09284680277542055,-1.9001663893510568
0.09384515549343582,-5.900166389351057
0.0948435082114511,-5.900166389351057
0.09584186092946637,-4.900166389351057
0.09684021364748165,-2.9001663893510568
0.09783856636549693,-4.900166389351057
0.09883691908351219,-6.900166389351057
0.09983527180152747,-3.9001663893510568
0.10083362451954275,-0.9001663893510568
0.10183197723755802,2.0998336106489432
0.1028303299555733,0.09983361064894325
0.10382868267358857,5.099833610648943
0.10482703539160385,9.099833610648943
0.10582538810961913,9.099833610648943
0.10682374082763439,5.099833610648943
0.10782209354564967,6.099833610648943
0.10882044626366494,7.099833610648943
0.10981879898168022,3.0998336106489432
0.1108171516996955,-0.9001663893510568
0.11181550441771076,-0.9001663893510568
0.11281385713572605,-3.9001663893510568
0.11381220985374131,-3.9001663893510568
0.11481056257175659,-5.900166389351057
0.11580891528977187,-6.900166389351057
0.11680726800778714,-7.900166389351057
0.11780562072580242,-7.900166389351057
0.1188039734438177,-7.900166389351057
0.11980232616183296,-3.9001663893510568
0.12080067887984824,-2.9001663893510568
0.12179903159786351,1.0998336106489432
0.12279738431587879,2.0998336106489432
0.12379573703389407,4.099833610648943
0.12479408975190934,9.099833610648943
0.1257924424699246,8.099833610648943
0.1267907951879399,5.099833610648943
0.12778914790595516,5.099833610648943
0.12878750062397043,5.099833610648943
0.12978585334198572,4.099833610648943
0.130784206060001,3.0998336106489432
0.13178255877801626,0.09983361064894325
0.13278091149603155,-2.9001663893510568
0.13377926421404682,-2.9001663893510568
0.13477761693206208,-6.900166389351057
0.13577596965007735,-4.900166389351057
0.13677432236809264,-6.900166389351057
0.1377726750861079,-8.900166389351057
0.13877102780412318,-5.900166389351057
0.13976938052213847,-2.9001663893510568
0.14076773324015374,-0.9001663893510568
0.141766085958169,1.0998336106489432
0.1427644386761843,2.0998336106489432
0.14376279139419956,7.099833610648943
0.14476114411221483,8.099833610648943
0.1457594968302301,9.099833610648943
0.1467578495482454,4.099833610648943
0.14775620226626066,8.099833610648943
0.14875455498427592,11.099833610648943
0.14975290770229122,7.099833610648943
0.15075126042030648,2.0998336106489432
0.15174961313832175,-2.9001663893510568
0.15274796585633704,-2.9001663893510568
0.1537463185743523,-6.900166389351057
0.15474467129236757,-8.900166389351057
0.15574302401038287,-7.900166389351057
0.15674137672839814,-7.900166389351057
0.1577397294464134,-7.900166389351057
0.15873808216442867,-4.900166389351057
0.15973643488244396,-3.9001663893510568
0.16073478760045923,-2.9001663893510568
0.1617331403184745,1.0998336106489432
0.1627314930364898,4.099833610648943
0.16372984575450505,6.099833610648943
0.16472819847252032,8.099833610648943
0.16572655119053561,11.099833610648943
0.16672490390855088,6.099833610648943
0.16772325662656615,8.099833610648943
0.1687216093445814,6.099833610648943
0.1697199620625967,3.0998336106489432
0.17071831478061197,-1.9001663893510568
0.17171666749862724,-2.9001663893510568
0.17271502021664253,-3.9001663893510568
0.1737133729346578,-6.900166389351057
0.17471172565267307,-8.900166389351057
0.17571007837068836,-6.900166389351057
0.17670843108870363,-7.900166389351057
0.1777067838067189,-7.900166389351057
0.1787051365247342,-6.900166389351057
0.17970348924274945,-2.9001663893510568
0.18070184196076472,0.09983361064894325
0.18170019467877999,3.0998336106489432
0.18269854739679528,3.0998336106489432
0.18369690011481055,4.099833610648943
0.1846952528328258,9.099833610648943
0.1856936055508411,8.099833610648943
0.18669195826885637,6.099833610648943
0.18769031098687164,7.099833610648943
0.18868866370488693,6.099833610648943
0.1896870164229022,2.0998336106489432
0.19068536914091747,-0.9001663893510568
0.19168372185893273,-3.9001663893510568
0.19268207457694803,-2.9001663893510568
0.1936804272949633,-3.9001663893510568
0.19467878001297856,-7.900166389351057
0.19567713273099385,-6.900166389351057
0.19667548544900912,-6.900166389351057
0.19767383816702438,-5.900166389351057
0.19867219088503968,-7.900166389351057
0.19967054360305495,-3.9001663893510568
0.2006688963210702,-1.9001663893510568
0.2016672490390855,2.0998336106489432
0.20266560175710077,4.099833610648943
0.20366395447511604,5.099833610648943
0.2046623071931313,7.099833610648943
0.2056606599111466,9.099833610648943
0.20665901262916186,7.099833610648943
0.20765736534717713,7.099833610648943
0.20865571806519242,7.099833610648943
0.2096540707832077,4.099833610648943
0.21065242350122296,0.09983361064894325
0.21165077621923825,-1.9001663893510568
0.21264912893725352,-2.9001663893510568
0.21364748165526878,-4.900166389351057
0.21464583437328408,-9.900166389351057
0.21564418709129934,-8.900166389351057
0.2166425398093146,-7.900166389351057
0.21764089252732988,-5.900166389351057
0.21863924524534517,-7.900166389351057
0.21963759796336044,-3.9001663893510568
0.2206359506813757,-2.9001663893510568
0.221634303399391,3.0998336106489432
0.22263265611740626,5.099833610648943
0.22363100883542153,3.0998336106489432
0.22462936155343682,7.099833610648943
0.2256277142714521,10.099833610648943
0.22662606698946736,8.099833610648943
0.22762441970748262,10.099833610648943
0.22862277242549792,7.099833610648943
0.22962112514351318,3.0998336106489432
0.23061947786152845,-0.9001663893510568
0.23161783057954374,-1.9001663893510568
0.232616183297559,-3.9001663893510568
0.23361453601557428,-4.900166389351057
0.23461288873358957,-9.900166389351057
0.23561124145160484,-7.900166389351057
0.2366095941696201,-7.900166389351057
0.2376079468876354,-7.900166389351057
0.23860629960565066,-7.900166389351057
0.23960465232366593,-2.9001663893510568
0.2406030050416812,-0.9001663893510568
0.2416013577596965,1.0998336106489432
0.24259971047771176,3.0998336106489432
0.24359806319572702,5.099833610648943
0.24459641591374232,9.099833610648943
0.24559476863175758,6.099833610648943
0.24659312134977285,6.099833610648943
0.24759147406778814,7.099833610648943
0.2485898267858034,8.099833610648943
0.24958817950381867,1.0998336106489432
0.25058653222183397,0.09983361064894325
0.2515848849398492,-1.9001663893510568
0.2525832376578645,-3.9001663893510568
0.2535815903758798,-6.900166389351057
0.25457994309389503,-7.900166389351057
0.2555782958119103,-7.900166389351057
0.2565766485299256,-7.900166389351057
0.25757500124794086,-5.900166389351057
0.25857335396595615,-6.900166389351057
0.25957170668397145,-5.900166389351057
0.2605700594019867,-1.9001663893510568
0.261568412120002,3.0998336106489432
0.2625667648380173,6.099833610648943
0.2635651175560325,8.099833610648943
0.2645634702740478,10.099833610648943
0.2655618229920631,9.099833610648943
0.26656017571007834,5.099833610648943
0.26755852842809363,5.099833610648943
0.2685568811461089,6.099833610648943
0.26955523386412417,2.0998336106489432
0.27055358658213946,-0.9001663893510568
0.2715519393001547,-0.9001663893510568
0.27255029201817,-0.9001663893510568
0.2735486447361853,-6.900166389351057
0.2745469974542005,-7.900166389351057
0.2755453501722158,-10.900166389351057
0.2765437028902311,-7.900166389351057
0.27754205560824635,-7.900166389351057
0.27854040832626165,-9.900166389351057
0.27953876104427694,-4.900166389351057
0.2805371137622922,-1.9001663893510568
0.2815354664803075,2.0998336106489432
0.28253381919832277,4.099833610648943
0.283532171916338,4.099833610648943
0.2845305246343533,10.099833610648943
0.2855288773523686,9.099833610648943
0.28652723007038383,7.099833610648943
0.2875255827883991,9.099833610648943
0.2885239355064144,8.099833610648943
0.28952228822442966,5.099833610648943
0.29052064094244495,-2.9001663893510568
0.2915189936604602,-3.9001663893510568
0.2925173463784755,-3.9001663893510568
0.2935156990964908,-4.900166389351057
0.294514051814506,-6.900166389351057
0.2955124045325213,-7.900166389351057
0.2965107572505366,-5.900166389351057
0.29750910996855184,-3.9001663893510568
0.29850746268656714,-4.900166389351057
0.29950581540458243,-4.900166389351057
0.30050416812259767,-1.9001663893510568
0.30150252084061296,3.0998336106489432
0.30250087355862826,4.099833610648943
0.3034992262766435,6.099833610648943
0.3044975789946588,8.099833610648943
0.3054959317126741,9.099833610648943
0.3064942844306893,10.099833610648943
0.3074926371487046,7.099833610648943
0.3084909898667199,6.099833610648943
0.30948934258473515,4.099833610648943
0.31048769530275044,0.09983361064894325
0.31148604802076574,-4.900166389351057
0.312484400738781,-1.9001663893510568
0.31348275345679627,-5.900166389351057
0.3144811061748115,-7.900166389351057
0.3154794588928268,-8.900166389351057
0.3164778116108421,-7.900166389351057
0.31747616432885734,-7.900166389351057
0.31847451704687263,-5.900166389351057
0.3194728697648879,-4.900166389351057
0.32047122248290316,-1.9001663893510568
0.32146957520091846,2.0998336106489432
0.32246792791893375,3.0998336106489432
0.323466280636949,8.099833610648943
0.3244646333549643,10.099833610648943
0.3254629860729796,9.099833610648943
0.3264613387909948,5.099833610648943
0.3274596915090101,5.099833610648943
0.3284580442270254,6.099833610648943
0.32945639694504064,4.099833610648943
0.33045474966305594,-2.9001663893510568
0.33145310238107123,-2.9001663893510568
0.33245145509908647,0.09983361064894325
0.33344980781710176,-2.9001663893510568
0.33444816053511706,-6.900166389351057
0.3354465132531323,-6.900166389351057
0.3364448659711476,-6.900166389351057
0.3374432186891628,-7.900166389351057
0.3384415714071781,-9.900166389351057
0.3394399241251934,-4.900166389351057
0.34043827684320865,-3.9001663893510568
0.34143662956122395,0.09983361064894325
0.34243498227923924,2.0998336106489432
0.3434333349972545,6.099833610648943
0.3444316877152698,8.099833610648943
0.34543004043328507,8.099833610648943
0.3464283931513003,7.099833610648943
0.3474267458693156,8.099833610648943
0.3484250985873309,9.099833610648943
0.34942345130534613,2.0998336106489432
0.3504218040233614,1.0998336106489432
0.3514201567413767,-3.9001663893510568
0.35241850945939196,-1.9001663893510568
0.35341686217740725,-3.9001663893510568
0.35441521489542255,-9.900166389351057
0.3554135676134378,-9.900166389351057
0.3564119203314531,-4.900166389351057
0.3574102730494684,-5.900166389351057
0.3584086257674836,-6.900166389351057
0.3594069784854989,-3.9001663893510568
0.36040533120351415,-1.9001663893510568
0.36140368392152944,1.0998336106489432
0.36240203663954473,3.0998336106489432
0.36340038935755997,5.099833610648943
0.36439874207557527,9.099833610648943
0.36539709479359056,6.099833610648943
0.3663954475116058,7.099833610648943
0.3673938002296211,9.099833610648943
0.3683921529476364,8.099833610648943
0.3693905056656516,5.099833610648943
0.3703888583836669,0.09983361064894325
0.3713872111016822,-1.9001663893510568
0.37238556381969745,0.09983361064894325
0.37338391653771275,-4.900166389351057
0.37438226925572804,-8.900166389351057
0.3753806219737433,-6.900166389351057
0.37637897469175857,-6.900166389351057
0.37737732740977387,-4.900166389351057
0.3783756801277891,-5.900166389351057
0.3793740328458044,-2.9001663893510568
0.3803723855638197,0.09983361064894325
0.38137073828183493,3.0998336106489432
0.3823690909998502,3.0998336106489432
0.38336744371786546,4.099833610648943
0.38436579643588076,6.099833610648943
0.38536414915389605,8.099833610648943
0.3863625018719113,6.099833610648943
0.3873608545899266,6.099833610648943
0.3883592073079419,6.099833610648943
0.3893575600259571,2.0998336106489432
0.3903559127439724,0.09983361064894325
0.3913542654619877,-1.9001663893510568
0.39235261818000294,-1.9001663893510568
0.39335097089801824,-3.9001663893510568
0.39434932361603353,-7.900166389351057
0.39534767633404877,-6.900166389351057
0.39634602905206406,-3.9001663893510568
0.39734438177007936,-4.900166389351057
0.3983427344880946,-4.900166389351057
0.3993410872061099,-1.9001663893510568
0.4003394399241252,-0.9001663893510568
0.4013377926421404,1.0998336106489432
0.4023361453601557,2.0998336106489432
0.403334498078171,3.0998336106489432
0.40433285079618625,6.099833610648943
0.40533120351420154,6.099833610648943
0.40632955623221684,3.0998336106489432
0.4073279089502321,5.099833610648943
0.40832626166824737,8.099833610648943
0.4093246143862626,5.099833610648943
0.4103229671042779,1.0998336106489432
0.4113213198222932,-4.900166389351057
0.41231967254030844,0.09983361064894325
0.41331802525832373,-2.9001663893510568
0.414316377976339,-8.900166389351057
0.41531473069435426,-6.900166389351057
0.41631308341236956,-3.9001663893510568
0.41731143613038485,-6.900166389351057
0.4183097888484001,-6.900166389351057
0.4193081415664154,-2.9001663893510568
0.4203064942844307,-2.9001663893510568
0.4213048470024459,2.0998336106489432
0.4223031997204612,1.0998336106489432
0.4233015524384765,4.099833610648943
0.42429990515649174,8.099833610648943
0.42529825787450704,7.099833610648943
0.42629661059252233,5.099833610648943
0.42729496331053757,4.099833610648943
0.42829331602855286,6.099833610648943
0.42929166874656816,2.0998336106489432
0.4302900214645834,1.0998336106489432
0.4312883741825987,-0.9001663893510568
0.4322867269006139,-2.9001663893510568
0.4332850796186292,-2.9001663893510568
0.4342834323366445,-6.900166389351057
0.43528178505465975,-8.900166389351057
0.43628013777267505,-5.900166389351057
0.43727849049069034,-2.9001663893510568
0.4382768432087056,-5.900166389351057
0.4392751959267209,-2.9001663893510568
0.44027354864473617,-0.9001663893510568
0.4412719013627514,0.09983361064894325
0.4422702540807667,0.09983361064894325
0.443268606798782,4.099833610648943
0.44426695951679723,8.099833610648943
0.4452653122348125,5.099833610648943
0.4462636649528278,5.099833610648943
0.44726201767084306,6.099833610648943
0.44826037038885835,7.099833610648943
0.44925872310687365,3.0998336106489432
0.4502570758248889,1.0998336106489432
0.4512554285429042,-0.9001663893510568
0.4522537812609195,-1.9001663893510568
0.4532521339789347,-5.900166389351057
0.45425048669695,-6.900166389351057
0.45524883941496525,-4.900166389351057
0.45624719213298054,-5.900166389351057
0.45724554485099583,-5.900166389351057
0.45824389756901107,-7.900166389351057
0.45924225028702637,-3.9001663893510568
0.46024060300504166,-1.9001663893510568
0.4612389557230569,0.09983361064894325
0.4622373084410722,4.099833610648943
0.4632356611590875,5.099833610648943
0.4642340138771027,10.099833610648943
0.465232366595118,7.099833610648943
0.4662307193131333,6.099833610648943
0.46722907203114855,6.099833610648943
0.46822742474916385,5.099833610648943
0.46922577746717914,4.099833610648943
0.4702241301851944,3.0998336106489432
0.47122248290320967,0.09983361064894325
0.47222083562122497,-2.9001663893510568
0.4732191883392402,-3.9001663893510568
0.4742175410572555,-5.900166389351057
0.4752158937752708,-7.900166389351057
0.47621424649328603,-4.900166389351057
0.4772125992113013,-6.900166389351057
0.47821095192931656,-5.900166389351057
0.47920930464733186,-3.9001663893510568
0.48020765736534715,-0.9001663893510568
0.4812060100833624,0.09983361064894325
0.4822043628013777,1.0998336106489432
0.483202715519393,6.099833610648943
0.4842010682374082,8.099833610648943
0.4851994209554235,7.099833610648943
0.4861977736734388,4.099833610648943
0.48719612639145404,8.099833610648943
0.48819447910946934,5.099833610648943
0.48919283182748463,3.0998336106489432
0.49019118454549987,2.0998336106489432
0.49118953726351516,-2.9001663893510568
0.49218788998153046,-1.9001663893510568
0.4931862426995457,-4.900166389351057
0.494184595417561,-7.900166389351057
0.4951829481355763,-7.900166389351057
0.4961813008535915,-3.9001663893510568
0.4971796535716068,-5.900166389351057
0.4981780062896221,-6.900166389351057
0.49917635900763735,-1.9001663893510568
0.5001747117256526,1.0998336106489432
0.5011730644436679,-0.9001663893510568
0.5021714171616832,2.0998336106489432
0.5031697698796984,3.0998336106489432
0.5041681225977137,8.099833610648943
0.505166475315729,8.099833610648943
0.5061648280337443,5.099833610648943
0.5071631807517596,5.099833610648943
0.5081615334697749,5.099833610648943
0.5091598861877901,3.0998336106489432
0.5101582389058054,1.0998336106489432
0.5111565916238207,-1.9001663893510568
0.512154944341836,0.09983361064894325
0.5131532970598512,-3.9001663893510568
0.5141516497778664,-7.900166389351057
0.5151500024958817,-6.900166389351057
0.516148355213897,-3.9001663893510568
0.5171467079319123,-2.9001663893510568
0.5181450606499276,-5.900166389351057
0.5191434133679429,-2.9001663893510568
0.5201417660859581,0.09983361064894325
0.5211401188039734,-1.9001663893510568
0.5221384715219887,1.0998336106489432
0.523136824240004,5.099833610648943
0.5241351769580193,10.099833610648943
0.5251335296760345,8.099833610648943
0.5261318823940497,1.0998336106489432
0.527130235112065,4.099833610648943
0.5281285878300803,6.099833610648943
0.5291269405480956,5.099833610648943
0.5301252932661109,1.0998336106489432
0.5311236459841262,-0.9001663893510568
0.5321219987021414,-1.9001663893510568
0.5331203514201567,-3.9001663893510568
0.534118704138172,-5.900166389351057
0.5351170568561873,-7.900166389351057
0.5361154095742026,-5.900166389351057
0.5371137622922177,-3.9001663893510568
0.538112115010233,-4.900166389351057
0.5391104677282483,-2.9001663893510568
0.5401088204462636,-0.9001663893510568
0.5411071731642789,0.09983361064894325
0.5421055258822942,-0.9001663893510568
0.5431038786003094,4.099833610648943
0.5441022313183247,9.099833610648943
0.54510058403634,7.099833610648943
0.5460989367543553,3.0998336106489432
0.5470972894723706,4.099833610648943
0.5480956421903859,6.099833610648943
0.549093994908401,3.0998336106489432
0.5500923476264163,2.0998336106489432
0.5510907003444316,-0.9001663893510568
0.5520890530624469,0.09983361064894325
0.5530874057804622,-4.900166389351057
0.5540857584984775,-6.900166389351057
0.5550841112164927,-5.900166389351057
0.556082463934508,-2.9001663893510568
0.5570808166525233,-5.900166389351057
0.5580791693705386,-8.900166389351057
0.5590775220885539,-2.9001663893510568
0.5600758748065691,-1.9001663893510568
0.5610742275245844,-1.9001663893510568
0.5620725802425997,1.0998336106489432
0.563070932960615,4.099833610648943
0.5640692856786302,6.099833610648943
0.5650676383966455,8.099833610648943
0.5660659911146607,5.099833610648943
0.567064343832676,7.099833610648943
0.5680626965506913,7.099833610648943
0.5690610492687066,2.0998336106489432
0.5700594019867219,-0.9001663893510568
0.5710577547047372,-0.9001663893510568
0.5720561074227524,0.09983361064894325
0.5730544601407677,-4.900166389351057
0.574052812858783,-4.900166389351057
0.5750511655767983,-4.900166389351057
0.5760495182948135,-4.900166389351057
0.5770478710128288,-4.900166389351057
0.578046223730844,-5.900166389351057
0.5790445764488593,-4.900166389351057
0.5800429291668746,-1.9001663893510568
0.5810412818848899,-2.9001663893510568
0.5820396346029052,3.0998336106489432
0.5830379873209204,4.099833610648943
0.5840363400389357,6.099833610648943
0.585034692756951,8.099833610648943
0.5860330454749663,4.099833610648943
0.5870313981929816,8.099833610648943
0.5880297509109969,6.099833610648943
0.589028103629012,3.0998336106489432
0.5900264563470273,1.0998336106489432
0.5910248090650426,1.0998336106489432
0.5920231617830579,-1.9001663893510568
0.5930215145010732,-4.900166389351057
0.5940198672190885,-7.900166389351057
0.5950182199371037,-5.900166389351057
0.596016572655119,-3.9001663893510568
0.5970149253731343,-8.900166389351057
0.5980132780911496,-5.900166389351057
0.5990116308091649,-2.9001663893510568
0.6000099835271802,-3.9001663893510568
0.6010083362451953,0.09983361064894325
0.6020066889632106,4.099833610648943
0.6030050416812259,5.099833610648943
0.6040033943992412,9.099833610648943
0.6050017471172565,8.099833610648943
0.6060000998352717,5.099833610648943
0.606998452553287,4.099833610648943
0.6079968052713023,5.099833610648943
0.6089951579893176,4.099833610648943
0.6099935107073329,3.0998336106489432
0.6109918634253482,-1.9001663893510568
0.6119902161433634,-1.9001663893510568
0.6129885688613786,-3.9001663893510568
0.6139869215793939,-7.900166389351057
0.6149852742974092,-5.900166389351057
0.6159836270154245,-4.900166389351057
0.6169819797334398,-4.900166389351057
0.617980332451455,-8.900166389351057
0.6189786851694703,-3.9001663893510568
0.6199770378874856,-0.9001663893510568
0.6209753906055009,1.0998336106489432
0.6219737433235162,2.0998336106489432
0.6229720960415315,4.099833610648943
0.6239704487595467,7.099833610648943
0.624968801477562,6.099833610648943
0.6259671541955772,6.099833610648943
0.6269655069135925,6.099833610648943
0.6279638596316078,8.099833610648943
0.628962212349623,4.099833610648943
0.6299605650676383,0.09983361064894325
0.6309589177856536,-2.9001663893510568
0.6319572705036689,-3.9001663893510568
0.6329556232216842,-4.900166389351057
0.6339539759396995,-8.900166389351057
0.6349523286577147,-6.900166389351057
0.63595068137573,-2.9001663893510568
0.6369490340937453,-4.900166389351057
0.6379473868117606,-7.900166389351057
0.6389457395297758,-3.9001663893510568
0.6399440922477911,0.09983361064894325
0.6409424449658063,1.0998336106489432
0.6419407976838216,1.0998336106489432
0.6429391504018369,4.099833610648943
0.6439375031198522,7.099833610648943
0.6449358558378675,6.099833610648943
0.6459342085558828,5.099833610648943
0.646932561273898,6.099833610648943
0.6479309139919133,7.099833610648943
0.6489292667099286,4.099833610648943
0.6499276194279439,1.0998336106489432
0.6509259721459592,-0.9001663893510568
0.6519243248639743,-2.9001663893510568
0.6529226775819896,-3.9001663893510568
0.6539210303000049,-6.900166389351057
0.6549193830180202,-7.900166389351057
0.6559177357360355,-6.900166389351057
0.6569160884540508,-7.900166389351057
0.657914441172066,-8.900166389351057
0.6589127938900813,-5.900166389351057
0.6599111466080966,-1.9001663893510568
0.6609094993261119,3.0998336106489432
0.6619078520441272,6.099833610648943
0.6629062047621425,7.099833610648943
0.6639045574801576,12.099833610648943
0.6649029101981729,8.099833610648943
0.6659012629161882,7.099833610648943
0.6668996156342035,4.099833610648943
0.6678979683522188,5.099833610648943
0.6688963210702341,2.0998336106489432
0.6698946737882493,-0.9001663893510568
0.6708930265062646,-2.9001663893510568
0.6718913792242799,-0.9001663893510568
0.6728897319422952,-4.900166389351057
0.6738880846603105,-9.900166389351057
0.6748864373783257,-9.900166389351057
0.675884790096341,-5.900166389351057
0.6768831428143562,-7.900166389351057
0.6778814955323715,-6.900166389351057
0.6788798482503868,-1.9001663893510568
0.6798782009684021,-0.9001663893510568
0.6808765536864173,2.0998336106489432
0.6818749064044326,4.099833610648943
0.6828732591224479,7.099833610648943
0.6838716118404632,7.099833610648943
0.6848699645584785,9.099833610648943
0.6858683172764938,5.099833610648943
0.686866669994509,9.099833610648943
0.6878650227125243,9.099833610648943
0.6888633754305395,4.099833610648943
0.6898617281485548,1.0998336106489432
0.6908600808665701,-2.9001663893510568
0.6918584335845854,-2.9001663893510568
0.6928567863026006,-6.900166389351057
0.6938551390206159,-6.900166389351057
0.6948534917386312,-8.900166389351057
0.6958518444566465,-7.900166389351057
0.6968501971746618,-9.900166389351057
0.697848549892677,-7.900166389351057
0.6988469026106923,-4.900166389351057
0.6998452553287076,-2.9001663893510568
0.7008436080467229,1.0998336106489432
0.7018419607647381,4.099833610648943
0.7028403134827534,8.099833610648943
0.7038386662007686,11.099833610648943
0.7048370189187839,10.099833610648943
0.7058353716367992,9.099833610648943
0.7068337243548145,7.099833610648943
0.7078320770728298,7.099833610648943
0.7088304297908451,3.0998336106489432
0.7098287825088603,0.09983361064894325
0.7108271352268756,-0.9001663893510568
0.7118254879448909,-4.900166389351057
0.7128238406629062,-6.900166389351057
0.7138221933809215,-4.900166389351057
0.7148205460989367,-7.900166389351057
0.7158188988169519,-6.900166389351057
0.7168172515349672,-5.900166389351057
0.7178156042529825,-10.900166389351057
0.7188139569709978,-4.900166389351057
0.7198123096890131,-1.9001663893510568
0.7208106624070283,2.0998336106489432
0.7218090151250436,3.0998336106489432
0.7228073678430589,4.099833610648943
0.7238057205610742,10.099833610648943
0.7248040732790895,10.099833610648943
0.7258024259971048,5.099833610648943
0.7268007787151199,6.099833610648943
0.7277991314331352,7.099833610648943
0.7287974841511505,4.099833610648943
0.7297958368691658,1.0998336106489432
0.7307941895871811,-2.9001663893510568
0.7317925423051964,-3.9001663893510568
0.7327908950232116,-5.900166389351057
0.7337892477412269,-9.900166389351057
0.7347876004592422,-7.900166389351057
0.7357859531772575,-5.900166389351057
0.7367843058952728,-4.900166389351057
0.7377826586132881,-6.900166389351057
0.7387810113313033,-2.9001663893510568
0.7397793640493185,-0.9001663893510568
0.7407777167673338,2.0998336106489432
0.7417760694853491,4.099833610648943
0.7427744222033644,5.099833610648943
0.7437727749213796,11.099833610648943
0.7447711276393949,11.099833610648943
0.7457694803574102,8.099833610648943
0.7467678330754255,7.099833610648943
0.7477661857934408,4.099833610648943
0.7487645385114561,1.0998336106489432
0.7497628912294713,2.0998336106489432
0.7507612439474866,-0.9001663893510568
0.7517595966655019,-2.9001663893510568
0.7527579493835171,-6.900166389351057
0.7537563021015324,-10.900166389351057
0.7547546548195477,-9.900166389351057
0.7557530075375629,-6.900166389351057
0.7567513602555782,-6.900166389351057
0.7577497129735935,-7.900166389351057
0.7587480656916088,-6.900166389351057
0.7597464184096241,0.09983361064894325
0.7607447711276394,3.0998336106489432
0.7617431238456546,5.099833610648943
0.7627414765636699,7.099833610648943
0.7637398292816852,11.099833610648943
0.7647381819997005,8.099833610648943
0.7657365347177157,5.099833610648943
0.7667348874357309,6.099833610648943
0.7677332401537462,5.099833610648943
0.7687315928717615,3.0998336106489432
0.7697299455897768,-2.9001663893510568
0.7707282983077921,-3.9001663893510568
0.7717266510258074,-2.9001663893510568
0.7727250037438226,-2.9001663893510568
0.7737233564618379,-4.900166389351057
0.7747217091798532,-7.900166389351057
0.7757200618978685,-5.900166389351057
0.7767184146158838,-7.900166389351057
0.777716767333899,-6.900166389351057
0.7787151200519142,-4.900166389351057
0.7797134727699295,-2.9001663893510568
0.7807118254879448,3.0998336106489432
0.7817101782059601,5.099833610648943
0.7827085309239754,8.099833610648943
0.7837068836419907,8.099833610648943
0.7847052363600059,9.099833610648943
0.7857035890780212,4.099833610648943
0.7867019417960365,5.099833610648943
0.7877002945140518,5.099833610648943
0.7886986472320671,4.099833610648943
0.7896969999500824,0.09983361064894325
0.7906953526680975,-1.9001663893510568
0.7916937053861128,-3.9001663893510568
0.7926920581041281,-4.900166389351057
0.7936904108221434,-9.900166389351057
0.7946887635401587,-7.900166389351057
0.7956871162581739,-4.900166389351057
0.7966854689761892,-8.900166389351057
0.7976838216942045,-5.900166389351057
0.7986821744122198,0.09983361064894325
0.7996805271302351,1.0998336106489432
0.8006788798482504,0.09983361064894325
0.8016772325662656,1.0998336106489432
0.8026755852842808,5.099833610648943
0.8036739380022961,10.099833610648943
0.8046722907203114,8.099833610648943
0.8056706434383267,7.099833610648943
0.806668996156342,6.099833610648943
0.8076673488743572,7.099833610648943
0.8086657015923725,1.0998336106489432
0.8096640543103878,0.09983361064894325
0.8106624070284031,-2.9001663893510568
0.8116607597464184,-2.9001663893510568
0.8126591124644337,-4.900166389351057
0.8136574651824489,-8.900166389351057
0.8146558179004642,-7.900166389351057
0.8156541706184794,-3.9001663893510568
0.8166525233364947,-7.900166389351057
0.81765087605451,-6.900166389351057
0.8186492287725252,-5.900166389351057
0.8196475814905405,0.09983361064894325
0.8206459342085558,2.0998336106489432
0.8216442869265711,2.0998336106489432
0.8226426396445864,4.099833610648943
0.8236409923626017,8.099833610648943
0.8246393450806169,9.099833610648943
0.8256376977986322,5.099833610648943
0.8266360505166475,5.099833610648943
0.8276344032346628,6.099833610648943
0.828632755952678,4.099833610648943
0.8296311086706933,3.0998336106489432
0.8306294613887085,0.09983361064894325
0.8316278141067238,-2.9001663893510568
0.8326261668247391,-6.900166389351057
0.8336245195427544,-5.900166389351057
0.8346228722607697,-7.900166389351057
0.835621224978785,-6.900166389351057
0.8366195776968002,-6.900166389351057
0.8376179304148155,-7.900166389351057
0.8386162831328308,-4.900166389351057
0.8396146358508461,-1.9001663893510568
0.8406129885688614,2.0998336106489432
0.8416113412868765,2.0998336106489432
0.8426096940048918,4.099833610648943
0.8436080467229071,9.099833610648943
0.8446063994409224,9.099833610648943
0.8456047521589377,5.099833610648943
0.846603104876953,7.099833610648943
0.8476014575949682,6.099833610648943
0.8485998103129835,3.0998336106489432
0.8495981630309988,1.0998336106489432
0.8505965157490141,-1.9001663893510568
0.8515948684670294,-2.9001663893510568
0.8525932211850447,-4.900166389351057
0.8535915739030598,-7.900166389351057
0.8545899266210751,-6.900166389351057
0.8555882793390904,-4.900166389351057
0.8565866320571057,-4.900166389351057
0.857584984775121,-6.900166389351057
0.8585833374931363,-4.900166389351057
0.8595816902111515,-0.9001663893510568
0.8605800429291668,2.0998336106489432
0.8615783956471821,4.099833610648943
0.8625767483651974,3.0998336106489432
0.8635751010832127,9.099833610648943
0.8645734538012279,8.099833610648943
0.8655718065192431,7.099833610648943
0.8665701592372584,5.099833610648943
0.8675685119552737,7.099833610648943
0.868566864673289,5.099833610648943
0.8695652173913043,2.0998336106489432
0.8705635701093195,-3.9001663893510568
0.8715619228273348,-2.9001663893510568
0.8725602755453501,-2.9001663893510568
0.8735586282633654,-6.900166389351057
0.8745569809813807,-5.900166389351057
0.875555333699396,-5.900166389351057
0.8765536864174112,-7.900166389351057
0.8775520391354265,-9.900166389351057
0.8785503918534417,-2.9001663893510568
0.879548744571457,-0.9001663893510568
0.8805470972894723,3.0998336106489432
0.8815454500074876,4.099833610648943
0.8825438027255028,6.099833610648943
0.8835421554435181,7.099833610648943
0.8845405081615334,7.099833610648943
0.8855388608795487,5.099833610648943
0.886537213597564,8.099833610648943
0.8875355663155792,8.099833610648943
0.8885339190335945,3.0998336106489432
0.8895322717516098,0.09983361064894325
0.890530624469625,0.09983361064894325
0.8915289771876403,-1.9001663893510568
0.8925273299056556,-4.900166389351057
0.8935256826236708,-8.900166389351057
0.8945240353416861,-8.900166389351057
0.8955223880597014,-9.900166389351057
0.8965207407777167,-8.900166389351057
0.897519093495732,-2.9001663893510568
0.8985174462137473,-0.9001663893510568
0.8995157989317625,2.0998336106489432
0.9005141516497778,-3.9001663893510568
0.9015125043677931,-1.9001663893510568
0.9025108570858084,6.099833610648943
0.9035092098038237,9.099833610648943
0.904507562521839,10.099833610648943
0.9055059152398541,5.099833610648943
0.9065042679578694,7.099833610648943
0.9075026206758847,11.099833610648943
0.9085009733939,4.099833610648943
0.9094993261119153,0.09983361064894325
0.9104976788299305,-3.9001663893510568
0.9114960315479458,-4.900166389351057
0.9124943842659611,-6.900166389351057
0.9134927369839764,-6.900166389351057
0.9144910897019917,-1.9001663893510568
0.915489442420007,-3.9001663893510568
0.9164877951380221,-7.900166389351057
0.9174861478560374,-11.900166389351057
0.9184845005740527,-7.900166389351057
0.919482853292068,-4.900166389351057
0.9204812060100833,4.099833610648943
0.9214795587280986,6.099833610648943
0.9224779114461138,9.099833610648943
0.9234762641641291,12.099833610648943
0.9244746168821444,8.099833610648943
0.9254729696001597,1.0998336106489432
0.926471322318175,3.0998336106489432
0.9274696750361903,11.099833610648943
0.9284680277542054,9.099833610648943
0.9294663804722207,0.09983361064894325
0.930464733190236,-5.900166389351057
0.9314630859082513,-0.9001663893510568
0.9324614386262666,-3.9001663893510568
0.9334597913442818,-7.900166389351057
0.9344581440622971,-10.900166389351057
0.9354564967803124,-8.900166389351057
0.9364548494983277,-9.900166389351057
0.937453202216343,-4.900166389351057
0.9384515549343583,5.099833610648943
0.9394499076523735,6.099833610648943
0.9404482603703888,-2.9001663893510568
0.941446613088404,1.0998336106489432
0.9424449658064193,4.099833610648943
0.9434433185244346,5.099833610648943
0.9444416712424499,9.099833610648943
0.9454400239604651,2.0998336106489432
0.9464383766784804,8.099833610648943
0.9474367293964957,9.099833610648943
0.948435082114511,3.0998336106489432
0.9494334348325263,-0.9001663893510568
0.9504317875505416,-2.9001663893510568
0.9514301402685568,-2.9001663893510568
0.9524284929865721,-0.9001663893510568
0.9534268457045874,-15.900166389351057
0.9544251984226026,-10.900166389351057
0.9554235511406179,0.09983361064894325
0.9564219038586331,5.099833610648943
0.9574202565766484,0.09983361064894325
0.9584186092946637,0.09983361064894325
0.959416962012679,-4.900166389351057
0.9604153147306943,-3.9001663893510568
0.9614136674487096,-8.900166389351057
0.9624120201667248,5.099833610648943
0.9634103728847401,14.099833610648943
0.9644087256027554,12.099833610648943
0.9654070783207707,5.099833610648943
0.966405431038786,-4.900166389351057
0.9674037837568012,2.0998336106489432
0.9684021364748164,5.099833610648943
0.9694004891928317,5.099833610648943
0.970398841910847,4.099833610648943
0.9713971946288623,-3.9001663893510568
0.9723955473468776,-6.900166389351057
0.9733939000648929,-12.900166389351057
0.9743922527829081,-9.900166389351057
0.9753906055009234,-4.900166389351057
0.9763889582189387,-2.9001663893510568
0.977387310936954,-5.900166389351057
0.9783856636549693,-1.9001663893510568
0.9793840163729844,2.0998336106489432
0.9803823690909997,8.099833610648943
0.981380721809015,6.099833610648943
0.9823790745270303,4.099833610648943
0.9833774272450456,1.0998336106489432
0.9843757799630609,4.099833610648943
0.9853741326810761,3.0998336106489432
0.9863724853990914,4.099833610648943
0.9873708381171067,4.099833610648943
0.988369190835122,3.0998336106489432
0.9893675435531373,1.0998336106489432
0.9903658962711526,-6.900166389351057
0.9913642489891678,-2.9001663893510568
0.992362601707183,4.099833610648943
0.9933609544251983,-2.9001663893510568
0.9943593071432136,-2.9001663893510568
0.9953576598612289,-3.9001663893510568
0.9963560125792442,-3.9001663893510568
0.9973543652972594,-5.900166389351057
0.9983527180152747,-4.900166389351057
0.99935107073329,-2.9001663893510568
1.0003494234513053,0.09983361064894325
1.0013477761693206,6.099833610648943
1.0023461288873359,4.099833610648943
1.0033444816053512,4.099833610648943
1.0043428343233665,4.099833610648943
1.0053411870413815,-5.900166389351057
1.0063395397593968,1.0998336106489432
1.0073378924774121,17.099833610648943
1.0083362451954274,9.099833610648943
1.0093345979134427,1.0998336106489432
1.010332950631458,-4.900166389351057
1.0113313033494733,-2.9001663893510568
1.0123296560674886,-4.900166389351057
1.0133280087855039,-4.900166389351057
1.0143263615035192,0.09983361064894325
1.0153247142215345,0.09983361064894325
1.0163230669395498,-3.9001663893510568
1.0173214196575648,-10.900166389351057
1.0183197723755801,-4.900166389351057
1.0193181250935954,-3.9001663893510568
1.0203164778116107,-3.9001663893510568
1.021314830529626,0.09983361064894325
1.0223131832476413,8.099833610648943
1.0233115359656566,8.099833610648943
1.024309888683672,6.099833610648943
1.0253082414016872,18.099833610648943
1.0263065941197025,14.099833610648943
1.0273049468377178,6.099833610648943
1.0283032995557329,2.0998336106489432
1.0293016522737481,-29.900166389351057
1.0303000049917634,-7.900166389351057
1.0312983577097787,10.099833610648943
1.032296710427794,4.099833610648943
1.0332950631458093,4.099833610648943
1.0342934158638246,-5.900166389351057
1.03529176858184,-12.900166389351057
1.0362901212998552,-8.900166389351057
1.0372884740178705,-4.900166389351057
1.0382868267358858,4.099833610648943
1.039285179453901,14.099833610648943
1.0402835321719162,1.0998336106489432
1.0412818848899315,-10.900166389351057
1.0422802376079467,-15.900166389351057
1.043278590325962,2.0998336106489432
1.0442769430439773,8.099833610648943
1.0452752957619926,5.099833610648943
1.046273648480008,-6.900166389351057
1.0472720011980232,10.099833610648943
1.0482703539160385,12.099833610648943
1.0492687066340538,4.099833610648943
1.050267059352069,16.099833610648943
1.0512654120700842,6.099833610648943
1.0522637647880995,-16.900166389351057
1.0532621175061148,-21.900166389351057
1.05426047022413,5.099833610648943
1.0552588229421453,19.099833610648943
1.0562571756601606,-6.900166389351057
1.057255528378176,-23.900166389351057
1.0582538810961912,-20.900166389351057
1.0592522338142065,-7.900166389351057
1.0602505865322218,-3.9001663893510568
1.0612489392502371,1.0998336106489432
1.0622472919682524,3.0998336106489432
1.0632456446862675,20.099833610648943
1.0642439974042828,35.09983361064894
1.065242350122298,29.099833610648943
1.0662407028403134,-0.9001663893510568
1.0672390555583287,-25.900166389351057
1.068237408276344,-28.900166389351057
1.0692357609943592,-22.900166389351057
1.0702341137123745,-12.900166389351057
1.0712324664303898,29.099833610648943
1.0722308191484051,29.099833610648943
1.0732291718664204,2.0998336106489432
1.0742275245844355,-18.900166389351057
1.0752258773024508,17.099833610648943
1.076224230020466,-9.900166389351057
1.0772225827384814,-20.900166389351057
1.0782209354564967,-12.900166389351057
1.079219288174512,6.099833610648943
1.0802176408925273,7.099833610648943
1.0812159936105425,1.0998336106489432
1.0822143463285578,5.099833610648943
1.0832126990465731,4.099833610648943
1.0842110517645884,11.099833610648943
1.0852094044826037,4.099833610648943
1.0862077572006188,10.099833610648943
1.087206109918634,-9.900166389351057
1.0882044626366494,8.099833610648943
1.0892028153546647,1.0998336106489432
1.09020116807268,7.099833610648943
1.0911995207906953,10.099833610648943
1.0921978735087106,10.099833610648943
1.0931962262267259,17.099833610648943
1.0941945789447411,-11.900166389351057
1.0951929316627564,-15.900166389351057
1.0961912843807717,-19.900166389351057
1.0971896370987868,-18.900166389351057
1.098187989816802,-5.900166389351057
1.0991863425348174,-20.900166389351057
1.1001846952528327,-9.900166389351057
1.101183047970848,8.099833610648943
1.1021814006888633,14.099833610648943
1.1031797534068786,2.0998336106489432
1.1041781061248939,-2.9001663893510568
1.1051764588429092,-2.9001663893510568
1.1061748115609245,8.099833610648943
1.1071731642789397,12.099833610648943
1.108171516996955,6.099833610648943
1.1091698697149701,9.099833610648943
1.1101682224329854,-8.900166389351057
1.1111665751510007,0.09983361064894325
1.112164927869016,15.099833610648943
1.1131632805870313,-12.900166389351057
1.1141616333050466,-33.90016638935106
1.1151599860230619,11.099833610648943
1.1161583387410772,-10.900166389351057
1.1171566914590925,13.099833610648943
1.1181550441771078,-21.900166389351057
1.119153396895123,-62.90016638935106
1.1201517496131381,18.099833610648943
1.1211501023311534,54.09983361064894
1.1221484550491687,40.09983361064894
1.123146807767184,31.099833610648943
1.1241451604851993,40.09983361064894
1.1251435132032146,-14.900166389351057
1.12614186592123,-49.90016638935106
1.1271402186392452,-73.90016638935106
1.1281385713572605,-70.90016638935106
1.1291369240752758,10.099833610648943
1.130135276793291,39.09983361064894
1.1311336295113064,33.09983361064894
1.1321319822293214,37.09983361064894
1.1331303349473367,23.099833610648943
1.134128687665352,20.099833610648943
1.1351270403833673,11.099833610648943
1.1361253931013826,-22.900166389351057
1.137123745819398,-20.900166389351057
1.1381220985374132,-10.900166389351057
1.1391204512554285,23.099833610648943
1.1401188039734438,59.09983361064894
1.141117156691459,33.09983361064894
1.1421155094094744,-14.900166389351057
1.1431138621274894,-43.90016638935106
1.1441122148455047,-32.90016638935106
1.14511056756352,-6.900166389351057
1.1461089202815353,19.099833610648943
1.1471072729995506,16.099833610648943
1.148105625717566,-6.900166389351057
1.1491039784355812,-21.900166389351057
1.1501023311535965,-19.900166389351057
1.1511006838716118,-2.9001663893510568
1.152099036589627,-9.900166389351057
1.1530973893076424,-12.900166389351057
1.1540957420256577,1.0998336106489432
1.1550940947436728,4.099833610648943
1.156092447461688,-4.900166389351057
1.1570908001797033,-17.900166389351057
1.1580891528977186,-34.90016638935106
1.159087505615734,-38.90016638935106
1.1600858583337492,11.099833610648943
1.1610842110517645,32.09983361064894
1.1620825637697798,33.09983361064894
1.163080916487795,17.099833610648943
1.1640792692058104,16.099833610648943
1.1650776219238257,19.099833610648943
1.1660759746418408,10.099833610648943
1.167074327359856,-9.900166389351057
1.1680726800778714,1.0998336106489432
1.1690710327958866,-20.900166389351057
1.170069385513902,15.099833610648943
1.1710677382319172,36.09983361064894
1.1720660909499325,-19.900166389351057
1.1730644436679478,-52.90016638935106
1.1740627963859631,-31.900166389351057
1.1750611491039784,4.099833610648943
1.1760595018219937,-2.9001663893510568
1.177057854540009,19.099833610648943
1.178056207258024,71.09983361064894
1.1790545599760394,72.09983361064894
1.1800529126940547,-45.90016638935106
1.18105126541207,-143.90016638935106
1.1820496181300852,-104.90016638935106
1.1830479708481005,7.099833610648943
1.1840463235661158,99.09983361064894
1.1850446762841311,104.09983361064894
1.1860430290021464,97.09983361064894
1.1870413817201617,30.099833610648943
1.188039734438177,-4.900166389351057
1.189038087156192,-9.900166389351057
1.1900364398742074,14.099833610648943
1.1910347925922227,3.0998336106489432
1.192033145310238,-25.900166389351057
1.1930314980282533,-27.900166389351057
1.1940298507462686,-47.90016638935106
1.1950282034642838,-46.90016638935106
1.1960265561822991,2.0998336106489432
1.1970249089003144,-3.9001663893510568
1.1980232616183297,-19.900166389351057
1.199021614336345,-10.900166389351057
1.2000199670543603,-49.90016638935106
1.2010183197723754,-59.90016638935106
1.2020166724903907,-7.900166389351057
1.203015025208406,34.09983361064894
1.2040133779264213,18.099833610648943
1.2050117306444366,-5.900166389351057
1.2060100833624519,-41.90016638935106
1.2070084360804672,7.099833610648943
1.2080067887984824,34.09983361064894
1.2090051415164977,93.09983361064894
1.210003494234513,104.09983361064894
1.2110018469525283,77.09983361064894
1.2120001996705434,24.099833610648943
1.2129985523885587,-30.900166389351057
1.213996905106574,-46.90016638935106
1.2149952578245893,-4.900166389351057
1.2159936105426046,-8.900166389351057
1.2169919632606199,-14.900166389351057
1.2179903159786352,-127.90016638935106
1.2189886686966505,-62.90016638935106
1.2199870214146658,-14.900166389351057
1.220985374132681,-16.900166389351057
1.2219837268506963,0.09983361064894325
1.2229820795687116,53.09983361064894
1.2239804322867267,68.09983361064894
1.224978785004742,54.09983361064894
1.2259771377227573,130.09983361064894
1.2269754904407726,50.09983361064894
1.2279738431587879,-23.900166389351057
1.2289721958768032,-43.90016638935106
1.2299705485948185,-32.90016638935106
1.2309689013128338,-32.90016638935106
1.231967254030849,-30.900166389351057
1.2329656067488644,-13.900166389351057
1.2339639594668796,-6.900166389351057
1.2349623121848947,10.099833610648943
1.23596066490291,18.099833610648943
1.2369590176209253,20.099833610648943
1.2379573703389406,0.09983361064894325
1.238955723056956,-65.90016638935106
1.2399540757749712,-54.90016638935106
1.2409524284929865,-4.900166389351057
1.2419507812110018,1.0998336106489432
1.242949133929017,52.09983361064894
1.2439474866470324,33.09983361064894
1.2449458393650477,-27.900166389351057
1.245944192083063,-30.900166389351057
1.246942544801078,2.0998336106489432
1.2479408975190933,8.099833610648943
1.2489392502371086,-9.900166389351057
1.249937602955124,-18.900166389351057
1.2509359556731392,-19.900166389351057
1.2519343083911545,8.099833610648943
1.2529326611091698,52.09983361064894
1.253931013827185,1.0998336106489432
1.2549293665452004,8.099833610648943
1.2559277192632157,31.099833610648943
1.256926071981231,-27.900166389351057
1.257924424699246,13.099833610648943
1.2589227774172613,22.099833610648943
1.2599211301352766,-23.900166389351057
1.260919482853292,-35.90016638935106
1.2619178355713072,-32.90016638935106
1.2629161882893225,-10.900166389351057
1.2639145410073378,14.099833610648943
1.264912893725353,13.099833610648943
1.2659112464433684,72.09983361064894
1.2669095991613837,49.09983361064894
1.267907951879399,8.099833610648943
1.2689063045974143,-40.90016638935106
1.2699046573154293,-30.900166389351057
1.2709030100334446,-25.900166389351057
1.27190136275146,16.099833610648943
1.2728997154694752,-0.9001663893510568
1.2738980681874905,-53.90016638935106
1.2748964209055058,-80.90016638935106
1.275894773623521,-81.90016638935106
1.2768931263415364,-99.90016638935106
1.2778914790595517,-7.900166389351057
1.278889831777567,52.09983361064894
1.2798881844955823,36.09983361064894
1.2808865372135974,102.09983361064894
1.2818848899316126,156.09983361064894
1.282883242649628,132.09983361064894
1.2838815953676432,91.09983361064894
1.2848799480856585,34.09983361064894
1.2858783008036738,11.099833610648943
1.2868766535216891,-10.900166389351057
1.2878750062397044,-34.90016638935106
1.2888733589577197,-58.90016638935106
1.289871711675735,-42.90016638935106
1.2908700643937503,-28.900166389351057
1.2918684171117656,-19.900166389351057
1.2928667698297807,-22.900166389351057
1.293865122547796,-50.90016638935106
1.2948634752658112,-33.90016638935106
1.2958618279838265,-31.900166389351057
1.2968601807018418,-19.900166389351057
1.2978585334198571,7.099833610648943
1.2988568861378724,-6.900166389351057
1.2998552388558877,-39.90016638935106
1.300853591573903,-72.90016638935106
1.3018519442919183,-77.90016638935106
1.3028502970099336,-13.900166389351057
1.3038486497279487,53.09983361064894
1.304847002445964,92.09983361064894
1.3058453551639793,152.09983361064894
1.3068437078819946,101.09983361064894
1.3078420606000098,36.09983361064894
1.3088404133180251,-50.90016638935106
1.3098387660360404,-74.90016638935106
1.3108371187540557,-12.900166389351057
1.311835471472071,-15.900166389351057
1.3128338241900863,4.099833610648943
1.3138321769081016,-2.9001663893510568
1.314830529626117,-42.90016638935106
1.315828882344132,45.09983361064894
1.3168272350621473,117.09983361064894
1.3178255877801626,8.099833610648943
1.3188239404981779,-25.900166389351057
1.3198222932161932,-19.900166389351057
1.3208206459342084,-48.90016638935106
1.3218189986522237,-75.90016638935106
1.322817351370239,1.0998336106489432
1.3238157040882543,-1.9001663893510568
1.3248140568062696,-39.90016638935106
1.325812409524285,-47.90016638935106
1.3268107622423,-18.900166389351057
1.3278091149603153,29.099833610648943
1.3288074676783306,59.09983361064894
1.3298058203963459,-100.90016638935106
1.3308041731143612,32.09983361064894
1.3318025258323765,145.09983361064894
1.3328008785503918,96.09983361064894
1.333799231268407,30.099833610648943
1.3347975839864223,-43.90016638935106
1.3357959367044376,41.09983361064894
1.336794289422453,65.09983361064894
1.3377926421404682,-6.900166389351057
1.3387909948584833,-74.90016638935106
1.3397893475764986,-40.90016638935106
1.3407877002945139,11.099833610648943
1.3417860530125292,-30.900166389351057
1.3427844057305445,-37.90016638935106
1.3437827584485598,-15.900166389351057
1.344781111166575,-24.900166389351057
1.3457794638845904,-5.900166389351057
1.3467778166026056,80.09983361064894
1.347776169320621,45.09983361064894
1.3487745220386362,-13.900166389351057
1.3497728747566513,-45.90016638935106
1.3507712274746666,-69.90016638935106
1.351769580192682,-57.90016638935106
1.3527679329106972,-41.90016638935106
1.3537662856287125,-34.90016638935106
1.3547646383467278,25.099833610648943
1.355762991064743,-61.90016638935106
1.3567613437827584,-42.90016638935106
1.3577596965007737,29.099833610648943
1.358758049218789,49.09983361064894
1.3597564019368042,112.09983361064894
1.3607547546548195,44.09983361064894
1.3617531073728346,105.09983361064894
1.36275146009085,185.09983361064894
1.3637498128088652,94.09983361064894
1.3647481655268805,-78.90016638935106
1.3657465182448958,-154.90016638935106
1.366744870962911,-105.90016638935106
1.3677432236809264,-65.90016638935106
1.3687415763989417,32.09983361064894
1.369739929116957,66.09983361064894
1.3707382818349723,67.09983361064894
1.3717366345529876,89.09983361064894
1.3727349872710026,14.099833610648943
1.373733339989018,-77.90016638935106
1.3747316927070332,-93.90016638935106
1.3757300454250485,-71.90016638935106
1.3767283981430638,-52.90016638935106
1.377726750861079,-23.900166389351057
1.3787251035790944,59.09983361064894
1.3797234562971097,78.09983361064894
1.380721809015125,-4.900166389351057
1.3817201617331403,-35.90016638935106
1.3827185144511556,-26.900166389351057
1.3837168671691709,-19.900166389351057
1.384715219887186,14.099833610648943
1.3857135726052012,1.0998336106489432
1.3867119253232165,-5.900166389351057
1.3877102780412318,-21.900166389351057
1.388708630759247,-77.90016638935106
1.3897069834772624,-59.90016638935106
1.3907053361952777,157.09983361064894
1.391703688913293,245.09983361064894
1.3927020416313083,214.09983361064894
1.3937003943493236,-51.90016638935106
1.3946987470673389,-155.90016638935106
1.395697099785354,-76.90016638935106
1.3966954525033692,-61.90016638935106
1.3976938052213845,7.099833610648943
1.3986921579393998,-22.900166389351057
1.3996905106574151,-66.90016638935106
1.4006888633754304,-48.90016638935106
1.4016872160934457,-26.900166389351057
1.402685568811461,5.099833610648943
1.4036839215294763,-53.90016638935106
1.4046822742474916,-9.900166389351057
1.4056806269655069,18.099833610648943
1.4066789796835222,95.09983361064894
1.4076773324015373,30.099833610648943
1.4086756851195525,100.09983361064894
1.4096740378375678,101.09983361064894
1.4106723905555831,-114.90016638935106
1.4116707432735984,-122.90016638935106
1.4126690959916137,-63.90016638935106
1.413667448709629,130.09983361064894
1.4146658014276443,189.09983361064894
1.4156641541456596,82.09983361064894
1.416662506863675,-142.90016638935106
1.4176608595816902,-223.90016638935106
1.4186592122997053,-42.90016638935106
1.4196575650177206,132.09983361064894
1.4206559177357359,17.099833610648943
1.4216542704537511,-57.90016638935106
1.4226526231717664,23.099833610648943
1.4236509758897817,44.09983361064894
1.424649328607797,-4.900166389351057
1.4256476813258123,-18.900166389351057
1.4266460340438276,-16.900166389351057
1.427644386761843,-2.9001663893510568
1.4286427394798582,48.09983361064894
1.4296410921978735,6.099833610648943
1.4306394449158886,-17.900166389351057
1.4316377976339039,-2.9001663893510568
1.4326361503519192,5.099833610648943
1.4336345030699345,-22.900166389351057
1.4346328557879497,-14.900166389351057
1.435631208505965,-23.900166389351057
1.4366295612239803,-67.90016638935106
1.4376279139419956,-41.90016638935106
1.438626266660011,-6.900166389351057
1.4396246193780262,-67.90016638935106
1.4406229720960415,-109.90016638935106
1.4416213248140566,6.099833610648943
1.4426196775320719,68.09983361064894
1.4436180302500872,60.09983361064894
1.4446163829681025,187.09983361064894
1.4456147356861178,193.09983361064894
1.446613088404133,120.09983361064894
1.4476114411221483,168.09983361064894
1.4486097938401636,-24.900166389351057
1.449608146558179,-119.90016638935106
1.4506064992761942,93.09983361064894
1.4516048519942095,40.09983361064894
1.4526032047122248,-32.90016638935106
1.4536015574302399,-66.90016638935106
1.4545999101482552,-17.900166389351057
1.4555982628662705,-65.90016638935106
1.4565966155842858,-172.90016638935106
1.457594968302301,-158.90016638935106
1.4585933210203164,-78.90016638935106
1.4595916737383317,-48.90016638935106
1.460590026456347,-51.90016638935106
1.4615883791743622,23.099833610648943
1.4625867318923775,80.09983361064894
1.4635850846103928,51.09983361064894
1.464583437328408,6.099833610648943
1.4655817900464232,-22.900166389351057
1.4665801427644385,-8.900166389351057
1.4675784954824538,2.0998336106489432
1.468576848200469,-21.900166389351057
1.4695752009184844,-62.90016638935106
1.4705735536364997,-81.90016638935106
1.471571906354515,-30.900166389351057
1.4725702590725303,187.09983361064894
1.4735686117905455,94.09983361064894
1.4745669645085608,39.09983361064894
1.4755653172265761,5.099833610648943
1.4765636699445912,5.099833610648943
1.4775620226626065,-32.90016638935106
1.4785603753806218,-77.90016638935106
1.479558728098637,-23.900166389351057
1.4805570808166524,106.09983361064894
1.4815554335346677,102.09983361064894
1.482553786252683,70.09983361064894
1.4835521389706983,-4.900166389351057
1.4845504916887136,-15.900166389351057
1.4855488444067289,-34.90016638935106
1.4865471971247441,-9.900166389351057
1.4875455498427592,-10.900166389351057
1.4885439025607745,-23.900166389351057
1.4895422552787898,11.099833610648943
1.490540607996805,55.09983361064894
1.4915389607148204,-26.900166389351057
1.4925373134328357,-124.90016638935106
1.493535666150851,-167.90016638935106
1.4945340188688663,-66.90016638935106
1.4955323715868816,57.09983361064894
1.4965307243048969,71.09983361064894
1.4975290770229122,-9.900166389351057
1.4985274297409275,51.09983361064894
1.4995257824589425,158.09983361064894
1.5005241351769578,94.09983361064894
1.5015224878949731,-40.90016638935106
1.5025208406129884,59.09983361064894
1.5035191933310037,65.09983361064894
1.504517546049019,-57.90016638935106
1.5055158987670343,-60.90016638935106
1.5065142514850496,37.09983361064894
1.5075126042030649,-25.900166389351057
1.5085109569210802,-101.90016638935106
1.5095093096390955,33.09983361064894
1.5105076623571105,-44.90016638935106
1.5115060150751258,-80.90016638935106
1.5125043677931411,-16.900166389351057
1.5135027205111564,-20.900166389351057
1.5145010732291717,-45.90016638935106
1.515499425947187,-26.900166389351057
1.5164977786652023,-19.900166389351057
1.5174961313832176,-17.900166389351057
1.5184944841012329,1.0998336106489432
1.5194928368192482,-5.900166389351057
1.5204911895372635,-13.900166389351057
1.5214895422552788,-20.900166389351057
1.5224878949732938,-1.9001663893510568
1.5234862476913091,11.099833610648943
1.5244846004093244,36.09983361064894
1.5254829531273397,50.09983361064894
1.526481305845355,-3.9001663893510568
1.5274796585633703,-6.900166389351057
1.5284780112813856,64.09983361064894
1.529476363999401,27.099833610648943
1.5304747167174162,51.09983361064894
1.5314730694354315,85.09983361064894
1.5324714221534468,62.09983361064894
1.5334697748714619,-118.90016638935106
1.5344681275894771,-164.90016638935106
1.5354664803074924,53.09983361064894
1.5364648330255077,134.09983361064894
1.537463185743523,276.09983361064894
1.5384615384615383,81.09983361064894
1.5394598911795536,-78.90016638935106
1.540458243897569,-107.90016638935106
1.5414565966155842,-105.90016638935106
1.5424549493335995,-100.90016638935106
1.5434533020516148,-48.90016638935106
1.54445165476963,34.09983361064894
1.5454500074876452,13.099833610648943
1.5464483602056605,53.09983361064894
1.5474467129236757,86.09983361064894
1.548445065641691,36.09983361064894
1.5494434183597063,-66.90016638935106
1.5504417710777216,-95.90016638935106
1.551440123795737,-38.90016638935106
1.5524384765137522,27.099833610648943
1.5534368292317675,-14.900166389351057
1.5544351819497828,-39.90016638935106
1.555433534667798,17.099833610648943
1.5564318873858134,14.099833610648943
1.5574302401038285,-22.900166389351057
1.5584285928218438,-98.90016638935106
1.559426945539859,-100.90016638935106
1.5604252982578743,9.099833610648943
1.5614236509758896,53.09983361064894
1.562422003693905,64.09983361064894
1.5634203564119202,75.09983361064894
1.5644187091299355,80.09983361064894
1.5654170618479508,-11.900166389351057
1.5664154145659661,12.099833610648943
1.5674137672839814,9.099833610648943
1.5684121200019965,-4.900166389351057
1.5694104727200118,-12.900166389351057
1.570408825438027,-51.90016638935106
1.5714071781560424,1.0998336106489432
1.5724055308740577,19.099833610648943
1.573403883592073,0.09983361064894325
1.5744022363100882,-22.900166389351057
1.5754005890281035,-23.900166389351057
1.5763989417461188,3.0998336106489432
1.5773972944641341,10.099833610648943
1.5783956471821494,16.099833610648943
1.5793939999001647,-4.900166389351057
1.5803923526181798,-6.900166389351057
1.581390705336195,12.099833610648943
1.5823890580542104,6.099833610648943
1.5833874107722257,-5.900166389351057
1.584385763490241,44.09983361064894
1.5853841162082563,105.09983361064894
1.5863824689262715,33.09983361064894
1.5873808216442868,-83.90016638935106
1.5883791743623021,-19.900166389351057
1.5893775270803174,-9.900166389351057
1.5903758797983327,-69.90016638935106
1.5913742325163478,-56.90016638935106
1.592372585234363,11.099833610648943
1.5933709379523784,4.099833610648943
1.5943692906703937,-39.90016638935106
1.595367643388409,11.099833610648943
1.5963659961064243,20.099833610648943
1.5973643488244396,3.0998336106489432
1.5983627015424549,5.099833610648943
1.5993610542604701,1.0998336106489432
1.6003594069784854,-1.9001663893510568
1.6013577596965007,-14.900166389351057
1.602356112414516,26.099833610648943
1.603354465132531,33.09983361064894
1.6043528178505464,-7.900166389351057
1.6053511705685617,-7.900166389351057
1.606349523286577,32.09983361064894
1.6073478760045923,20.099833610648943
1.6083462287226076,-4.900166389351057
1.6093445814406229,-5.900166389351057
1.6103429341586382,-8.900166389351057
1.6113412868766535,-13.900166389351057
1.6123396395946687,-19.900166389351057
1.613337992312684,25.099833610648943
1.6143363450306991,30.099833610648943
1.6153346977487144,-6.900166389351057
1.6163330504667297,3.0998336106489432
1.617331403184745,-4.900166389351057
1.6183297559027603,-18.900166389351057
1.6193281086207756,-29.900166389351057
1.6203264613387909,-63.90016638935106
1.6213248140568062,7.099833610648943
1.6223231667748215,41.09983361064894
1.6233215194928368,34.09983361064894
1.624319872210852,14.099833610648943
1.6253182249288673,15.099833610648943
1.6263165776468824,6.099833610648943
1.6273149303648977,-2.9001663893510568
1.628313283082913,-3.9001663893510568
1.6293116358009283,-4.900166389351057
1.6303099885189436,-2.9001663893510568
1.631308341236959,-3.9001663893510568
1.6323066939549742,-5.900166389351057
1.6333050466729895,-5.900166389351057
1.6343033993910048,-2.9001663893510568
1.63530175210902,2.0998336106489432
1.6363001048270354,16.099833610648943
1.6372984575450504,10.099833610648943
1.6382968102630657,-6.900166389351057
1.639295162981081,-7.900166389351057
1.6402935156990963,-25.900166389351057
1.6412918684171116,-2.9001663893510568
1.642290221135127,8.099833610648943
1.6432885738531422,-12.900166389351057
1.6442869265711575,17.099833610648943
1.6452852792891728,17.099833610648943
1.646283632007188,-6.900166389351057
1.6472819847252034,-3.9001663893510568
1.6482803374432187,23.099833610648943
1.6492786901612337,23.099833610648943
1.650277042879249,0.09983361064894325
1.6512753955972643,-29.900166389351057
1.6522737483152796,-20.900166389351057
1.653272101033295,4.099833610648943
1.6542704537513102,3.0998336106489432
1.6552688064693255,-14.900166389351057
1.6562671591873408,-34.90016638935106
1.657265511905356,-0.9001663893510568
1.6582638646233714,4.099833610648943
1.6592622173413867,-0.9001663893510568
1.6602605700594018,2.0998336106489432
1.661258922777417,8.099833610648943
1.6622572754954323,18.099833610648943
1.6632556282134476,21.099833610648943
1.664253980931463,5.099833610648943
1.6652523336494782,2.0998336106489432
1.6662506863674935,-0.9001663893510568
1.6672490390855088,4.099833610648943
1.668247391803524,5.099833610648943
1.6692457445215394,1.0998336106489432
1.6702440972395547,6.099833610648943
1.67124244995757,-3.9001663893510568
1.672240802675585,-47.90016638935106
1.6732391553936004,-19.900166389351057
1.6742375081116156,23.099833610648943
1.675235860829631,12.099833610648943
1.6762342135476462,7.099833610648943
1.6772325662656615,-11.900166389351057
1.6782309189836768,-29.900166389351057
1.6792292717016921,-32.90016638935106
1.6802276244197074,23.099833610648943
1.6812259771377227,36.09983361064894
1.682224329855738,40.09983361064894
1.683222682573753,25.099833610648943
1.6842210352917684,1.0998336106489432
1.6852193880097837,4.099833610648943
1.686217740727799,11.099833610648943
1.6872160934458142,-1.9001663893510568
1.6882144461638295,-17.900166389351057
1.6892127988818448,-17.900166389351057
1.6902111515998601,1.0998336106489432
1.6912095043178754,-4.900166389351057
1.6922078570358907,-13.900166389351057
1.693206209753906,-16.900166389351057
1.6942045624719213,-12.900166389351057
1.6952029151899364,-5.900166389351057
1.6962012679079517,-1.9001663893510568
1.697199620625967,1.0998336106489432
1.6981979733439823,-0.9001663893510568
1.6991963260619976,4.099833610648943
1.7001946787800128,2.0998336106489432
1.7011930314980281,5.099833610648943
1.7021913842160434,9.099833610648943
1.7031897369340587,9.099833610648943
1.704188089652074,1.0998336106489432
1.7051864423700893,6.099833610648943
1.7061847950881044,6.099833610648943
1.7071831478061197,1.0998336106489432
1.708181500524135,1.0998336106489432
1.7091798532421503,1.0998336106489432
1.7101782059601656,0.09983361064894325
1.7111765586781809,-6.900166389351057
1.7121749113961962,-8.900166389351057
1.7131732641142114,-8.900166389351057
1.7141716168322267,-3.9001663893510568
1.715169969550242,-5.900166389351057
1.7161683222682573,-8.900166389351057
1.7171666749862726,-7.900166389351057
1.7181650277042877,-2.9001663893510568
1.719163380422303,4.099833610648943
1.7201617331403183,8.099833610648943
1.7211600858583336,10.099833610648943
1.7221584385763489,15.099833610648943
1.7231567912943642,12.099833610648943
1.7241551440123795,4.099833610648943
1.7251534967303948,4.099833610648943
1.72615184944841,2.0998336106489432
1.7271502021664253,0.09983361064894325
1.7281485548844406,2.0998336106489432
1.7291469076024557,-1.9001663893510568
1.730145260320471,-4.900166389351057
1.7311436130384863,-4.900166389351057
1.7321419657565016,-12.900166389351057
1.7331403184745169,-10.900166389351057
1.7341386711925322,-3.9001663893510568
1.7351370239105475,-5.900166389351057
1.7361353766285628,-9.900166389351057
1.737133729346578,-5.900166389351057
1.7381320820645934,1.0998336106489432
1.7391304347826086,8.099833610648943
1.740128787500624,9.099833610648943
1.741127140218639,8.099833610648943
1.7421254929366543,12.099833610648943
1.7431238456546696,11.099833610648943
1.744122198372685,4.099833610648943
1.7451205510907002,5.099833610648943
1.7461189038087155,6.099833610648943
1.7471172565267308,5.099833610648943
1.748115609244746,1.0998336106489432
1.7491139619627614,-2.9001663893510568
1.7501123146807767,-5.900166389351057
1.751110667398792,-6.900166389351057
1.752109020116807,-5.900166389351057
1.7531073728348223,-3.9001663893510568
1.7541057255528376,-3.9001663893510568
1.755104078270853,-8.900166389351057
1.7561024309888682,-8.900166389351057
1.7571007837068835,-5.900166389351057
1.7580991364248988,-2.9001663893510568
1.759097489142914,-2.9001663893510568
1.7600958418609294,3.0998336106489432
1.7610941945789447,5.099833610648943
1.76209254729696,8.099833610648943
1.7630909000149753,8.099833610648943
1.7640892527329903,6.099833610648943
1.7650876054510056,9.099833610648943
1.766085958169021,10.099833610648943
1.7670843108870362,8.099833610648943
1.7680826636050515,1.0998336106489432
1.7690810163230668,-2.9001663893510568
1.770079369041082,-2.9001663893510568
1.7710777217590974,-7.900166389351057
1.7720760744771127,-11.900166389351057
1.773074427195128,-7.900166389351057
1.7740727799131433,-4.900166389351057
1.7750711326311583,-7.900166389351057
1.7760694853491736,-7.900166389351057
1.777067838067189,-3.9001663893510568
1.7780661907852042,-0.9001663893510568
1.7790645435032195,2.0998336106489432
1.7800628962212348,4.099833610648943
1.78106124893925,8.099833610648943
1.7820596016572654,11.099833610648943
1.7830579543752807,8.099833610648943
1.784056307093296,5.099833610648943
1.7850546598113113,7.099833610648943
1.7860530125293266,8.099833610648943
1.7870513652473416,4.099833610648943
1.788049717965357,-2.9001663893510568
1.7890480706833722,-1.9001663893510568
1.7900464234013875,-3.9001663893510568
1.7910447761194028,-5.900166389351057
1.7920431288374181,-7.900166389351057
1.7930414815554334,-9.900166389351057
1.7940398342734487,-9.900166389351057
1.795038186991464,-10.900166389351057
1.7960365397094793,-8.900166389351057
1.7970348924274946,-5.900166389351057
1.7980332451455097,2.0998336106489432
1.799031597863525,5.099833610648943
1.8000299505815403,4.099833610648943
1.8010283032995555,7.099833610648943
1.8020266560175708,12.099833610648943
1.8030250087355861,9.099833610648943
1.8040233614536014,4.099833610648943
1.8050217141716167,4.099833610648943
1.806020066889632,8.099833610648943
1.8070184196076473,3.0998336106489432
1.8080167723256626,1.0998336106489432
1.809015125043678,3.0998336106489432
1.810013477761693,-2.9001663893510568
1.8110118304797083,-3.9001663893510568
1.8120101831977236,-7.900166389351057
1.8130085359157389,-7.900166389351057
1.8140068886337541,-9.900166389351057
1.8150052413517694,-7.900166389351057
1.8160035940697847,-9.900166389351057
1.8170019467878,-4.900166389351057
1.8180002995058153,3.0998336106489432
1.8189986522238306,0.09983361064894325
1.819997004941846,3.0998336106489432
1.820995357659861,6.099833610648943
1.8219937103778763,1.0998336106489432
1.8229920630958916,3.0998336106489432
1.8239904158139069,9.099833610648943
1.8249887685319222,10.099833610648943
1.8259871212499375,16.099833610648943
1.8269854739679527,12.099833610648943
1.827983826685968,1.0998336106489432
1.8289821794039833,-1.9001663893510568
1.8299805321219986,-2.9001663893510568
1.830978884840014,-7.900166389351057
1.8319772375580292,-9.900166389351057
1.8329755902760443,-9.900166389351057
1.8339739429940596,-7.900166389351057
1.8349722957120749,-10.900166389351057
1.8359706484300902,-12.900166389351057
1.8369690011481055,-3.9001663893510568
1.8379673538661208,-1.9001663893510568
1.838965706584136,2.0998336106489432
1.8399640593021513,2.0998336106489432
1.8409624120201666,7.099833610648943
1.841960764738182,8.099833610648943
1.8429591174561972,10.099833610648943
1.8439574701742123,5.099833610648943
1.8449558228922276,8.099833610648943
1.8459541756102429,6.099833610648943
1.8469525283282582,1.0998336106489432
1.8479508810462735,-1.9001663893510568
1.8489492337642888,0.09983361064894325
1.849947586482304,-2.9001663893510568
1.8509459392003194,-6.900166389351057
1.8519442919183347,-8.900166389351057
1.85294264463635,-6.900166389351057
1.8539409973543652,-4.900166389351057
1.8549393500723805,-4.900166389351057
1.8559377027903956,-4.900166389351057
1.856936055508411,-0.9001663893510568
1.8579344082264262,1.0998336106489432
1.8589327609444415,3.0998336106489432
1.8599311136624568,3.0998336106489432
1.860929466380472,4.099833610648943
1.8619278190984874,11.099833610648943
1.8629261718165027,8.099833610648943
1.863924524534518,5.099833610648943
1.8649228772525333,6.099833610648943
1.8659212299705485,6.099833610648943
1.8669195826885636,3.0998336106489432
1.867917935406579,-0.9001663893510568
1.8689162881245942,3.0998336106489432
1.8699146408426095,-1.9001663893510568
1.8709129935606248,-6.900166389351057
1.87191134627864,-10.900166389351057
1.8729096989966554,-10.900166389351057
1.8739080517146707,-8.900166389351057
1.874906404432686,-6.900166389351057
1.8759047571507013,-6.900166389351057
1.8769031098687166,-3.9001663893510568
1.8779014625867319,-3.9001663893510568
1.878899815304747,0.09983361064894325
1.8798981680227622,2.0998336106489432
1.8808965207407775,6.099833610648943
1.8818948734587928,11.099833610648943
1.882893226176808,5.099833610648943
1.8838915788948234,-0.9001663893510568
1.8848899316128387,4.099833610648943
1.885888284330854,6.099833610648943
1.8868866370488693,5.099833610648943
1.8878849897668846,0.09983361064894325
1.8888833424848999,2.0998336106489432
1.889881695202915,1.0998336106489432
1.8908800479209302,-2.9001663893510568
1.8918784006389455,-8.900166389351057
1.8928767533569608,-4.900166389351057
1.8938751060749761,1.0998336106489432
1.8948734587929914,-1.9001663893510568
1.8958718115110067,-6.900166389351057
1.896870164229022,-7.900166389351057
1.8978685169470373,-2.9001663893510568
1.8988668696650526,5.099833610648943
1.8998652223830679,9.099833610648943
1.9008635751010832,11.099833610648943
1.9018619278190982,10.099833610648943
1.9028602805371135,5.099833610648943
1.9038586332551288,4.099833610648943
1.9048569859731441,4.099833610648943
1.9058553386911594,0.09983361064894325
1.9068536914091747,-1.9001663893510568
1.90785204412719,0.09983361064894325
1.9088503968452053,-1.9001663893510568
1.9098487495632206,-5.900166389351057
1.9108471022812359,-3.9001663893510568
1.9118454549992512,-6.900166389351057
1.9128438077172663,-8.900166389351057
1.9138421604352815,-7.900166389351057
1.9148405131532968,-7.900166389351057
1.9158388658713121,-6.900166389351057
1.9168372185893274,-4.900166389351057
1.9178355713073427,1.0998336106489432
1.918833924025358,3.0998336106489432
1.9198322767433733,4.099833610648943
1.9208306294613886,6.099833610648943
1.921828982179404,9.099833610648943
1.9228273348974192,6.099833610648943
1.9238256876154345,6.099833610648943
1.9248240403334496,5.099833610648943
1.9258223930514649,3.0998336106489432
1.9268207457694801,-1.9001663893510568
1.9278190984874954,0.09983361064894325
1.9288174512055107,-1.9001663893510568
1.929815803923526,-0.9001663893510568
1.9308141566415413,-1.9001663893510568
1.9318125093595566,-7.900166389351057
1.932810862077572,-7.900166389351057
1.9338092147955872,-6.900166389351057
1.9348075675136025,-5.900166389351057
1.9358059202316176,-9.900166389351057
1.9368042729496329,-10.900166389351057
1.9378026256676482,-4.900166389351057
1.9388009783856635,3.0998336106489432
1.9397993311036787,6.099833610648943
1.940797683821694,13.099833610648943
1.9417960365397093,18.099833610648943
1.9427943892577246,17.099833610648943
1.94379274197574,12.099833610648943
1.9447910946937552,12.099833610648943
1.9457894474117705,6.099833610648943
1.9467878001297858,1.0998336106489432
1.9477861528478009,-2.9001663893510568
1.9487845055658162,-8.900166389351057
1.9497828582838315,-7.900166389351057
1.9507812110018468,-7.900166389351057
1.951779563719862,-9.900166389351057
1.9527779164378773,-9.900166389351057
1.9537762691558926,-8.900166389351057
1.954774621873908,-9.900166389351057
1.9557729745919232,-9.900166389351057
1.9567713273099385,-4.900166389351057
1.9577696800279538,-2.9001663893510568
1.958768032745969,1.0998336106489432
1.9597663854639842,3.0998336106489432
1.9607647381819995,5.099833610648943
1.9617630909000148,11.099833610648943
1.96276144361803,9.099833610648943
1.9637597963360454,3.0998336106489432
1.9647581490540607,5.099833610648943
1.965756501772076,12.099833610648943
1.9667548544900912,7.099833610648943
1.9677532072081065,3.0998336106489432
1.9687515599261218,-0.9001663893510568
1.9697499126441371,0.09983361064894325
1.9707482653621522,-3.9001663893510568
1.9717466180801675,-6.900166389351057
1.9727449707981828,-6.900166389351057
1.973743323516198,-7.900166389351057
1.9747416762342134,-8.900166389351057
1.9757400289522287,-7.900166389351057
1.976738381670244,-3.9001663893510568
1.9777367343882593,-1.9001663893510568
1.9787350871062745,1.0998336106489432
1.9797334398242898,4.099833610648943
1.9807317925423051,5.099833610648943
1.9817301452603202,8.099833610648943
1.9827284979783355,8.099833610648943
1.9837268506963508,6.099833610648943
1.984725203414366,5.099833610648943
1.9857235561323814,6.099833610648943
1.9867219088503967,1.0998336106489432
1.987720261568412,-3.9001663893510568
1.9887186142864273,-2.9001663893510568
1.9897169670044426,0.09983361064894325
1.9907153197224579,-2.9001663893510568
1.9917136724404731,-8.900166389351057
1.9927120251584884,-7.900166389351057
1.9937103778765035,-4.900166389351057
1.9947087305945188,-8.900166389351057
1.995707083312534,-7.900166389351057
1.9967054360305494,-3.9001663893510568
1.9977037887485647,-1.9001663893510568
1.99870214146658,3.0998336106489432
1.9997004941845953,8.099833610648943
2.0006988469026106,9.099833610648943
2.001697199620626,12.099833610648943
2.002695552338641,11.099833610648943
2.0036939050566565,7.099833610648943
2.0046922577746717,6.099833610648943
2.005690610492687,8.099833610648943
2.0066889632107023,3.0998336106489432
2.0076873159287176,-0.9001663893510568
2.008685668646733,-3.9001663893510568
2.009684021364748,-4.900166389351057
2.010682374082763,-5.900166389351057
2.0116807268007784,-10.900166389351057
2.0126790795187937,-8.900166389351057
2.013677432236809,-8.900166389351057
2.0146757849548242,-10.900166389351057
2.0156741376728395,-7.900166389351057
2.016672490390855,-4.900166389351057
2.01767084310887,-2.9001663893510568
2.0186691958268854,4.099833610648943
2.0196675485449007,2.0998336106489432
2.020665901262916,6.099833610648943
2.0216642539809313,7.099833610648943
2.0226626066989466,7.099833610648943
2.023660959416962,7.099833610648943
2.024659312134977,10.099833610648943
2.0256576648529925,10.099833610648943
2.0266560175710078,6.099833610648943
2.027654370289023,3.0998336106489432
2.0286527230070384,0.09983361064894325
2.0296510757250537,0.09983361064894325
2.030649428443069,-5.900166389351057
2.0316477811610842,-10.900166389351057
2.0326461338790995,-8.900166389351057
2.0336444865971144,-7.900166389351057
2.0346428393151297,-6.900166389351057
2.035641192033145,-6.900166389351057
2.0366395447511603,-3.9001663893510568
2.0376378974691756,-0.9001663893510568
2.038636250187191,1.0998336106489432
2.039634602905206,3.0998336106489432
2.0406329556232214,4.099833610648943
2.0416313083412367,9.099833610648943
2.042629661059252,7.099833610648943
2.0436280137772673,6.099833610648943
2.0446263664952826,7.099833610648943
2.045624719213298,5.099833610648943
2.046623071931313,2.0998336106489432
2.0476214246493285,1.0998336106489432
2.048619777367344,-1.9001663893510568
2.049618130085359,-2.9001663893510568
2.0506164828033744,-7.900166389351057
2.0516148355213897,-10.900166389351057
2.052613188239405,-7.900166389351057
2.0536115409574203,-5.900166389351057
2.0546098936754356,-7.900166389351057
2.055608246393451,-5.900166389351057
2.0566065991114657,-1.9001663893510568
2.057604951829481,1.0998336106489432
2.0586033045474963,1.0998336106489432
2.0596016572655116,4.099833610648943
2.060600009983527,6.099833610648943
2.061598362701542,11.099833610648943
2.0625967154195575,8.099833610648943
2.0635950681375728,5.099833610648943
2.064593420855588,7.099833610648943
2.0655917735736034,2.0998336106489432
2.0665901262916186,1.0998336106489432
2.067588479009634,3.0998336106489432
2.0685868317276492,1.0998336106489432
2.0695851844456645,0.09983361064894325
2.07058353716368,-6.900166389351057
2.071581889881695,-9.900166389351057
2.0725802425997104,-9.900166389351057
2.0735785953177257,-7.900166389351057
2.074576948035741,-5.900166389351057
2.0755753007537563,-5.900166389351057
2.0765736534717716,-2.9001663893510568
2.077572006189787,0.09983361064894325
2.078570358907802,1.0998336106489432
2.079568711625817,5.099833610648943
2.0805670643438323,8.099833610648943
2.0815654170618476,10.099833610648943
2.082563769779863,10.099833610648943
2.083562122497878,6.099833610648943
2.0845604752158935,9.099833610648943
2.085558827933909,6.099833610648943
2.086557180651924,0.09983361064894325
2.0875555333699394,0.09983361064894325
2.0885538860879547,-2.9001663893510568
2.08955223880597,-2.9001663893510568
2.0905505915239853,-5.900166389351057
2.0915489442420006,-7.900166389351057
2.092547296960016,-7.900166389351057
2.093545649678031,-5.900166389351057
2.0945440023960464,-7.900166389351057
2.0955423551140617,-4.900166389351057
2.096540707832077,-2.9001663893510568
2.0975390605500923,-1.9001663893510568
2.0985374132681076,-0.9001663893510568
2.099535765986123,4.099833610648943
2.100534118704138,7.099833610648943
2.1015324714221535,10.099833610648943
2.1025308241401683,10.099833610648943
2.1035291768581836,5.099833610648943
2.104527529576199,8.099833610648943
2.1055258822942142,10.099833610648943
2.1065242350122295,7.099833610648943
2.107522587730245,-0.9001663893510568
2.10852094044826,-3.9001663893510568
2.1095192931662754,-5.900166389351057
2.1105176458842907,-7.900166389351057
2.111515998602306,-9.900166389351057
2.1125143513203213,-6.900166389351057
2.1135127040383366,-6.900166389351057
2.114511056756352,-7.900166389351057
2.115509409474367,-7.900166389351057
2.1165077621923825,-3.9001663893510568
2.1175061149103978,0.09983361064894325
2.118504467628413,2.0998336106489432
2.1195028203464283,3.0998336106489432
2.1205011730644436,6.099833610648943
2.121499525782459,9.099833610648943
2.1224978785004742,9.099833610648943
2.1234962312184895,7.099833610648943
2.124494583936505,6.099833610648943
2.1254929366545197,8.099833610648943
2.126491289372535,2.0998336106489432
2.1274896420905502,1.0998336106489432
2.1284879948085655,-3.9001663893510568
2.129486347526581,-2.9001663893510568
2.130484700244596,-4.900166389351057
2.1314830529626114,-8.900166389351057
2.1324814056806267,-8.900166389351057
2.133479758398642,-3.9001663893510568
2.1344781111166573,-7.900166389351057
2.1354764638346726,-8.900166389351057
2.136474816552688,-2.9001663893510568
2.137473169270703,0.09983361064894325
2.1384715219887185,2.0998336106489432
2.1394698747067338,3.0998336106489432
2.140468227424749,4.099833610648943
2.1414665801427644,11.099833610648943
2.1424649328607797,8.099833610648943
2.143463285578795,5.099833610648943
2.1444616382968102,5.099833610648943
2.1454599910148255,6.099833610648943
2.146458343732841,4.099833610648943
2.147456696450856,1.0998336106489432
2.148455049168871,-2.9001663893510568
2.1494534018868863,-1.9001663893510568
2.1504517546049016,-5.900166389351057
2.151450107322917,-9.900166389351057
2.152448460040932,-7.900166389351057
2.1534468127589474,-5.900166389351057
2.1544451654769627,-5.900166389351057
2.155443518194978,-6.900166389351057
2.1564418709129933,-3.9001663893510568
2.1574402236310086,-0.9001663893510568
2.158438576349024,1.0998336106489432
2.159436929067039,3.0998336106489432
2.1604352817850545,6.099833610648943
2.16143363450307,11.099833610648943
2.162431987221085,11.099833610648943
2.1634303399391004,7.099833610648943
2.1644286926571157,8.099833610648943
2.165427045375131,6.099833610648943
2.1664253980931463,1.0998336106489432
2.1674237508111616,0.09983361064894325
2.168422103529177,-1.9001663893510568
2.169420456247192,-1.9001663893510568
2.1704188089652074,-5.900166389351057
2.1714171616832223,-8.900166389351057
2.1724155144012376,-7.900166389351057
2.173413867119253,-7.900166389351057
2.174412219837268,-6.900166389351057
2.1754105725552835,-10.900166389351057
2.1764089252732988,-4.900166389351057
2.177407277991314,-0.9001663893510568
2.1784056307093294,2.0998336106489432
2.1794039834273446,5.099833610648943
2.18040233614536,6.099833610648943
2.1814006888633752,10.099833610648943
2.1823990415813905,12.099833610648943
2.183397394299406,5.099833610648943
2.184395747017421,5.099833610648943
2.1853940997354364,5.099833610648943
2.1863924524534517,3.0998336106489432
2.187390805171467,-0.9001663893510568
2.1883891578894823,-0.9001663893510568
2.1893875106074976,-3.9001663893510568
2.190385863325513,-3.9001663893510568
2.191384216043528,-7.900166389351057
2.1923825687615435,-6.900166389351057
2.1933809214795588,-7.900166389351057
2.1943792741975736,-5.900166389351057
2.195377626915589,-8.900166389351057
2.196375979633604,-2.9001663893510568
2.1973743323516195,-1.9001663893510568
2.198372685069635,6.099833610648943
2.19937103778765,5.099833610648943
2.2003693905056654,4.099833610648943
2.2013677432236807,9.099833610648943
2.202366095941696,9.099833610648943
2.2033644486597113,7.099833610648943
2.2043628013777266,8.099833610648943
2.205361154095742,6.099833610648943
2.206359506813757,1.0998336106489432
2.2073578595317724,-3.9001663893510568
2.2083562122497877,-4.900166389351057
2.209354564967803,-0.9001663893510568
2.2103529176858183,-3.9001663893510568
2.2113512704038336,-7.900166389351057
2.212349623121849,-7.900166389351057
2.213347975839864,-5.900166389351057
2.2143463285578795,-9.900166389351057
2.215344681275895,-8.900166389351057
2.21634303399391,-2.9001663893510568
2.217341386711925,0.09983361064894325
2.2183397394299402,5.099833610648943
2.2193380921479555,5.099833610648943
2.220336444865971,7.099833610648943
2.221334797583986,8.099833610648943
2.2223331503020014,7.099833610648943
2.2233315030200167,4.099833610648943
2.224329855738032,7.099833610648943
2.2253282084560473,7.099833610648943
2.2263265611740626,4.099833610648943
2.227324913892078,0.09983361064894325
2.228323266610093,-0.9001663893510568
2.2293216193281085,-2.9001663893510568
2.2303199720461238,-6.900166389351057
2.231318324764139,-8.900166389351057
2.2323166774821543,-6.900166389351057
2.2333150302001696,-3.9001663893510568
2.234313382918185,-6.900166389351057
2.2353117356362002,-8.900166389351057
2.2363100883542155,-3.9001663893510568
2.237308441072231,0.09983361064894325
2.238306793790246,4.099833610648943
2.2393051465082614,1.0998336106489432
2.2403034992262763,6.099833610648943
2.2413018519442915,8.099833610648943
2.242300204662307,10.099833610648943
2.243298557380322,7.099833610648943
2.2442969100983374,7.099833610648943
2.2452952628163527,6.099833610648943
2.246293615534368,2.0998336106489432
2.2472919682523833,-1.9001663893510568
2.2482903209703986,-2.9001663893510568
2.249288673688414,-2.9001663893510568
2.250287026406429,-4.900166389351057
2.2512853791244445,-8.900166389351057
2.25228373184246,-5.900166389351057
2.253282084560475,-5.900166389351057
2.2542804372784904,-7.900166389351057
2.2552787899965057,-10.900166389351057
2.256277142714521,-6.900166389351057
2.2572754954325362,-1.9001663893510568
2.2582738481505515,3.0998336106489432
2.259272200868567,6.099833610648943
2.260270553586582,8.099833610648943
2.2612689063045974,10.099833610648943
2.2622672590226127,6.099833610648943
2.2632656117406276,6.099833610648943
2.264263964458643,7.099833610648943
2.265262317176658,8.099833610648943
2.2662606698946735,3.0998336106489432
2.2672590226126887,1.0998336106489432
2.268257375330704,-2.9001663893510568
2.2692557280487193,-2.9001663893510568
2.2702540807667346,-6.900166389351057
2.27125243348475,-8.900166389351057
2.272250786202765,-8.900166389351057
2.2732491389207805,-7.900166389351057
2.274247491638796,-7.900166389351057
2.275245844356811,-4.900166389351057
2.2762441970748264,-4.900166389351057
2.2772425497928417,0.09983361064894325
2.278240902510857,2.0998336106489432
2.2792392552288723,4.099833610648943
2.2802376079468876,6.099833610648943
2.281235960664903,12.099833610648943
2.282234313382918,8.099833610648943
2.2832326661009335,6.099833610648943
2.2842310188189487,8.099833610648943
2.285229371536964,6.099833610648943
2.286227724254979,4.099833610648943
2.287226076972994,2.0998336106489432
2.2882244296910095,-2.9001663893510568
2.2892227824090248,-5.900166389351057
2.29022113512704,-7.900166389351057
2.2912194878450554,-7.900166389351057
2.2922178405630707,-6.900166389351057
2.293216193281086,-4.900166389351057
2.2942145459991012,-9.900166389351057
2.2952128987171165,-7.900166389351057
2.296211251435132,-2.9001663893510568
2.297209604153147,1.0998336106489432
2.2982079568711624,4.099833610648943
2.2992063095891777,3.0998336106489432
2.300204662307193,5.099833610648943
2.3012030150252083,8.099833610648943
2.3022013677432236,12.099833610648943
2.303199720461239,11.099833610648943
2.304198073179254,11.099833610648943
2.3051964258972695,6.099833610648943
2.3061947786152848,1.0998336106489432
2.3071931313333,0.09983361064894325
2.3081914840513154,-3.9001663893510568
2.30918983676933,-5.900166389351057
2.3101881894873455,-5.900166389351057
2.311186542205361,-6.900166389351057
2.312184894923376,-8.900166389351057
2.3131832476413914,-8.900166389351057
2.3141816003594067,-7.900166389351057
2.315179953077422,-7.900166389351057
2.3161783057954373,-2.9001663893510568
2.3171766585134526,-0.9001663893510568
2.318175011231468,4.099833610648943
2.319173363949483,7.099833610648943
2.3201717166674984,8.099833610648943
2.3211700693855137,12.099833610648943
2.322168422103529,10.099833610648943
2.3231667748215443,6.099833610648943
2.3241651275395596,4.099833610648943
2.325163480257575,6.099833610648943
2.32616183297559,3.0998336106489432
2.3271601856936055,0.09983361064894325
2.328158538411621,-3.9001663893510568
2.329156891129636,-4.900166389351057
2.3301552438476514,-7.900166389351057
2.3311535965656667,-9.900166389351057
2.3321519492836815,-6.900166389351057
2.333150302001697,-7.900166389351057
2.334148654719712,-6.900166389351057
2.3351470074377274,-5.900166389351057
2.3361453601557427,-1.9001663893510568
2.337143712873758,-2.9001663893510568
2.3381420655917733,3.0998336106489432
2.3391404183097886,4.099833610648943
2.340138771027804,7.099833610648943
2.341137123745819,12.099833610648943
2.3421354764638345,9.099833610648943
2.3431338291818498,5.099833610648943
2.344132181899865,8.099833610648943
2.3451305346178803,9.099833610648943
2.3461288873358956,4.099833610648943
2.347127240053911,-1.9001663893510568
2.3481255927719262,-4.900166389351057
2.3491239454899415,-6.900166389351057
2.350122298207957,-3.9001663893510568
2.351120650925972,-8.900166389351057
2.3521190036439874,-7.900166389351057
2.3531173563620027,-7.900166389351057
2.354115709080018,-7.900166389351057
2.355114061798033,-6.900166389351057
2.356112414516048,-1.9001663893510568
2.3571107672340634,3.0998336106489432
2.3581091199520787,3.0998336106489432
2.359107472670094,5.099833610648943
2.3601058253881093,9.099833610648943
2.3611041781061246,10.099833610648943
2.36210253082414,8.099833610648943
2.363100883542155,6.099833610648943
2.3640992362601705,7.099833610648943
2.365097588978186,8.099833610648943
2.366095941696201,2.0998336106489432
2.3670942944142164,-2.9001663893510568
2.3680926471322317,-2.9001663893510568
2.369090999850247,-2.9001663893510568
2.3700893525682623,-6.900166389351057
2.3710877052862775,-7.900166389351057
2.372086058004293,-7.900166389351057
2.373084410722308,-6.900166389351057
2.3740827634403234,-7.900166389351057
2.3750811161583387,-8.900166389351057
2.376079468876354,-1.9001663893510568
2.3770778215943693,-1.9001663893510568
2.378076174312384,1.0998336106489432
2.3790745270303995,3.0998336106489432
2.3800728797484147,5.099833610648943
2.38107123246643,11.099833610648943
2.3820695851844453,9.099833610648943
2.3830679379024606,7.099833610648943
2.384066290620476,8.099833610648943
2.385064643338491,6.099833610648943
2.3860629960565065,3.0998336106489432
2.387061348774522,1.0998336106489432
2.388059701492537,-2.9001663893510568
2.3890580542105524,-4.900166389351057
2.3900564069285677,-4.900166389351057
2.391054759646583,-9.900166389351057
2.3920531123645983,-7.900166389351057
2.3930514650826136,-7.900166389351057
2.394049817800629,-9.900166389351057
2.395048170518644,-7.900166389351057
2.3960465232366595,-3.9001663893510568
2.3970448759546747,-0.9001663893510568
2.39804322867269,5.099833610648943
2.3990415813907053,6.099833610648943
2.4000399341087206,9.099833610648943
2.4010382868267355,9.099833610648943
2.4020366395447508,8.099833610648943
2.403034992262766,5.099833610648943
2.4040333449807814,7.099833610648943
2.4050316976987967,6.099833610648943
2.406030050416812,3.0998336106489432
2.4070284031348272,-0.9001663893510568
2.4080267558528425,-4.900166389351057
2.409025108570858,-5.900166389351057
2.410023461288873,-7.900166389351057
2.4110218140068884,-10.900166389351057
2.4120201667249037,-6.900166389351057
2.413018519442919,-6.900166389351057
2.4140168721609343,-7.900166389351057
2.4150152248789496,-5.900166389351057
2.416013577596965,-2.9001663893510568
2.41701193031498,-0.9001663893510568
2.4180102830329955,3.0998336106489432
2.4190086357510108,5.099833610648943
2.420006988469026,6.099833610648943
2.4210053411870414,11.099833610648943
2.4220036939050567,10.099833610648943
2.423002046623072,6.099833610648943
2.424000399341087,6.099833610648943
2.424998752059102,6.099833610648943
2.4259971047771174,3.0998336106489432
2.4269954574951327,0.09983361064894325
2.427993810213148,-2.9001663893510568
2.4289921629311633,-3.9001663893510568
2.4299905156491786,-6.900166389351057
2.430988868367194,-9.900166389351057
2.431987221085209,-7.900166389351057
2.4329855738032244,-6.900166389351057
2.4339839265212397,-8.900166389351057
2.434982279239255,-5.900166389351057
2.4359806319572703,-3.9001663893510568
2.4369789846752856,-1.9001663893510568
2.437977337393301,2.0998336106489432
2.438975690111316,6.099833610648943
2.4399740428293315,7.099833610648943
2.440972395547347,10.099833610648943
2.441970748265362,9.099833610648943
2.4429691009833774,6.099833610648943
2.4439674537013927,8.099833610648943
2.444965806419408,7.099833610648943
2.4459641591374233,1.0998336106489432
2.446962511855438,-0.9001663893510568
2.4479608645734534,-3.9001663893510568
2.4489592172914687,-4.900166389351057
2.449957570009484,-8.900166389351057
2.4509559227274993,-9.900166389351057
2.4519542754455146,-9.900166389351057
2.45295262816353,-8.900166389351057
2.453950980881545,-7.900166389351057
2.4549493335995605,-6.900166389351057
2.4559476863175758,-2.9001663893510568
2.456946039035591,-1.9001663893510568
2.4579443917536064,3.0998336106489432
2.4589427444716216,5.099833610648943
2.459941097189637,7.099833610648943
2.4609394499076522,10.099833610648943
2.4619378026256675,8.099833610648943
2.462936155343683,8.099833610648943
2.463934508061698,8.099833610648943
2.4649328607797134,8.099833610648943
2.4659312134977287,4.099833610648943
2.466929566215744,-1.9001663893510568
2.4679279189337593,-3.9001663893510568
2.4689262716517746,-2.9001663893510568
2.4699246243697894,-4.900166389351057
2.4709229770878047,-10.900166389351057
2.47192132980582,-9.900166389351057
2.4729196825238353,-5.900166389351057
2.4739180352418506,-10.900166389351057
2.474916387959866,-6.900166389351057
2.475914740677881,-1.9001663893510568
2.4769130933958965,1.0998336106489432
2.477911446113912,4.099833610648943
2.478909798831927,1.0998336106489432
2.4799081515499424,6.099833610648943
2.4809065042679577,10.099833610648943
2.481904856985973,9.099833610648943
2.4829032097039883,7.099833610648943
2.4839015624220036,8.099833610648943
2.484899915140019,8.099833610648943
2.485898267858034,4.099833610648943
2.4868966205760494,-1.9001663893510568
2.4878949732940647,-3.9001663893510568
2.48889332601208,-6.900166389351057
2.4898916787300953,-6.900166389351057
2.4908900314481106,-8.900166389351057
2.491888384166126,-7.900166389351057
2.4928867368841408,-5.900166389351057
2.493885089602156,-8.900166389351057
2.4948834423201713,-5.900166389351057
2.4958817950381866,-3.9001663893510568
2.496880147756202,2.0998336106489432
2.4978785004742172,4.099833610648943
2.4988768531922325,4.099833610648943
2.499875205910248,9.099833610648943
2.500873558628263,10.099833610648943
2.5018719113462784,9.099833610648943
2.5028702640642937,6.099833610648943
2.503868616782309,8.099833610648943
2.5048669695003243,6.099833610648943
2.5058653222183396,2.0998336106489432
2.506863674936355,-0.9001663893510568
2.50786202765437,-2.9001663893510568
2.5088603803723855,-6.900166389351057
2.5098587330904008,-8.900166389351057
2.510857085808416,-9.900166389351057
2.5118554385264313,-7.900166389351057
2.5128537912444466,-6.900166389351057
2.513852143962462,-7.900166389351057
2.514850496680477,-7.900166389351057
2.515848849398492,-2.9001663893510568
2.5168472021165074,-1.9001663893510568
2.5178455548345227,5.099833610648943
2.518843907552538,6.099833610648943
2.5198422602705532,7.099833610648943
2.5208406129885685,11.099833610648943
2.521838965706584,10.099833610648943
2.522837318424599,9.099833610648943
2.5238356711426144,8.099833610648943
2.5248340238606297,8.099833610648943
2.525832376578645,2.0998336106489432
2.5268307292966603,-2.9001663893510568
2.5278290820146756,-2.9001663893510568
2.528827434732691,-4.900166389351057
2.529825787450706,-5.900166389351057
2.5308241401687215,-8.900166389351057
2.5318224928867368,-9.900166389351057
2.532820845604752,-7.900166389351057
2.5338191983227674,-8.900166389351057
2.5348175510407827,-7.900166389351057
2.535815903758798,-2.9001663893510568
2.5368142564768132,-0.9001663893510568
2.5378126091948285,3.0998336106489432
2.5388109619128434,5.099833610648943
2.5398093146308587,5.099833610648943
2.540807667348874,9.099833610648943
2.5418060200668893,8.099833610648943
2.5428043727849046,9.099833610648943
2.54380272550292,9.099833610648943
2.544801078220935,5.099833610648943
2.5457994309389504,1.0998336106489432
2.5467977836569657,0.09983361064894325
2.547796136374981,-2.9001663893510568
2.5487944890929963,-0.9001663893510568
2.5497928418110116,-4.900166389351057
2.550791194529027,-8.900166389351057
2.551789547247042,-7.900166389351057
2.5527878999650575,-7.900166389351057
2.553786252683073,-7.900166389351057
2.554784605401088,-7.900166389351057
2.5557829581191034,-2.9001663893510568
2.5567813108371187,-0.9001663893510568
2.557779663555134,5.099833610648943
2.5587780162731493,4.099833610648943
2.5597763689911646,7.099833610648943
2.56077472170918,10.099833610648943
2.5617730744271947,7.099833610648943
2.56277142714521,8.099833610648943
2.5637697798632253,6.099833610648943
2.5647681325812406,5.099833610648943
2.565766485299256,2.0998336106489432
2.566764838017271,0.09983361064894325
2.5677631907352865,-4.900166389351057
2.5687615434533018,-3.9001663893510568
2.569759896171317,-6.900166389351057
2.5707582488893324,-5.900166389351057
2.5717566016073476,-6.900166389351057
2.572754954325363,-8.900166389351057
2.5737533070433782,-6.900166389351057
2.5747516597613935,-6.900166389351057
2.575750012479409,-0.9001663893510568
2.576748365197424,0.09983361064894325
2.5777467179154394,3.0998336106489432
2.5787450706334547,4.099833610648943
2.57974342335147,9.099833610648943
2.5807417760694853,9.099833610648943
2.5817401287875006,7.099833610648943
2.582738481505516,6.099833610648943
2.583736834223531,9.099833610648943
2.584735186941546,5.099833610648943
2.5857335396595613,1.0998336106489432
2.5867318923775766,-1.9001663893510568
2.587730245095592,-3.9001663893510568
2.588728597813607,-3.9001663893510568
2.5897269505316225,-7.900166389351057
2.590725303249638,-10.900166389351057
2.591723655967653,-8.900166389351057
2.5927220086856684,-7.900166389351057
2.5937203614036837,-6.900166389351057
2.594718714121699,-7.900166389351057
2.5957170668397143,-3.9001663893510568
2.5967154195577296,0.09983361064894325
2.597713772275745,4.099833610648943
2.59871212499376,4.099833610648943
2.5997104777117754,6.099833610648943
2.6007088304297907,10.099833610648943
2.601707183147806,9.099833610648943
2.6027055358658213,7.099833610648943
2.6037038885838366,9.099833610648943
2.604702241301852,7.099833610648943
2.605700594019867,2.0998336106489432
2.6066989467378825,-0.9001663893510568
2.6076972994558973,-3.9001663893510568
2.6086956521739126,-2.9001663893510568
2.609694004891928,-6.900166389351057
2.6106923576099432,-9.900166389351057
2.6116907103279585,-9.900166389351057
2.612689063045974,-7.900166389351057
2.613687415763989,-7.900166389351057
2.6146857684820044,-7.900166389351057
2.6156841212000197,0.09983361064894325
2.616682473918035,0.09983361064894325
2.6176808266360503,5.099833610648943
2.6186791793540656,3.0998336106489432
2.619677532072081,9.099833610648943
2.620675884790096,10.099833610648943
2.6216742375081115,11.099833610648943
2.6226725902261268,11.099833610648943
2.623670942944142,8.099833610648943
2.6246692956621573,5.099833610648943
2.6256676483801726,1.0998336106489432
2.626666001098188,-2.9001663893510568
2.6276643538162032,-2.9001663893510568
2.6286627065342185,-4.900166389351057
2.629661059252234,-6.900166389351057
2.6306594119702487,-9.900166389351057
2.631657764688264,-9.900166389351057
2.6326561174062793,-8.900166389351057
2.6336544701242945,-5.900166389351057
2.63465282284231,-7.900166389351057
2.635651175560325,-3.9001663893510568
2.6366495282783404,-3.9001663893510568
2.6376478809963557,1.0998336106489432
2.638646233714371,3.0998336106489432
2.6396445864323863,8.099833610648943
2.6406429391504016,14.099833610648943
2.641641291868417,9.099833610648943
2.642639644586432,6.099833610648943
2.6436379973044475,8.099833610648943
2.644636350022463,7.099833610648943
2.645634702740478,3.0998336106489432
2.6466330554584934,1.0998336106489432
2.6476314081765087,-2.9001663893510568
2.648629760894524,-4.900166389351057
2.6496281136125392,-4.900166389351057
2.6506264663305545,-8.900166389351057
2.65162481904857,-10.900166389351057
2.652623171766585,-7.900166389351057
2.6536215244846,-9.900166389351057
2.6546198772026153,-7.900166389351057
2.6556182299206306,-0.9001663893510568
2.656616582638646,-1.9001663893510568
2.657614935356661,5.099833610648943
2.6586132880746765,5.099833610648943
2.6596116407926917,6.099833610648943
2.660609993510707,8.099833610648943
2.6616083462287223,8.099833610648943
2.6626066989467376,6.099833610648943
2.663605051664753,8.099833610648943
2.664603404382768,8.099833610648943
2.6656017571007835,2.0998336106489432
2.666600109818799,0.09983361064894325
2.667598462536814,-3.9001663893510568
2.6685968152548294,-4.900166389351057
2.6695951679728447,-8.900166389351057
2.67059352069086,-6.900166389351057
2.6715918734088753,-4.900166389351057
2.6725902261268906,-4.900166389351057
2.673588578844906,-6.900166389351057
2.674586931562921,-7.900166389351057
2.6755852842809364,-2.9001663893510568
2.6765836369989513,-2.9001663893510568
2.6775819897169666,4.099833610648943
2.678580342434982,5.099833610648943
2.679578695152997,7.099833610648943
2.6805770478710125,9.099833610648943
2.6815754005890278,8.099833610648943
2.682573753307043,5.099833610648943
2.6835721060250584,7.099833610648943
2.6845704587430737,6.099833610648943
2.685568811461089,4.099833610648943
2.6865671641791042,-1.9001663893510568
2.6875655168971195,-2.9001663893510568
2.688563869615135,-3.9001663893510568
2.68956222233315,-7.900166389351057
2.6905605750511654,-8.900166389351057
2.6915589277691807,-7.900166389351057
2.692557280487196,-5.900166389351057
2.6935556332052113,-7.900166389351057
2.6945539859232266,-8.900166389351057
2.695552338641242,-2.9001663893510568
2.696550691359257,-1.9001663893510568
2.6975490440772725,2.0998336106489432
2.6985473967952878,5.099833610648943
2.6995457495133026,5.099833610648943
2.700544102231318,11.099833610648943
2.701542454949333,8.099833610648943
2.7025408076673485,6.099833610648943
2.703539160385364,8.099833610648943
2.704537513103379,5.099833610648943
2.7055358658213944,3.0998336106489432
2.7065342185394097,-0.9001663893510568
2.707532571257425,-2.9001663893510568
2.7085309239754403,-1.9001663893510568
2.7095292766934556,-4.900166389351057
2.710527629411471,-7.900166389351057
2.711525982129486,-6.900166389351057
2.7125243348475014,-6.900166389351057
2.7135226875655167,-7.900166389351057
2.714521040283532,-7.900166389351057
2.7155193930015473,-3.9001663893510568
2.7165177457195626,-2.9001663893510568
2.717516098437578,1.0998336106489432
2.718514451155593,2.0998336106489432
2.7195128038736085,8.099833610648943
2.720511156591624,11.099833610648943
2.721509509309639,8.099833610648943
2.722507862027654,7.099833610648943
2.7235062147456692,6.099833610648943
2.7245045674636845,6.099833610648943
2.7255029201817,3.0998336106489432
2.726501272899715,1.0998336106489432
2.7274996256177304,-1.9001663893510568
2.7284979783357457,-2.9001663893510568
2.729496331053761,-4.900166389351057
2.7304946837717763,-9.900166389351057
2.7314930364897916,-6.900166389351057
2.732491389207807,-6.900166389351057
2.733489741925822,-9.900166389351057
2.7344880946438375,-6.900166389351057
2.7354864473618528,-1.9001663893510568
2.736484800079868,-3.9001663893510568
2.7374831527978833,-0.9001663893510568
2.7384815055158986,3.0998336106489432
2.739479858233914,7.099833610648943
2.7404782109519292,10.099833610648943
2.7414765636699445,7.099833610648943
2.74247491638796,7.099833610648943
2.743473269105975,6.099833610648943
2.7444716218239904,5.099833610648943
2.7454699745420053,3.0998336106489432
2.7464683272600205,2.0998336106489432
2.747466679978036,0.09983361064894325
2.748465032696051,0.09983361064894325
2.7494633854140664,-7.900166389351057
2.7504617381320817,-11.900166389351057
2.751460090850097,-7.900166389351057
2.7524584435681123,-7.900166389351057
2.7534567962861276,-7.900166389351057
2.754455149004143,-7.900166389351057
2.755453501722158,-2.9001663893510568
2.7564518544401735,-0.9001663893510568
2.757450207158189,1.0998336106489432
2.758448559876204,1.0998336106489432
2.7594469125942194,6.099833610648943
2.7604452653122347,10.099833610648943
2.76144361803025,11.099833610648943
2.7624419707482653,8.099833610648943
2.7634403234662805,7.099833610648943
2.764438676184296,5.099833610648943
2.765437028902311,1.0998336106489432
2.7664353816203264,2.0998336106489432
2.7674337343383417,-2.9001663893510568
2.7684320870563566,-3.9001663893510568
2.769430439774372,-3.9001663893510568
2.770428792492387,-4.900166389351057
2.7714271452104025,-6.900166389351057
2.7724254979284177,-6.900166389351057
2.773423850646433,-10.900166389351057
2.7744222033644483,-8.900166389351057
2.7754205560824636,-3.9001663893510568
2.776418908800479,-0.9001663893510568
2.777417261518494,1.0998336106489432
2.7784156142365095,2.0998336106489432
2.779413966954525,8.099833610648943
2.78041231967254,8.099833610648943
2.7814106723905554,6.099833610648943
2.7824090251085707,6.099833610648943
2.783407377826586,8.099833610648943
2.7844057305446013,7.099833610648943
2.7854040832626166,4.099833610648943
2.786402435980632,-1.9001663893510568
2.787400788698647,-5.900166389351057
2.7883991414166625,-1.9001663893510568
2.7893974941346777,-3.9001663893510568
2.790395846852693,-9.900166389351057
2.791394199570708,-7.900166389351057
2.792392552288723,-4.900166389351057
2.7933909050067385,-7.900166389351057
2.7943892577247538,-8.900166389351057
2.795387610442769,-2.9001663893510568
2.7963859631607844,0.09983361064894325
2.7973843158787997,3.0998336106489432
2.798382668596815,4.099833610648943
2.7993810213148302,7.099833610648943
2.8003793740328455,11.099833610648943
2.801377726750861,9.099833610648943
2.802376079468876,7.099833610648943
2.8033744321868914,8.099833610648943
2.8043727849049067,9.099833610648943
2.805371137622922,4.099833610648943
2.8063694903409373,1.0998336106489432
2.8073678430589526,-5.900166389351057
2.808366195776968,-5.900166389351057
2.809364548494983,-9.900166389351057
2.8103629012129985,-7.900166389351057
2.8113612539310138,-7.900166389351057
2.812359606649029,-6.900166389351057
2.8133579593670444,-6.900166389351057
2.814356312085059,-7.900166389351057
2.8153546648030745,-2.9001663893510568
2.81635301752109,-0.9001663893510568
2.817351370239105,4.099833610648943
2.8183497229571204,4.099833610648943
2.8193480756751357,8.099833610648943
2.820346428393151,7.099833610648943
2.8213447811111663,7.099833610648943
2.8223431338291816,6.099833610648943
2.823341486547197,9.099833610648943
2.824339839265212,7.099833610648943
2.8253381919832274,3.0998336106489432
2.8263365447012427,0.09983361064894325
2.827334897419258,-2.9001663893510568
2.8283332501372733,-2.9001663893510568
2.8293316028552886,-6.900166389351057
2.830329955573304,-9.900166389351057
2.831328308291319,-7.900166389351057
2.8323266610093345,-6.900166389351057
2.83332501372735,-6.900166389351057
2.834323366445365,-7.900166389351057
2.8353217191633804,-4.900166389351057
2.8363200718813957,0.09983361064894325
2.8373184245994105,3.0998336106489432
2.838316777317426,5.099833610648943
2.839315130035441,6.099833610648943
2.8403134827534564,9.099833610648943
2.8413118354714717,7.099833610648943
2.842310188189487,5.099833610648943
2.8433085409075023,7.099833610648943
2.8443068936255176,7.099833610648943
2.845305246343533,1.0998336106489432
2.846303599061548,-0.9001663893510568
2.8473019517795635,-2.9001663893510568
2.8483003044975788,-3.9001663893510568
2.849298657215594,-2.9001663893510568
2.8502970099336093,-7.900166389351057
2.8512953626516246,-6.900166389351057
2.85229371536964,-5.900166389351057
2.8532920680876552,-7.900166389351057
2.8542904208056705,-7.900166389351057
2.855288773523686,-3.9001663893510568
2.856287126241701,-0.9001663893510568
2.8572854789597164,2.0998336106489432
2.8582838316777317,3.0998336106489432
2.859282184395747,5.099833610648943
2.860280537113762,12.099833610648943
2.861278889831777,8.099833610648943
2.8622772425497924,8.099833610648943
2.8632755952678077,8.099833610648943
2.864273947985823,6.099833610648943
2.8652723007038383,3.0998336106489432
2.8662706534218536,0.09983361064894325
2.867269006139869,-1.9001663893510568
2.868267358857884,-1.9001663893510568
2.8692657115758995,-6.900166389351057
2.870264064293915,-7.900166389351057
2.87126241701193,-5.900166389351057
2.8722607697299454,-5.900166389351057
2.8732591224479607,-6.900166389351057
2.874257475165976,-9.900166389351057
2.8752558278839913,-1.9001663893510568
2.8762541806020065,1.0998336106489432
2.877252533320022,3.0998336106489432
2.878250886038037,5.099833610648943
2.8792492387560524,6.099833610648943
2.8802475914740677,9.099833610648943
2.881245944192083,7.099833610648943
2.8822442969100983,6.099833610648943
2.883242649628113,9.099833610648943
2.8842410023461285,6.099833610648943
2.8852393550641438,3.0998336106489432
2.886237707782159,1.0998336106489432
2.8872360605001743,-2.9001663893510568
2.8882344132181896,-4.900166389351057
2.889232765936205,-7.900166389351057
2.89023111865422,-7.900166389351057
2.8912294713722355,-5.900166389351057
2.892227824090251,-6.900166389351057
2.893226176808266,-8.900166389351057
2.8942245295262814,-5.900166389351057
2.8952228822442967,-3.9001663893510568
2.896221234962312,-0.9001663893510568
2.8972195876803273,3.0998336106489432
2.8982179403983426,4.099833610648943
2.899216293116358,8.099833610648943
2.900214645834373,8.099833610648943
2.9012129985523885,6.099833610648943
2.9022113512704037,5.099833610648943
2.903209703988419,8.099833610648943
2.9042080567064343,5.099833610648943
2.9052064094244496,3.0998336106489432
2.9062047621424645,2.0998336106489432
2.9072031148604798,-0.9001663893510568
2.908201467578495,-4.900166389351057
2.9091998202965104,-7.900166389351057
2.9101981730145257,-8.900166389351057
2.911196525732541,-7.900166389351057
2.9121948784505562,-5.900166389351057
2.9131932311685715,-7.900166389351057
2.914191583886587,-10.900166389351057
2.915189936604602,-3.9001663893510568
2.9161882893226174,-2.9001663893510568
2.9171866420406327,4.099833610648943
2.918184994758648,4.099833610648943
2.9191833474766633,8.099833610648943
2.9201817001946786,12.099833610648943
2.921180052912694,8.099833610648943
2.922178405630709,8.099833610648943
2.9231767583487245,8.099833610648943
2.9241751110667398,6.099833610648943
2.925173463784755,2.0998336106489432
2.9261718165027704,1.0998336106489432
2.9271701692207857,-1.9001663893510568
2.928168521938801,-3.9001663893510568
2.929166874656816,-7.900166389351057
2.930165227374831,-9.900166389351057
2.9311635800928464,-8.900166389351057
2.9321619328108617,-4.900166389351057
2.933160285528877,-8.900166389351057
2.9341586382468923,-7.900166389351057
2.9351569909649076,-2.9001663893510568
2.936155343682923,0.09983361064894325
2.937153696400938,2.0998336106489432
2.9381520491189534,6.099833610648943
2.9391504018369687,5.099833610648943
2.940148754554984,8.099833610648943
2.9411471072729993,8.099833610648943
2.9421454599910146,6.099833610648943
2.94314381270903,6.099833610648943
2.944142165427045,8.099833610648943
2.9451405181450605,4.099833610648943
2.946138870863076,0.09983361064894325
2.947137223581091,-1.9001663893510568
2.9481355762991064,-2.9001663893510568
2.9491339290171217,-8.900166389351057
2.950132281735137,-9.900166389351057
2.9511306344531523,-10.900166389351057
2.952128987171167,-7.900166389351057
2.9531273398891824,-7.900166389351057
2.9541256926071977,-6.900166389351057
2.955124045325213,-3.9001663893510568
2.9561223980432283,-1.9001663893510568
2.9571207507612436,4.099833610648943
2.958119103479259,7.099833610648943
2.959117456197274,8.099833610648943
2.9601158089152895,10.099833610648943
2.9611141616333048,8.099833610648943
2.96211251435132,8.099833610648943
2.9631108670693354,7.099833610648943
2.9641092197873506,8.099833610648943
2.965107572505366,2.0998336106489432
2.9661059252233812,-0.9001663893510568
2.9671042779413965,-1.9001663893510568
2.968102630659412,-2.9001663893510568
2.969100983377427,-7.900166389351057
2.9700993360954424,-9.900166389351057
2.9710976888134577,-9.900166389351057
2.972096041531473,-7.900166389351057
2.9730943942494883,-7.900166389351057
2.9740927469675036,-8.900166389351057
2.9750910996855184,-3.9001663893510568
2.9760894524035337,-0.9001663893510568
2.977087805121549,3.0998336106489432
2.9780861578395643,6.099833610648943
2.9790845105575796,11.099833610648943
2.980082863275595,11.099833610648943
2.98108121599361,8.099833610648943
2.9820795687116255,7.099833610648943
2.983077921429641,8.099833610648943
2.984076274147656,6.099833610648943
2.9850746268656714,5.099833610648943
2.9860729795836867,1.0998336106489432
2.987071332301702,-3.9001663893510568
2.9880696850197173,-3.9001663893510568
2.9890680377377326,-8.900166389351057
2.990066390455748,-7.900166389351057
2.991064743173763,-10.900166389351057
2.9920630958917784,-6.900166389351057
2.9930614486097937,-7.900166389351057
2.994059801327809,-6.900166389351057
2.9950581540458243,-2.9001663893510568
2.9960565067638396,1.0998336106489432
2.997054859481855,4.099833610648943
2.9980532121998698,4.099833610648943
2.999051564917885,7.099833610648943
3.0000499176359003,8.099833610648943
3.0010482703539156,7.099833610648943
3.002046623071931,7.099833610648943
3.0030449757899462,8.099833610648943
3.0040433285079615,6.099833610648943
3.005041681225977,4.099833610648943
3.006040033943992,1.0998336106489432
3.0070383866620074,-1.9001663893510568
3.0080367393800227,-3.9001663893510568
3.009035092098038,-7.900166389351057
3.0100334448160533,-9.900166389351057
3.0110317975340686,-9.900166389351057
3.012030150252084,-6.900166389351057
3.013028502970099,-7.900166389351057
3.0140268556881145,-6.900166389351057
3.0150252084061298,-4.900166389351057
3.016023561124145,-2.9001663893510568
3.0170219138421603,3.0998336106489432
3.0180202665601756,4.099833610648943
3.019018619278191,9.099833610648943
3.0200169719962062,10.099833610648943
3.021015324714221,8.099833610648943
3.0220136774322364,6.099833610648943
3.0230120301502517,9.099833610648943
3.024010382868267,8.099833610648943
3.0250087355862822,3.0998336106489432
3.0260070883042975,0.09983361064894325
3.027005441022313,-2.9001663893510568
3.028003793740328,-3.9001663893510568
3.0290021464583434,-7.900166389351057
3.0300004991763587,-10.900166389351057
3.030998851894374,-7.900166389351057
3.0319972046123893,-6.900166389351057
3.0329955573304046,-4.900166389351057
3.03399391004842,-4.900166389351057
3.034992262766435,-2.9001663893510568
3.0359906154844505,-0.9001663893510568
3.0369889682024658,3.0998336106489432
3.037987320920481,6.099833610648943
3.0389856736384964,9.099833610648943
3.0399840263565117,10.099833610648943
3.040982379074527,6.099833610648943
3.0419807317925422,5.099833610648943
3.0429790845105575,10.099833610648943
3.0439774372285724,6.099833610648943
3.0449757899465877,-0.9001663893510568
3.045974142664603,-1.9001663893510568
3.0469724953826183,-2.9001663893510568
3.0479708481006336,-3.9001663893510568
3.048969200818649,-7.900166389351057
3.049967553536664,-10.900166389351057
3.0509659062546794,-3.9001663893510568
3.0519642589726947,-9.900166389351057
3.05296261169071,-7.900166389351057
3.0539609644087253,-6.900166389351057
3.0549593171267406,-3.9001663893510568
3.055957669844756,-1.9001663893510568
3.056956022562771,2.0998336106489432
3.0579543752807865,5.099833610648943
3.058952727998802,8.099833610648943
3.059951080716817,12.099833610648943
3.0609494334348324,11.099833610648943
3.0619477861528477,7.099833610648943
3.062946138870863,6.099833610648943
3.0639444915888783,6.099833610648943
3.0649428443068936,4.099833610648943
3.065941197024909,-1.9001663893510568
3.0669395497429237,-3.9001663893510568
3.067937902460939,-2.9001663893510568
3.0689362551789543,-8.900166389351057
3.0699346078969696,-10.900166389351057
3.070932960614985,-7.900166389351057
3.071931313333,-5.900166389351057
3.0729296660510155,-7.900166389351057
3.0739280187690308,-8.900166389351057
3.074926371487046,-3.9001663893510568
3.0759247242050614,-0.9001663893510568
3.0769230769230766,1.0998336106489432
3.077921429641092,5.099833610648943
3.0789197823591072,8.099833610648943
3.0799181350771225,11.099833610648943
3.080916487795138,10.099833610648943
3.081914840513153,7.099833610648943
3.0829131932311684,10.099833610648943
3.0839115459491837,6.099833610648943
3.084909898667199,1.0998336106489432
3.0859082513852143,-1.9001663893510568
3.0869066041032296,-3.9001663893510568
3.087904956821245,-3.9001663893510568
3.08890330953926,-6.900166389351057
3.0899016622572755,-7.900166389351057
3.0909000149752903,-7.900166389351057
3.0918983676933056,-7.900166389351057
3.092896720411321,-7.900166389351057
3.093895073129336,-7.900166389351057
3.0948934258473515,-1.9001663893510568
3.095891778565367,0.09983361064894325
3.096890131283382,3.0998336106489432
3.0978884840013974,5.099833610648943
3.0988868367194127,9.099833610648943
3.099885189437428,9.099833610648943
3.1008835421554433,9.099833610648943
3.1018818948734586,6.099833610648943
3.102880247591474,8.099833610648943
3.103878600309489,5.099833610648943
3.1048769530275044,3.0998336106489432
3.1058753057455197,1.0998336106489432
3.106873658463535,-2.9001663893510568
3.1078720111815503,-2.9001663893510568
3.1088703638995656,-6.900166389351057
3.109868716617581,-9.900166389351057
3.110867069335596,-7.900166389351057
3.1118654220536115,-7.900166389351057
3.112863774771627,-7.900166389351057
3.1138621274896416,-5.900166389351057
3.114860480207657,-2.9001663893510568
3.1158588329256722,0.09983361064894325
3.1168571856436875,2.0998336106489432
3.117855538361703,5.099833610648943
3.118853891079718,8.099833610648943
3.1198522437977334,12.099833610648943
3.1208505965157487,9.099833610648943
3.121848949233764,7.099833610648943
3.1228473019517793,7.099833610648943
3.1238456546697946,6.099833610648943
3.12484400738781,0.09983361064894325
3.125842360105825,1.0998336106489432
3.1268407128238405,-5.900166389351057
3.1278390655418558,-4.900166389351057
3.128837418259871,-6.900166389351057
3.1298357709778863,-9.900166389351057
3.1308341236959016,-8.900166389351057
3.131832476413917,-7.900166389351057
3.1328308291319322,-7.900166389351057
3.1338291818499475,-6.900166389351057
3.134827534567963,-2.9001663893510568
3.135825887285978,2.0998336106489432
3.136824240003993,4.099833610648943
3.1378225927220083,4.099833610648943
3.1388209454400235,7.099833610648943
3.139819298158039,13.099833610648943
3.140817650876054,11.099833610648943
3.1418160035940694,5.099833610648943
3.1428143563120847,4.099833610648943
3.1438127090301,6.099833610648943
3.1448110617481153,2.0998336106489432
3.1458094144661306,-0.9001663893510568
3.146807767184146,-2.9001663893510568
3.147806119902161,-2.9001663893510568
3.1488044726201765,-7.900166389351057
3.149802825338192,-8.900166389351057
3.150801178056207,-8.900166389351057
3.1517995307742224,-5.900166389351057
3.1527978834922377,-7.900166389351057
3.153796236210253,-7.900166389351057
3.1547945889282683,-2.9001663893510568
3.1557929416462835,0.09983361064894325
3.156791294364299,2.0998336106489432
3.157789647082314,4.099833610648943
3.1587879998003294,8.099833610648943
3.1597863525183443,12.099833610648943
3.1607847052363596,8.099833610648943
3.161783057954375,6.099833610648943
3.16278141067239,8.099833610648943
3.1637797633904055,9.099833610648943
3.1647781161084207,4.099833610648943
3.165776468826436,1.0998336106489432
3.1667748215444513,-2.9001663893510568
3.1677731742624666,-4.900166389351057
3.168771526980482,-7.900166389351057
