Time,EMG
0.0,220.77300347222223
0.0009766154847810754,241.77300347222223
0.001953230969562151,218.77300347222223
0.002929846454343226,172.77300347222223
0.003906461939124302,179.77300347222223
0.004883077423905377,162.77300347222223
0.005859692908686452,63.77300347222223
0.006836308393467528,-45.22699652777777
0.007812923878248603,-68.22699652777777
0.008789539363029678,-164.22699652777777
0.009766154847810755,-231.22699652777777
0.01074277033259183,-244.22699652777777
0.011719385817372904,-216.22699652777777
0.01269600130215398,-167.22699652777777
0.013672616786935056,-179.22699652777777
0.014649232271716132,-171.22699652777777
0.015625847756497207,-62.22699652777777
0.016602463241278283,32.77300347222223
0.017579078726059356,69.77300347222223
0.018555694210840433,170.77300347222223
0.01953230969562151,222.77300347222223
0.020508925180402583,244.77300347222223
0.02148554066518366,219.77300347222223
0.022462156149964736,165.77300347222223
0.02343877163474581,184.77300347222223
0.024415387119526885,163.77300347222223
0.02539200260430796,51.77300347222223
0.026368618089089038,-65.22699652777777
0.02734523357387011,-92.22699652777777
0.028321849058651188,-145.22699652777777
0.029298464543432264,-201.22699652777777
0.030275080028213337,-220.22699652777777
0.031251695512994414,-212.22699652777777
0.03222831099777549,-194.22699652777777
0.03320492648255657,-188.22699652777777
0.03418154196733764,-173.22699652777777
0.03515815745211871,-65.22699652777777
0.03613477293689979,47.77300347222223
0.037111388421680866,84.77300347222223
0.03808800390646194,164.77300347222223
0.03906461939124302,238.77300347222223
0.040041234876024095,241.77300347222223
0.041017850360805165,232.77300347222223
0.04199446584558624,173.77300347222223
0.04297108133036732,152.77300347222223
0.043947696815148395,154.77300347222223
0.04492431229992947,68.77300347222223
0.04590092778471055,-44.22699652777777
0.04687754326949162,-92.22699652777777
0.047854158754272694,-173.22699652777777
0.04883077423905377,-211.22699652777777
0.04980738972383485,-212.22699652777777
0.05078400520861592,-205.22699652777777
0.051760620693397,-183.22699652777777
0.052737236178178076,-189.22699652777777
0.053713851662959146,-189.22699652777777
0.05469046714774022,-84.22699652777777
0.0556670826325213,45.77300347222223
0.056643698117302375,88.77300347222223
0.05762031360208345,181.77300347222223
0.05859692908686453,228.77300347222223
0.0595735445716456,240.77300347222223
0.060550160056426675,230.77300347222223
0.06152677554120775,169.77300347222223
0.06250339102598883,165.77300347222223
0.0634800065107699,158.77300347222223
0.06445662199555098,43.77300347222223
0.06543323748033206,-58.22699652777777
0.06640985296511313,-83.22699652777777
0.06738646844989421,-161.22699652777777
0.06836308393467529,-204.22699652777777
0.06933969941945635,-213.22699652777777
0.07031631490423743,-217.22699652777777
0.0712929303890185,-184.22699652777777
0.07226954587379958,-184.22699652777777
0.07324616135858066,-172.22699652777777
0.07422277684336173,-60.22699652777777
0.07519939232814281,48.77300347222223
0.07617600781292388,74.77300347222223
0.07715262329770496,164.77300347222223
0.07812923878248604,211.77300347222223
0.07910585426726711,233.77300347222223
0.08008246975204819,242.77300347222223
0.08105908523682927,194.77300347222223
0.08203570072161033,174.77300347222223
0.0830123162063914,142.77300347222223
0.08398893169117248,45.77300347222223
0.08496554717595356,-47.22699652777777
0.08594216266073464,-82.22699652777777
0.08691877814551571,-163.22699652777777
0.08789539363029679,-219.22699652777777
0.08887200911507787,-225.22699652777777
0.08984862459985894,-200.22699652777777
0.09082524008464002,-168.22699652777777
0.0918018555694211,-179.22699652777777
0.09277847105420217,-176.22699652777777
0.09375508653898323,-65.22699652777777
0.09473170202376431,35.77300347222223
0.09570831750854539,70.77300347222223
0.09668493299332646,162.77300347222223
0.09766154847810754,227.77300347222223
0.09863816396288862,253.77300347222223
0.0996147794476697,226.77300347222223
0.10059139493245077,163.77300347222223
0.10156801041723185,160.77300347222223
0.10254462590201292,143.77300347222223
0.103521241386794,51.77300347222223
0.10449785687157508,-56.22699652777777
0.10547447235635615,-80.22699652777777
0.10645108784113722,-152.22699652777777
0.10742770332591829,-206.22699652777777
0.10840431881069937,-223.22699652777777
0.10938093429548044,-212.22699652777777
0.11035754978026152,-165.22699652777777
0.1113341652650426,-174.22699652777777
0.11231078074982367,-181.22699652777777
0.11328739623460475,-64.22699652777777
0.11426401171938583,52.77300347222223
0.1152406272041669,84.77300347222223
0.11621724268894798,165.77300347222223
0.11719385817372906,212.77300347222223
0.11817047365851013,233.77300347222223
0.1191470891432912,223.77300347222223
0.12012370462807227,177.77300347222223
0.12110032011285335,168.77300347222223
0.12207693559763443,160.77300347222223
0.1230535510824155,55.77300347222223
0.12403016656719658,-50.22699652777777
0.12500678205197766,-78.22699652777777
0.12598339753675872,-164.22699652777777
0.1269600130215398,-217.22699652777777
0.12793662850632087,-216.22699652777777
0.12891324399110196,-205.22699652777777
0.12988985947588302,-166.22699652777777
0.13086647496066411,-177.22699652777777
0.13184309044544518,-190.22699652777777
0.13281970593022627,-80.22699652777777
0.13379632141500733,38.77300347222223
0.13477293689978842,78.77300347222223
0.13574955238456948,163.77300347222223
0.13672616786935057,221.77300347222223
0.13770278335413164,253.77300347222223
0.1386793988389127,247.77300347222223
0.1396560143236938,168.77300347222223
0.14063262980847485,155.77300347222223
0.14160924529325594,161.77300347222223
0.142585860778037,62.77300347222223
0.1435624762628181,-59.22699652777777
0.14453909174759916,-87.22699652777777
0.14551570723238025,-152.22699652777777
0.1464923227171613,-201.22699652777777
0.1474689382019424,-223.22699652777777
0.14844555368672346,-224.22699652777777
0.14942216917150455,-192.22699652777777
0.15039878465628562,-184.22699652777777
0.15137540014106668,-172.22699652777777
0.15235201562584777,-73.22699652777777
0.15332863111062883,60.77300347222223
0.15430524659540992,107.77300347222223
0.15528186208019099,162.77300347222223
0.15625847756497208,205.77300347222223
0.15723509304975314,231.77300347222223
0.15821170853453423,226.77300347222223
0.1591883240193153,164.77300347222223
0.16016493950409638,163.77300347222223
0.16114155498887744,170.77300347222223
0.16211817047365853,62.77300347222223
0.1630947859584396,-40.22699652777777
0.16407140144322066,-73.22699652777777
0.16504801692800175,-157.22699652777777
0.1660246324127828,-212.22699652777777
0.1670012478975639,-235.22699652777777
0.16797786338234497,-215.22699652777777
0.16895447886712606,-180.22699652777777
0.16993109435190712,-189.22699652777777
0.1709077098366882,-172.22699652777777
0.17188432532146927,-66.22699652777777
0.17286094080625036,38.77300347222223
0.17383755629103143,78.77300347222223
0.17481417177581252,170.77300347222223
0.17579078726059358,229.77300347222223
0.17676740274537464,239.77300347222223
0.17774401823015573,218.77300347222223
0.1787206337149368,175.77300347222223
0.17969724919971788,178.77300347222223
0.18067386468449895,168.77300347222223
0.18165048016928004,48.77300347222223
0.1826270956540611,-69.22699652777777
0.1836037111388422,-108.22699652777777
0.18458032662362325,-171.22699652777777
0.18555694210840434,-205.22699652777777
0.1865335575931854,-205.22699652777777
0.18751017307796647,-192.22699652777777
0.18848678856274756,-178.22699652777777
0.18946340404752862,-184.22699652777777
0.1904400195323097,-171.22699652777777
0.19141663501709077,-59.22699652777777
0.19239325050187187,53.77300347222223
0.19336986598665293,82.77300347222223
0.19434648147143402,149.77300347222223
0.19532309695621508,203.77300347222223
0.19629971244099617,240.77300347222223
0.19727632792577723,242.77300347222223
0.19825294341055832,182.77300347222223
0.1992295588953394,165.77300347222223
0.20020617438012045,167.77300347222223
0.20118278986490154,66.77300347222223
0.2021594053496826,-43.22699652777777
0.2031360208344637,-91.22699652777777
0.20411263631924476,-172.22699652777777
0.20508925180402585,-203.22699652777777
0.2060658672888069,-231.22699652777777
0.207042482773588,-204.22699652777777
0.20801909825836906,-168.22699652777777
0.20899571374315015,-189.22699652777777
0.20997232922793121,-191.22699652777777
0.2109489447127123,-69.22699652777777
0.21192556019749337,53.77300347222223
0.21290217568227443,81.77300347222223
0.21387879116705552,167.77300347222223
0.21485540665183658,219.77300347222223
0.21583202213661767,236.77300347222223
0.21680863762139874,215.77300347222223
0.21778525310617983,159.77300347222223
0.2187618685909609,158.77300347222223
0.21973848407574198,167.77300347222223
0.22071509956052304,58.77300347222223
0.22169171504530413,-46.22699652777777
0.2226683305300852,-66.22699652777777
0.22364494601486629,-155.22699652777777
0.22462156149964735,-204.22699652777777
0.2255981769844284,-211.22699652777777
0.2265747924692095,-206.22699652777777
0.22755140795399056,-187.22699652777777
0.22852802343877165,-187.22699652777777
0.22950463892355272,-171.22699652777777
0.2304812544083338,-68.22699652777777
0.23145786989311487,30.77300347222223
0.23243448537789596,74.77300347222223
0.23341110086267702,168.77300347222223
0.2343877163474581,224.77300347222223
0.23536433183223918,239.77300347222223
0.23634094731702027,230.77300347222223
0.23731756280180133,174.77300347222223
0.2382941782865824,168.77300347222223
0.23927079377136348,155.77300347222223
0.24024740925614455,45.77300347222223
0.24122402474092564,-52.22699652777777
0.2422006402257067,-79.22699652777777
0.2431772557104878,-154.22699652777777
0.24415387119526885,-195.22699652777777
0.24513048668004994,-218.22699652777777
0.246107102164831,-208.22699652777777
0.2470837176496121,-188.22699652777777
0.24806033313439316,-197.22699652777777
0.24903694861917425,-172.22699652777777
0.2500135641039553,-58.22699652777777
0.2509901795887364,53.77300347222223
0.25196679507351744,85.77300347222223
0.25294341055829855,172.77300347222223
0.2539200260430796,222.77300347222223
0.2548966415278607,235.77300347222223
0.25587325701264174,225.77300347222223
0.25684987249742286,178.77300347222223
0.2578264879822039,160.77300347222223
0.258803103466985,150.77300347222223
0.25977971895176605,57.77300347222223
0.26075633443654717,-59.22699652777777
0.26173294992132823,-100.22699652777777
0.2627095654061093,-164.22699652777777
0.26368618089089035,-202.22699652777777
0.2646627963756714,-209.22699652777777
0.26563941186045253,-201.22699652777777
0.2666160273452336,-184.22699652777777
0.26759264283001466,-188.22699652777777
0.2685692583147957,-174.22699652777777
0.26954587379957684,-69.22699652777777
0.2705224892843579,45.77300347222223
0.27149910476913897,92.77300347222223
0.27247572025392003,171.77300347222223
0.27345233573870115,212.77300347222223
0.2744289512234822,236.77300347222223
0.27540556670826327,236.77300347222223
0.27638218219304433,181.77300347222223
0.2773587976778254,164.77300347222223
0.2783354131626065,146.77300347222223
0.2793120286473876,50.77300347222223
0.28028864413216864,-57.22699652777777
0.2812652596169497,-86.22699652777777
0.2822418751017308,-168.22699652777777
0.2832184905865119,-200.22699652777777
0.28419510607129295,-216.22699652777777
0.285171721556074,-216.22699652777777
0.2861483370408551,-183.22699652777777
0.2871249525256362,-177.22699652777777
0.28810156801041725,-163.22699652777777
0.2890781834951983,-58.22699652777777
0.2900547989799794,61.77300347222223
0.2910314144647605,84.77300347222223
0.29200802994954156,155.77300347222223
0.2929846454343226,213.77300347222223
0.2939612609191037,243.77300347222223
0.2949378764038848,230.77300347222223
0.29591449188866586,156.77300347222223
0.2968911073734469,163.77300347222223
0.297867722858228,151.77300347222223
0.2988443383430091,41.77300347222223
0.29982095382779017,-59.22699652777777
0.30079756931257123,-82.22699652777777
0.3017741847973523,-164.22699652777777
0.30275080028213336,-199.22699652777777
0.3037274157669145,-212.22699652777777
0.30470403125169554,-194.22699652777777
0.3056806467364766,-179.22699652777777
0.30665726222125766,-186.22699652777777
0.3076338777060388,-171.22699652777777
0.30861049319081985,-53.22699652777777
0.3095871086756009,53.77300347222223
0.31056372416038197,76.77300347222223
0.3115403396451631,144.77300347222223
0.31251695512994415,206.77300347222223
0.3134935706147252,237.77300347222223
0.3144701860995063,230.77300347222223
0.31544680158428734,169.77300347222223
0.31642341706906846,158.77300347222223
0.3174000325538495,161.77300347222223
0.3183766480386306,61.77300347222223
0.31935326352341165,-38.22699652777777
0.32032987900819276,-82.22699652777777
0.3213064944929738,-162.22699652777777
0.3222831099777549,-202.22699652777777
0.32325972546253595,-212.22699652777777
0.32423634094731707,-204.22699652777777
0.32521295643209813,-182.22699652777777
0.3261895719168792,-197.22699652777777
0.32716618740166026,-187.22699652777777
0.3281428028864413,-66.22699652777777
0.32911941837122244,48.77300347222223
0.3300960338560035,78.77300347222223
0.33107264934078456,171.77300347222223
0.3320492648255656,227.77300347222223
0.33302588031034674,240.77300347222223
0.3340024957951278,239.77300347222223
0.33497911127990887,175.77300347222223
0.33595572676468993,162.77300347222223
0.33693234224947105,141.77300347222223
0.3379089577342521,45.77300347222223
0.3388855732190332,-59.22699652777777
0.33986218870381424,-91.22699652777777
0.3408388041885953,-155.22699652777777
0.3418154196733764,-193.22699652777777
0.3427920351581575,-215.22699652777777
0.34376865064293854,-202.22699652777777
0.3447452661277196,-178.22699652777777
0.3457218816125007,-188.22699652777777
0.3466984970972818,-177.22699652777777
0.34767511258206285,-65.22699652777777
0.3486517280668439,44.77300347222223
0.34962834355162503,80.77300347222223
0.3506049590364061,155.77300347222223
0.35158157452118716,210.77300347222223
0.3525581900059682,234.77300347222223
0.3535348054907493,232.77300347222223
0.3545114209755304,195.77300347222223
0.35548803646031146,189.77300347222223
0.3564646519450925,160.77300347222223
0.3574412674298736,47.77300347222223
0.3584178829146547,-63.22699652777777
0.35939449839943577,-84.22699652777777
0.36037111388421683,-154.22699652777777
0.3613477293689979,-195.22699652777777
0.362324344853779,-221.22699652777777
0.3633009603385601,-210.22699652777777
0.36427757582334114,-209.22699652777777
0.3652541913081222,-217.22699652777777
0.36623080679290326,-175.22699652777777
0.3672074222776844,-61.22699652777777
0.36818403776246544,48.77300347222223
0.3691606532472465,83.77300347222223
0.37013726873202757,173.77300347222223
0.3711138842168087,231.77300347222223
0.37209049970158975,252.77300347222223
0.3730671151863708,231.77300347222223
0.3740437306711519,155.77300347222223
0.37502034615593294,160.77300347222223
0.37599696164071406,157.77300347222223
0.3769735771254951,55.77300347222223
0.3779501926102762,-48.22699652777777
0.37892680809505724,-74.22699652777777
0.37990342357983836,-153.22699652777777
0.3808800390646194,-207.22699652777777
0.3818566545494005,-217.22699652777777
0.38283327003418155,-208.22699652777777
0.38380988551896267,-197.22699652777777
0.38478650100374373,-199.22699652777777
0.3857631164885248,-183.22699652777777
0.38673973197330586,-60.22699652777777
0.3877163474580869,39.77300347222223
0.38869296294286804,88.77300347222223
0.3896695784276491,172.77300347222223
0.39064619391243016,235.77300347222223
0.3916228093972112,260.77300347222223
0.39259942488199234,234.77300347222223
0.3935760403667734,179.77300347222223
0.39455265585155447,153.77300347222223
0.39552927133633553,137.77300347222223
0.39650588682111665,44.77300347222223
0.3974825023058977,-47.22699652777777
0.3984591177906788,-64.22699652777777
0.39943573327545984,-133.22699652777777
0.4004123487602409,-193.22699652777777
0.401388964245022,-233.22699652777777
0.4023655797298031,-219.22699652777777
0.40334219521458414,-202.22699652777777
0.4043188106993652,-220.22699652777777
0.4052954261841463,-209.22699652777777
0.4062720416689274,-59.22699652777777
0.40724865715370845,66.77300347222223
0.4082252726384895,94.77300347222223
0.40920188812327063,162.77300347222223
0.4101785036080517,220.77300347222223
0.41115511909283275,253.77300347222223
0.4121317345776138,239.77300347222223
0.4131083500623949,184.77300347222223
0.414084965547176,177.77300347222223
0.41506158103195706,163.77300347222223
0.4160381965167381,58.77300347222223
0.4170148120015192,-49.22699652777777
0.4179914274863003,-83.22699652777777
0.41896804297108137,-160.22699652777777
0.41994465845586243,-211.22699652777777
0.4209212739406435,-233.22699652777777
0.4218978894254246,-218.22699652777777
0.4228745049102057,-194.22699652777777
0.42385112039498674,-189.22699652777777
0.4248277358797678,-173.22699652777777
0.42580435136454886,-61.22699652777777
0.42678096684933,54.77300347222223
0.42775758233411104,84.77300347222223
0.4287341978188921,168.77300347222223
0.42971081330367317,229.77300347222223
0.4306874287884543,234.77300347222223
0.43166404427323535,212.77300347222223
0.4326406597580164,188.77300347222223
0.4336172752427975,196.77300347222223
0.4345938907275786,170.77300347222223
0.43557050621235965,45.77300347222223
0.4365471216971407,-58.22699652777777
0.4375237371819218,-93.22699652777777
0.43850035266670284,-170.22699652777777
0.43947696815148396,-210.22699652777777
0.440453583636265,-231.22699652777777
0.4414301991210461,-210.22699652777777
0.44240681460582715,-191.22699652777777
0.44338343009060827,-205.22699652777777
0.44436004557538933,-190.22699652777777
0.4453366610601704,-70.22699652777777
0.44631327654495145,52.77300347222223
0.44728989202973257,93.77300347222223
0.44826650751451363,178.77300347222223
0.4492431229992947,234.77300347222223
0.45021973848407576,260.77300347222223
0.4511963539688568,242.77300347222223
0.45217296945363794,181.77300347222223
0.453149584938419,173.77300347222223
0.45412620042320007,163.77300347222223
0.45510281590798113,55.77300347222223
0.45607943139276225,-56.22699652777777
0.4570560468775433,-91.22699652777777
0.45803266236232437,-166.22699652777777
0.45900927784710543,-220.22699652777777
0.45998589333188655,-244.22699652777777
0.4609625088166676,-219.22699652777777
0.4619391243014487,-187.22699652777777
0.46291573978622974,-192.22699652777777
0.4638923552710108,-205.22699652777777
0.4648689707557919,-77.22699652777777
0.465845586240573,48.77300347222223
0.46682220172535405,99.77300347222223
0.4677988172101351,195.77300347222223
0.4687754326949162,242.77300347222223
0.4697520481796973,273.77300347222223
0.47072866366447835,245.77300347222223
0.4717052791492594,173.77300347222223
0.47268189463404053,168.77300347222223
0.4736585101188216,149.77300347222223
0.47463512560360266,48.77300347222223
0.4756117410883837,-44.22699652777777
0.4765883565731648,-76.22699652777777
0.4775649720579459,-151.22699652777777
0.47854158754272696,-215.22699652777777
0.479518203027508,-268.22699652777777
0.4804948185122891,-233.22699652777777
0.4814714339970702,-195.22699652777777
0.48244804948185127,-202.22699652777777
0.48342466496663233,-190.22699652777777
0.4844012804514134,-59.22699652777777
0.4853778959361945,52.77300347222223
0.4863545114209756,82.77300347222223
0.48733112690575664,180.77300347222223
0.4883077423905377,236.77300347222223
0.48928435787531876,269.77300347222223
0.4902609733600999,240.77300347222223
0.49123758884488095,171.77300347222223
0.492214204329662,168.77300347222223
0.49319081981444307,175.77300347222223
0.4941674352992242,71.77300347222223
0.49514405078400525,-53.22699652777777
0.4961206662687863,-96.22699652777777
0.4970972817535674,-179.22699652777777
0.4980738972383485,-223.22699652777777
0.49905051272312956,-242.22699652777777
0.5000271282079106,-215.22699652777777
0.5010037436926917,-184.22699652777777
0.5019803591774727,-194.22699652777777
0.5029569746622539,-201.22699652777777
0.5039335901470349,-81.22699652777777
0.504910205631816,44.77300347222223
0.5058868211165971,81.77300347222223
0.5068634366013781,171.77300347222223
0.5078400520861592,241.77300347222223
0.5088166675709404,277.77300347222223
0.5097932830557214,238.77300347222223
0.5107698985405025,179.77300347222223
0.5117465140252835,185.77300347222223
0.5127231295100646,166.77300347222223
0.5136997449948457,49.77300347222223
0.5146763604796267,-43.22699652777777
0.5156529759644078,-76.22699652777777
0.5166295914491889,-171.22699652777777
0.51760620693397,-222.22699652777777
0.5185828224187511,-255.22699652777777
0.5195594379035321,-228.22699652777777
0.5205360533883132,-191.22699652777777
0.5215126688730943,-202.22699652777777
0.5224892843578753,-204.22699652777777
0.5234658998426565,-72.22699652777777
0.5244425153274375,55.77300347222223
0.5254191308122186,87.77300347222223
0.5263957462969997,181.77300347222223
0.5273723617817807,258.77300347222223
0.5283489772665618,272.77300347222223
0.5293255927513428,250.77300347222223
0.530302208236124,180.77300347222223
0.5312788237209051,176.77300347222223
0.5322554392056861,161.77300347222223
0.5332320546904672,55.77300347222223
0.5342086701752483,-52.22699652777777
0.5351852856600293,-93.22699652777777
0.5361619011448104,-179.22699652777777
0.5371385166295914,-220.22699652777777
0.5381151321143726,-240.22699652777777
0.5390917475991537,-227.22699652777777
0.5400683630839347,-206.22699652777777
0.5410449785687158,-210.22699652777777
0.5420215940534968,-194.22699652777777
0.5429982095382779,-72.22699652777777
0.543974825023059,47.77300347222223
0.5449514405078401,91.77300347222223
0.5459280559926212,181.77300347222223
0.5469046714774023,247.77300347222223
0.5478812869621833,272.77300347222223
0.5488579024469644,249.77300347222223
0.5498345179317454,180.77300347222223
0.5508111334165265,186.77300347222223
0.5517877489013077,179.77300347222223
0.5527643643860887,44.77300347222223
0.5537409798708698,-77.22699652777777
0.5547175953556508,-102.22699652777777
0.5556942108404319,-159.22699652777777
0.556670826325213,-207.22699652777777
0.557647441809994,-243.22699652777777
0.5586240572947752,-219.22699652777777
0.5596006727795563,-190.22699652777777
0.5605772882643373,-207.22699652777777
0.5615539037491184,-193.22699652777777
0.5625305192338994,-75.22699652777777
0.5635071347186805,44.77300347222223
0.5644837502034616,93.77300347222223
0.5654603656882426,195.77300347222223
0.5664369811730238,249.77300347222223
0.5674135966578048,269.77300347222223
0.5683902121425859,255.77300347222223
0.569366827627367,188.77300347222223
0.570343443112148,180.77300347222223
0.5713200585969291,168.77300347222223
0.5722966740817103,47.77300347222223
0.5732732895664913,-68.22699652777777
0.5742499050512724,-97.22699652777777
0.5752265205360534,-178.22699652777777
0.5762031360208345,-225.22699652777777
0.5771797515056156,-236.22699652777777
0.5781563669903966,-224.22699652777777
0.5791329824751777,-199.22699652777777
0.5801095979599588,-189.22699652777777
0.5810862134447399,-183.22699652777777
0.582062828929521,-69.22699652777777
0.583039444414302,55.77300347222223
0.5840160598990831,101.77300347222223
0.5849926753838642,181.77300347222223
0.5859692908686452,223.77300347222223
0.5869459063534264,258.77300347222223
0.5879225218382074,247.77300347222223
0.5888991373229885,181.77300347222223
0.5898757528077696,183.77300347222223
0.5908523682925506,171.77300347222223
0.5918289837773317,60.77300347222223
0.5928055992621127,-46.22699652777777
0.5937822147468939,-91.22699652777777
0.594758830231675,-180.22699652777777
0.595735445716456,-231.22699652777777
0.5967120612012371,-247.22699652777777
0.5976886766860182,-221.22699652777777
0.5986652921707992,-184.22699652777777
0.5996419076555803,-203.22699652777777
0.6006185231403613,-192.22699652777777
0.6015951386251425,-74.22699652777777
0.6025717541099236,60.77300347222223
0.6035483695947046,102.77300347222223
0.6045249850794857,183.77300347222223
0.6055016005642667,229.77300347222223
0.6064782160490478,239.77300347222223
0.607454831533829,240.77300347222223
0.60843144701861,193.77300347222223
0.6094080625033911,193.77300347222223
0.6103846779881722,182.77300347222223
0.6113612934729532,60.77300347222223
0.6123379089577343,-58.22699652777777
0.6133145244425153,-100.22699652777777
0.6142911399272964,-183.22699652777777
0.6152677554120776,-222.22699652777777
0.6162443708968586,-244.22699652777777
0.6172209863816397,-236.22699652777777
0.6181976018664207,-203.22699652777777
0.6191742173512018,-196.22699652777777
0.6201508328359829,-183.22699652777777
0.6211274483207639,-61.22699652777777
0.6221040638055451,55.77300347222223
0.6230806792903262,90.77300347222223
0.6240572947751072,171.77300347222223
0.6250339102598883,229.77300347222223
0.6260105257446693,262.77300347222223
0.6269871412294504,256.77300347222223
0.6279637567142315,198.77300347222223
0.6289403721990126,181.77300347222223
0.6299169876837937,169.77300347222223
0.6308936031685747,58.77300347222223
0.6318702186533558,-55.22699652777777
0.6328468341381369,-118.22699652777777
0.6338234496229179,-186.22699652777777
0.634800065107699,-203.22699652777777
0.6357766805924802,-227.22699652777777
0.6367532960772612,-219.22699652777777
0.6377299115620423,-212.22699652777777
0.6387065270468233,-206.22699652777777
0.6396831425316044,-191.22699652777777
0.6406597580163855,-65.22699652777777
0.6416363735011665,44.77300347222223
0.6426129889859477,88.77300347222223
0.6435896044707287,179.77300347222223
0.6445662199555098,236.77300347222223
0.6455428354402909,271.77300347222223
0.6465194509250719,252.77300347222223
0.647496066409853,190.77300347222223
0.6484726818946341,184.77300347222223
0.6494492973794151,171.77300347222223
0.6504259128641963,50.77300347222223
0.6514025283489773,-58.22699652777777
0.6523791438337584,-95.22699652777777
0.6533557593185395,-173.22699652777777
0.6543323748033205,-225.22699652777777
0.6553089902881016,-244.22699652777777
0.6562856057728826,-219.22699652777777
0.6572622212576638,-197.22699652777777
0.6582388367424449,-200.22699652777777
0.6592154522272259,-187.22699652777777
0.660192067712007,-67.22699652777777
0.6611686831967881,58.77300347222223
0.6621452986815691,93.77300347222223
0.6631219141663502,180.77300347222223
0.6640985296511313,240.77300347222223
0.6650751451359124,262.77300347222223
0.6660517606206935,232.77300347222223
0.6670283761054745,171.77300347222223
0.6680049915902556,170.77300347222223
0.6689816070750366,173.77300347222223
0.6699582225598177,61.77300347222223
0.6709348380445989,-53.22699652777777
0.6719114535293799,-90.22699652777777
0.672888069014161,-177.22699652777777
0.6738646844989421,-222.22699652777777
0.6748412999837231,-237.22699652777777
0.6758179154685042,-221.22699652777777
0.6767945309532852,-198.22699652777777
0.6777711464380664,-199.22699652777777
0.6787477619228475,-188.22699652777777
0.6797243774076285,-66.22699652777777
0.6807009928924096,51.77300347222223
0.6816776083771906,83.77300347222223
0.6826542238619717,175.77300347222223
0.6836308393467528,238.77300347222223
0.6846074548315338,257.77300347222223
0.685584070316315,239.77300347222223
0.6865606858010961,186.77300347222223
0.6875373012858771,180.77300347222223
0.6885139167706582,178.77300347222223
0.6894905322554392,58.77300347222223
0.6904671477402203,-54.22699652777777
0.6914437632250015,-100.22699652777777
0.6924203787097825,-179.22699652777777
0.6933969941945636,-216.22699652777777
0.6943736096793446,-236.22699652777777
0.6953502251641257,-216.22699652777777
0.6963268406489068,-196.22699652777777
0.6973034561336878,-191.22699652777777
0.698280071618469,-200.22699652777777
0.6992566871032501,-79.22699652777777
0.7002333025880311,49.77300347222223
0.7012099180728122,98.77300347222223
0.7021865335575932,183.77300347222223
0.7031631490423743,243.77300347222223
0.7041397645271554,258.77300347222223
0.7051163800119364,234.77300347222223
0.7060929954967176,180.77300347222223
0.7070696109814986,176.77300347222223
0.7080462264662797,163.77300347222223
0.7090228419510608,50.77300347222223
0.7099994574358418,-57.22699652777777
0.7109760729206229,-92.22699652777777
0.711952688405404,-170.22699652777777
0.712929303890185,-219.22699652777777
0.7139059193749662,-236.22699652777777
0.7148825348597472,-214.22699652777777
0.7158591503445283,-186.22699652777777
0.7168357658293094,-196.22699652777777
0.7178123813140904,-189.22699652777777
0.7187889967988715,-66.22699652777777
0.7197656122836525,49.77300347222223
0.7207422277684337,87.77300347222223
0.7217188432532148,180.77300347222223
0.7226954587379958,243.77300347222223
0.7236720742227769,264.77300347222223
0.724648689707558,250.77300347222223
0.725625305192339,179.77300347222223
0.7266019206771201,157.77300347222223
0.7275785361619012,146.77300347222223
0.7285551516466823,32.77300347222223
0.7295317671314634,-78.22699652777777
0.7305083826162444,-88.22699652777777
0.7314849981010255,-149.22699652777777
0.7324616135858065,-194.22699652777777
0.7334382290705876,-220.22699652777777
0.7344148445553688,-211.22699652777777
0.7353914600401498,-201.22699652777777
0.7363680755249309,-209.22699652777777
0.737344691009712,-196.22699652777777
0.738321306494493,-59.22699652777777
0.7392979219792741,58.77300347222223
0.7402745374640551,88.77300347222223
0.7412511529488363,179.77300347222223
0.7422277684336174,233.77300347222223
0.7432043839183984,253.77300347222223
0.7441809994031795,232.77300347222223
0.7451576148879605,179.77300347222223
0.7461342303727416,179.77300347222223
0.7471108458575227,174.77300347222223
0.7480874613423038,54.77300347222223
0.7490640768270849,-52.22699652777777
0.7500406923118659,-80.22699652777777
0.751017307796647,-149.22699652777777
0.7519939232814281,-213.22699652777777
0.7529705387662091,-249.22699652777777
0.7539471542509902,-249.22699652777777
0.7549237697357714,-215.22699652777777
0.7559003852205524,-194.22699652777777
0.7568770007053335,-173.22699652777777
0.7578536161901145,-55.22699652777777
0.7588302316748956,52.77300347222223
0.7598068471596767,87.77300347222223
0.7607834626444577,186.77300347222223
0.7617600781292388,235.77300347222223
0.7627366936140199,264.77300347222223
0.763713309098801,239.77300347222223
0.7646899245835821,180.77300347222223
0.7656665400683631,168.77300347222223
0.7666431555531442,151.77300347222223
0.7676197710379253,43.77300347222223
0.7685963865227063,-64.22699652777777
0.7695730020074875,-84.22699652777777
0.7705496174922685,-152.22699652777777
0.7715262329770496,-197.22699652777777
0.7725028484618307,-239.22699652777777
0.7734794639466117,-215.22699652777777
0.7744560794313928,-185.22699652777777
0.7754326949161738,-197.22699652777777
0.776409310400955,-197.22699652777777
0.7773859258857361,-74.22699652777777
0.7783625413705171,48.77300347222223
0.7793391568552982,89.77300347222223
0.7803157723400793,175.77300347222223
0.7812923878248603,232.77300347222223
0.7822690033096414,253.77300347222223
0.7832456187944224,237.77300347222223
0.7842222342792036,180.77300347222223
0.7851988497639847,172.77300347222223
0.7861754652487657,163.77300347222223
0.7871520807335468,48.77300347222223
0.7881286962183278,-58.22699652777777
0.7891053117031089,-90.22699652777777
0.79008192718789,-167.22699652777777
0.7910585426726711,-211.22699652777777
0.7920351581574522,-222.22699652777777
0.7930117736422333,-200.22699652777777
0.7939883891270143,-184.22699652777777
0.7949650046117954,-189.22699652777777
0.7959416200965764,-185.22699652777777
0.7969182355813575,-74.22699652777777
0.7978948510661387,56.77300347222223
0.7988714665509197,85.77300347222223
0.7998480820357008,160.77300347222223
0.8008246975204818,231.77300347222223
0.8018013130052629,251.77300347222223
0.802777928490044,244.77300347222223
0.803754543974825,188.77300347222223
0.8047311594596062,172.77300347222223
0.8057077749443873,154.77300347222223
0.8066843904291683,50.77300347222223
0.8076610059139494,-61.22699652777777
0.8086376213987304,-94.22699652777777
0.8096142368835115,-173.22699652777777
0.8105908523682926,-210.22699652777777
0.8115674678530737,-232.22699652777777
0.8125440833378548,-212.22699652777777
0.8135206988226358,-187.22699652777777
0.8144973143074169,-190.22699652777777
0.815473929792198,-176.22699652777777
0.816450545276979,-55.22699652777777
0.8174271607617601,52.77300347222223
0.8184037762465413,84.77300347222223
0.8193803917313223,175.77300347222223
0.8203570072161034,229.77300347222223
0.8213336227008844,258.77300347222223
0.8223102381856655,227.77300347222223
0.8232868536704466,168.77300347222223
0.8242634691552276,173.77300347222223
0.8252400846400088,168.77300347222223
0.8262167001247898,53.77300347222223
0.8271933156095709,-56.22699652777777
0.828169931094352,-92.22699652777777
0.829146546579133,-166.22699652777777
0.8301231620639141,-214.22699652777777
0.8310997775486952,-227.22699652777777
0.8320763930334762,-204.22699652777777
0.8330530085182574,-188.22699652777777
0.8340296240030384,-193.22699652777777
0.8350062394878195,-181.22699652777777
0.8359828549726006,-66.22699652777777
0.8369594704573816,47.77300347222223
0.8379360859421627,85.77300347222223
0.8389127014269437,171.77300347222223
0.8398893169117249,226.77300347222223
0.840865932396506,252.77300347222223
0.841842547881287,230.77300347222223
0.8428191633660681,176.77300347222223
0.8437957788508492,176.77300347222223
0.8447723943356302,162.77300347222223
0.8457490098204113,48.77300347222223
0.8467256253051924,-56.22699652777777
0.8477022407899735,-90.22699652777777
0.8486788562747546,-172.22699652777777
0.8496554717595356,-209.22699652777777
0.8506320872443167,-224.22699652777777
0.8516087027290977,-210.22699652777777
0.8525853182138788,-183.22699652777777
0.85356193369866,-195.22699652777777
0.854538549183441,-182.22699652777777
0.8555151646682221,-67.22699652777777
0.8564917801530032,51.77300347222223
0.8574683956377842,87.77300347222223
0.8584450111225653,168.77300347222223
0.8594216266073463,230.77300347222223
0.8603982420921275,252.77300347222223
0.8613748575769086,229.77300347222223
0.8623514730616896,176.77300347222223
0.8633280885464707,163.77300347222223
0.8643047040312517,160.77300347222223
0.8652813195160328,53.77300347222223
0.8662579350008139,-51.22699652777777
0.867234550485595,-88.22699652777777
0.8682111659703761,-166.22699652777777
0.8691877814551572,-210.22699652777777
0.8701643969399382,-229.22699652777777
0.8711410124247193,-208.22699652777777
0.8721176279095003,-188.22699652777777
0.8730942433942814,-194.22699652777777
0.8740708588790626,-186.22699652777777
0.8750474743638436,-66.22699652777777
0.8760240898486247,50.77300347222223
0.8770007053334057,84.77300347222223
0.8779773208181868,174.77300347222223
0.8789539363029679,230.77300347222223
0.8799305517877489,248.77300347222223
0.88090716727253,232.77300347222223
0.8818837827573112,179.77300347222223
0.8828603982420922,174.77300347222223
0.8838370137268733,163.77300347222223
0.8848136292116543,51.77300347222223
0.8857902446964354,-55.22699652777777
0.8867668601812165,-90.22699652777777
0.8877434756659975,-164.22699652777777
0.8887200911507787,-211.22699652777777
0.8896967066355597,-229.22699652777777
0.8906733221203408,-210.22699652777777
0.8916499376051219,-188.22699652777777
0.8926265530899029,-191.22699652777777
0.893603168574684,-181.22699652777777
0.8945797840594651,-65.22699652777777
0.8955563995442462,48.77300347222223
0.8965330150290273,83.77300347222223
0.8975096305138083,172.77300347222223
0.8984862459985894,226.77300347222223
0.8994628614833705,256.77300347222223
0.9004394769681515,232.77300347222223
0.9014160924529326,172.77300347222223
0.9023927079377136,171.77300347222223
0.9033693234224948,164.77300347222223
0.9043459389072759,55.77300347222223
0.9053225543920569,-55.22699652777777
0.906299169876838,-89.22699652777777
0.9072757853616191,-170.22699652777777
0.9082524008464001,-209.22699652777777
0.9092290163311813,-227.22699652777777
0.9102056318159623,-209.22699652777777
0.9111822473007434,-185.22699652777777
0.9121588627855245,-191.22699652777777
0.9131354782703055,-182.22699652777777
0.9141120937550866,-64.22699652777777
0.9150887092398676,49.77300347222223
0.9160653247246487,82.77300347222223
0.9170419402094299,172.77300347222223
0.9180185556942109,226.77300347222223
0.918995171178992,250.77300347222223
0.9199717866637731,237.77300347222223
0.9209484021485541,176.77300347222223
0.9219250176333352,167.77300347222223
0.9229016331181162,157.77300347222223
0.9238782486028974,51.77300347222223
0.9248548640876785,-57.22699652777777
0.9258314795724595,-92.22699652777777
0.9268080950572406,-169.22699652777777
0.9277847105420216,-207.22699652777777
0.9287613260268027,-223.22699652777777
0.9297379415115838,-203.22699652777777
0.9307145569963649,-184.22699652777777
0.931691172481146,-191.22699652777777
0.9326677879659271,-180.22699652777777
0.9336444034507081,-66.22699652777777
0.9346210189354892,48.77300347222223
0.9355976344202702,87.77300347222223
0.9365742499050513,168.77300347222223
0.9375508653898325,229.77300347222223
0.9385274808746135,252.77300347222223
0.9395040963593946,230.77300347222223
0.9404807118441756,173.77300347222223
0.9414573273289567,162.77300347222223
0.9424339428137378,165.77300347222223
0.9434105582985188,46.77300347222223
0.9443871737833,-57.22699652777777
0.9453637892680811,-88.22699652777777
0.9463404047528621,-162.22699652777777
0.9473170202376432,-210.22699652777777
0.9482936357224242,-224.22699652777777
0.9492702512072053,-208.22699652777777
0.9502468666919864,-184.22699652777777
0.9512234821767674,-190.22699652777777
0.9522000976615486,-183.22699652777777
0.9531767131463296,-69.22699652777777
0.9541533286311107,47.77300347222223
0.9551299441158918,85.77300347222223
0.9561065596006728,168.77300347222223
0.9570831750854539,220.77300347222223
0.958059790570235,243.77300347222223
0.959036406055016,226.77300347222223
0.9600130215397972,162.77300347222223
0.9609896370245782,163.77300347222223
0.9619662525093593,158.77300347222223
0.9629428679941404,47.77300347222223
0.9639194834789214,-56.22699652777777
0.9648960989637025,-87.22699652777777
0.9658727144484835,-165.22699652777777
0.9668493299332647,-204.22699652777777
0.9678259454180458,-222.22699652777777
0.9688025609028268,-203.22699652777777
0.9697791763876079,-184.22699652777777
0.970755791872389,-187.22699652777777
0.97173240735717,-185.22699652777777
0.9727090228419512,-66.22699652777777
0.9736856383267322,48.77300347222223
0.9746622538115133,83.77300347222223
0.9756388692962944,174.77300347222223
0.9766154847810754,226.77300347222223
0.9775921002658565,250.77300347222223
0.9785687157506375,223.77300347222223
0.9795453312354186,162.77300347222223
0.9805219467201998,163.77300347222223
0.9814985622049808,152.77300347222223
0.9824751776897619,39.77300347222223
0.983451793174543,-57.22699652777777
0.984428408659324,-87.22699652777777
0.9854050241441051,-159.22699652777777
0.9863816396288861,-203.22699652777777
0.9873582551136673,-221.22699652777777
0.9883348705984484,-200.22699652777777
0.9893114860832294,-173.22699652777777
0.9902881015680105,-180.22699652777777
0.9912647170527915,-177.22699652777777
0.9922413325375726,-62.22699652777777
0.9932179480223537,49.77300347222223
0.9941945635071348,91.77300347222223
0.9951711789919159,163.77300347222223
0.996147794476697,211.77300347222223
0.997124409961478,240.77300347222223
0.9981010254462591,220.77300347222223
0.9990776409310401,168.77300347222223
1.0000542564158212,163.77300347222223
1.0010308719006022,155.77300347222223
1.0020074873853835,49.77300347222223
1.0029841028701645,-52.22699652777777
1.0039607183549455,-82.22699652777777
1.0049373338397267,-160.22699652777777
1.0059139493245077,-202.22699652777777
1.0068905648092887,-219.22699652777777
1.0078671802940697,-198.22699652777777
1.008843795778851,-174.22699652777777
1.009820411263632,-178.22699652777777
1.010797026748413,-175.22699652777777
1.0117736422331942,-63.22699652777777
1.0127502577179752,48.77300347222223
1.0137268732027562,79.77300347222223
1.0147034886875375,162.77300347222223
1.0156801041723185,215.77300347222223
1.0166567196570995,235.77300347222223
1.0176333351418807,220.77300347222223
1.0186099506266617,168.77300347222223
1.0195865661114427,166.77300347222223
1.0205631815962237,156.77300347222223
1.021539797081005,43.77300347222223
1.022516412565786,-62.22699652777777
1.023493028050567,-89.22699652777777
1.0244696435353482,-162.22699652777777
1.0254462590201292,-202.22699652777777
1.0264228745049102,-214.22699652777777
1.0273994899896914,-191.22699652777777
1.0283761054744724,-165.22699652777777
1.0293527209592535,-180.22699652777777
1.0303293364440347,-176.22699652777777
1.0313059519288157,-63.22699652777777
1.0322825674135967,52.77300347222223
1.0332591828983777,85.77300347222223
1.034235798383159,160.77300347222223
1.03521241386794,217.77300347222223
1.036189029352721,240.77300347222223
1.0371656448375022,221.77300347222223
1.0381422603222832,167.77300347222223
1.0391188758070642,165.77300347222223
1.0400954912918454,150.77300347222223
1.0410721067766264,44.77300347222223
1.0420487222614074,-56.22699652777777
1.0430253377461887,-84.22699652777777
1.0440019532309697,-158.22699652777777
1.0449785687157507,-199.22699652777777
1.0459551842005317,-218.22699652777777
1.046931799685313,-194.22699652777777
1.047908415170094,-163.22699652777777
1.048885030654875,-170.22699652777777
1.0498616461396562,-167.22699652777777
1.0508382616244372,-54.22699652777777
1.0518148771092182,47.77300347222223
1.0527914925939994,81.77300347222223
1.0537681080787804,157.77300347222223
1.0547447235635614,207.77300347222223
1.0557213390483426,229.77300347222223
1.0566979545331237,203.77300347222223
1.0576745700179047,153.77300347222223
1.0586511855026857,152.77300347222223
1.059627800987467,149.77300347222223
1.060604416472248,52.77300347222223
1.061581031957029,-51.22699652777777
1.0625576474418101,-82.22699652777777
1.0635342629265911,-154.22699652777777
1.0645108784113722,-196.22699652777777
1.0654874938961534,-218.22699652777777
1.0664641093809344,-183.22699652777777
1.0674407248657154,-160.22699652777777
1.0684173403504966,-163.22699652777777
1.0693939558352776,-161.22699652777777
1.0703705713200586,-56.22699652777777
1.0713471868048396,40.77300347222223
1.0723238022896209,74.77300347222223
1.0733004177744019,160.77300347222223
1.074277033259183,211.77300347222223
1.0752536487439641,232.77300347222223
1.0762302642287451,210.77300347222223
1.0772068797135261,156.77300347222223
1.0781834951983074,156.77300347222223
1.0791601106830884,152.77300347222223
1.0801367261678694,46.77300347222223
1.0811133416526506,-51.22699652777777
1.0820899571374316,-80.22699652777777
1.0830665726222126,-155.22699652777777
1.0840431881069936,-196.22699652777777
1.0850198035917749,-212.22699652777777
1.0859964190765559,-192.22699652777777
1.0869730345613369,-168.22699652777777
1.087949650046118,-173.22699652777777
1.088926265530899,-170.22699652777777
1.0899028810156801,-60.22699652777777
1.0908794965004613,45.77300347222223
1.0918561119852424,83.77300347222223
1.0928327274700234,164.77300347222223
1.0938093429548046,212.77300347222223
1.0947859584395856,240.77300347222223
1.0957625739243666,213.77300347222223
1.0967391894091476,163.77300347222223
1.0977158048939288,156.77300347222223
1.0986924203787098,154.77300347222223
1.0996690358634909,47.77300347222223
1.100645651348272,-53.22699652777777
1.101622266833053,-80.22699652777777
1.102598882317834,-154.22699652777777
1.1035754978026153,-196.22699652777777
1.1045521132873963,-217.22699652777777
1.1055287287721773,-192.22699652777777
1.1065053442569586,-173.22699652777777
1.1074819597417396,-176.22699652777777
1.1084585752265206,-171.22699652777777
1.1094351907113016,-60.22699652777777
1.1104118061960828,44.77300347222223
1.1113884216808638,80.77300347222223
1.1123650371656448,155.77300347222223
1.113341652650426,212.77300347222223
1.114318268135207,235.77300347222223
1.115294883619988,213.77300347222223
1.1162714991047693,158.77300347222223
1.1172481145895503,162.77300347222223
1.1182247300743313,158.77300347222223
1.1192013455591125,53.77300347222223
1.1201779610438936,-44.22699652777777
1.1211545765286746,-80.22699652777777
1.1221311920134556,-159.22699652777777
1.1231078074982368,-199.22699652777777
1.1240844229830178,-219.22699652777777
1.1250610384677988,-193.22699652777777
1.12603765395258,-172.22699652777777
1.127014269437361,-176.22699652777777
1.127990884922142,-172.22699652777777
1.1289675004069233,-58.22699652777777
1.1299441158917043,45.77300347222223
1.1309207313764853,77.77300347222223
1.1318973468612665,153.77300347222223
1.1328739623460475,209.77300347222223
1.1338505778308285,240.77300347222223
1.1348271933156096,215.77300347222223
1.1358038088003908,166.77300347222223
1.1367804242851718,160.77300347222223
1.1377570397699528,155.77300347222223
1.138733655254734,53.77300347222223
1.139710270739515,-50.22699652777777
1.140686886224296,-81.22699652777777
1.1416635017090773,-155.22699652777777
1.1426401171938583,-194.22699652777777
1.1436167326786393,-217.22699652777777
1.1445933481634205,-197.22699652777777
1.1455699636482015,-176.22699652777777
1.1465465791329825,-185.22699652777777
1.1475231946177635,-176.22699652777777
1.1484998101025448,-60.22699652777777
1.1494764255873258,46.77300347222223
1.1504530410721068,83.77300347222223
1.151429656556888,163.77300347222223
1.152406272041669,219.77300347222223
1.15338288752645,240.77300347222223
1.1543595030112312,224.77300347222223
1.1553361184960123,171.77300347222223
1.1563127339807933,169.77300347222223
1.1572893494655745,161.77300347222223
1.1582659649503555,48.77300347222223
1.1592425804351365,-56.22699652777777
1.1602191959199175,-87.22699652777777
1.1611958114046987,-164.22699652777777
1.1621724268894797,-203.22699652777777
1.1631490423742608,-225.22699652777777
1.164125657859042,-200.22699652777777
1.165102273343823,-180.22699652777777
1.166078888828604,-181.22699652777777
1.1670555043133852,-175.22699652777777
1.1680321197981662,-61.22699652777777
1.1690087352829472,52.77300347222223
1.1699853507677285,85.77300347222223
1.1709619662525095,170.77300347222223
1.1719385817372905,224.77300347222223
1.1729151972220715,253.77300347222223
1.1738918127068527,222.77300347222223
1.1748684281916337,165.77300347222223
1.1758450436764147,163.77300347222223
1.176821659161196,158.77300347222223
1.177798274645977,43.77300347222223
1.178774890130758,-58.22699652777777
1.1797515056155392,-87.22699652777777
1.1807281211003202,-167.22699652777777
1.1817047365851012,-210.22699652777777
1.1826813520698825,-224.22699652777777
1.1836579675546635,-200.22699652777777
1.1846345830394445,-181.22699652777777
1.1856111985242255,-188.22699652777777
1.1865878140090067,-176.22699652777777
1.1875644294937877,-59.22699652777777
1.1885410449785687,47.77300347222223
1.18951766046335,92.77300347222223
1.190494275948131,173.77300347222223
1.191470891432912,231.77300347222223
1.1924475069176932,255.77300347222223
1.1934241224024742,227.77300347222223
1.1944007378872552,174.77300347222223
1.1953773533720364,169.77300347222223
1.1963539688568174,156.77300347222223
1.1973305843415984,43.77300347222223
1.1983071998263795,-58.22699652777777
1.1992838153111607,-93.22699652777777
1.2002604307959417,-166.22699652777777
1.2012370462807227,-211.22699652777777
1.202213661765504,-224.22699652777777
1.203190277250285,-206.22699652777777
1.204166892735066,-192.22699652777777
1.2051435082198472,-191.22699652777777
1.2061201237046282,-184.22699652777777
1.2070967391894092,-59.22699652777777
1.2080733546741904,56.77300347222223
1.2090499701589714,93.77300347222223
1.2100265856437524,176.77300347222223
1.2110032011285334,224.77300347222223
1.2119798166133147,257.77300347222223
1.2129564320980957,229.77300347222223
1.2139330475828767,173.77300347222223
1.214909663067658,175.77300347222223
1.215886278552439,159.77300347222223
1.21686289403722,47.77300347222223
1.2178395095220012,-56.22699652777777
1.2188161250067822,-97.22699652777777
1.2197927404915632,-174.22699652777777
1.2207693559763444,-218.22699652777777
1.2217459714611254,-233.22699652777777
1.2227225869459064,-209.22699652777777
1.2236992024306874,-190.22699652777777
1.2246758179154686,-191.22699652777777
1.2256524334002497,-179.22699652777777
1.2266290488850307,-59.22699652777777
1.2276056643698119,53.77300347222223
1.228582279854593,92.77300347222223
1.229558895339374,178.77300347222223
1.2305355108241551,232.77300347222223
1.2315121263089361,260.77300347222223
1.2324887417937171,235.77300347222223
1.2334653572784984,178.77300347222223
1.2344419727632794,176.77300347222223
1.2354185882480604,163.77300347222223
1.2363952037328414,49.77300347222223
1.2373718192176226,-59.22699652777777
1.2383484347024036,-95.22699652777777
1.2393250501871846,-172.22699652777777
1.2403016656719659,-214.22699652777777
1.2412782811567469,-236.22699652777777
1.2422548966415279,-215.22699652777777
1.2432315121263091,-196.22699652777777
1.2442081276110901,-196.22699652777777
1.2451847430958711,-188.22699652777777
1.2461613585806524,-65.22699652777777
1.2471379740654334,50.77300347222223
1.2481145895502144,94.77300347222223
1.2490912050349954,184.77300347222223
1.2500678205197766,244.77300347222223
1.2510444360045576,266.77300347222223
1.2520210514893386,234.77300347222223
1.2529976669741199,181.77300347222223
1.2539742824589009,176.77300347222223
1.2549508979436819,165.77300347222223
1.255927513428463,45.77300347222223
1.256904128913244,-60.22699652777777
1.257880744398025,-97.22699652777777
1.2588573598828063,-175.22699652777777
1.2598339753675873,-222.22699652777777
1.2608105908523684,-238.22699652777777
1.2617872063371494,-213.22699652777777
1.2627638218219306,-196.22699652777777
1.2637404373067116,-202.22699652777777
1.2647170527914926,-185.22699652777777
1.2656936682762738,-66.22699652777777
1.2666702837610548,53.77300347222223
1.2676468992458358,97.77300347222223
1.268623514730617,185.77300347222223
1.269600130215398,243.77300347222223
1.270576745700179,270.77300347222223
1.2715533611849603,243.77300347222223
1.2725299766697413,191.77300347222223
1.2735065921545223,179.77300347222223
1.2744832076393033,165.77300347222223
1.2754598231240846,46.77300347222223
1.2764364386088656,-59.22699652777777
1.2774130540936466,-98.22699652777777
1.2783896695784278,-181.22699652777777
1.2793662850632088,-225.22699652777777
1.2803429005479898,-247.22699652777777
1.281319516032771,-217.22699652777777
1.282296131517552,-196.22699652777777
1.283272747002333,-195.22699652777777
1.2842493624871143,-187.22699652777777
1.2852259779718953,-63.22699652777777
1.2862025934566763,58.77300347222223
1.2871792089414573,96.77300347222223
1.2881558244262385,189.77300347222223
1.2891324399110196,242.77300347222223
1.2901090553958006,269.77300347222223
1.2910856708805818,239.77300347222223
1.2920622863653628,186.77300347222223
1.2930389018501438,176.77300347222223
1.294015517334925,164.77300347222223
1.294992132819706,47.77300347222223
1.295968748304487,-56.22699652777777
1.2969453637892683,-94.22699652777777
1.2979219792740493,-177.22699652777777
1.2988985947588303,-232.22699652777777
1.2998752102436113,-243.22699652777777
1.3008518257283925,-216.22699652777777
1.3018284412131735,-200.22699652777777
1.3028050566979545,-205.22699652777777
1.3037816721827358,-190.22699652777777
1.3047582876675168,-66.22699652777777
1.3057349031522978,56.77300347222223
1.306711518637079,99.77300347222223
1.30768813412186,190.77300347222223
1.308664749606641,248.77300347222223
1.3096413650914223,273.77300347222223
1.3106179805762033,240.77300347222223
1.3115945960609843,188.77300347222223
1.3125712115457653,185.77300347222223
1.3135478270305465,164.77300347222223
1.3145244425153275,50.77300347222223
1.3155010580001085,-62.22699652777777
1.3164776734848898,-103.22699652777777
1.3174542889696708,-181.22699652777777
1.3184309044544518,-232.22699652777777
1.319407519939233,-250.22699652777777
1.320384135424014,-224.22699652777777
1.321360750908795,-203.22699652777777
1.3223373663935762,-206.22699652777777
1.3233139818783572,-193.22699652777777
1.3242905973631383,-63.22699652777777
1.3252672128479193,59.77300347222223
1.3262438283327005,100.77300347222223
1.3272204438174815,185.77300347222223
1.3281970593022625,245.77300347222223
1.3291736747870437,276.77300347222223
1.3301502902718247,247.77300347222223
1.3311269057566057,193.77300347222223
1.332103521241387,184.77300347222223
1.333080136726168,165.77300347222223
1.334056752210949,47.77300347222223
1.3350333676957302,-63.22699652777777
1.3360099831805112,-106.22699652777777
1.3369865986652922,-186.22699652777777
1.3379632141500732,-231.22699652777777
1.3389398296348545,-248.22699652777777
1.3399164451196355,-220.22699652777777
1.3408930606044165,-202.22699652777777
1.3418696760891977,-208.22699652777777
1.3428462915739787,-195.22699652777777
1.3438229070587597,-70.22699652777777
1.344799522543541,57.77300347222223
1.345776138028322,98.77300347222223
1.346752753513103,188.77300347222223
1.3477293689978842,247.77300347222223
1.3487059844826652,276.77300347222223
1.3496825999674462,245.77300347222223
1.3506592154522272,191.77300347222223
1.3516358309370085,182.77300347222223
1.3526124464217895,172.77300347222223
1.3535890619065705,50.77300347222223
1.3545656773913517,-62.22699652777777
1.3555422928761327,-100.22699652777777
1.3565189083609137,-180.22699652777777
1.357495523845695,-225.22699652777777
1.358472139330476,-249.22699652777777
1.359448754815257,-216.22699652777777
1.3604253703000382,-200.22699652777777
1.3614019857848192,-206.22699652777777
1.3623786012696002,-193.22699652777777
1.3633552167543812,-61.22699652777777
1.3643318322391624,55.77300347222223
1.3653084477239434,98.77300347222223
1.3662850632087244,191.77300347222223
1.3672616786935057,248.77300347222223
1.3682382941782867,274.77300347222223
1.3692149096630677,249.77300347222223
1.370191525147849,192.77300347222223
1.37116814063263,186.77300347222223
1.372144756117411,168.77300347222223
1.3731213716021922,44.77300347222223
1.3740979870869732,-67.22699652777777
1.3750746025717542,-105.22699652777777
1.3760512180565352,-183.22699652777777
1.3770278335413164,-233.22699652777777
1.3780044490260974,-252.22699652777777
1.3789810645108784,-219.22699652777777
1.3799576799956597,-200.22699652777777
1.3809342954804407,-198.22699652777777
1.3819109109652217,-192.22699652777777
1.382887526450003,-59.22699652777777
1.383864141934784,55.77300347222223
1.384840757419565,97.77300347222223
1.3858173729043461,185.77300347222223
1.3867939883891272,245.77300347222223
1.3877706038739082,272.77300347222223
1.3887472193586892,246.77300347222223
1.3897238348434704,188.77300347222223
1.3907004503282514,180.77300347222223
1.3916770658130324,167.77300347222223
1.3926536812978136,46.77300347222223
1.3936302967825946,-58.22699652777777
1.3946069122673757,-95.22699652777777
1.3955835277521569,-178.22699652777777
1.396560143236938,-227.22699652777777
1.397536758721719,-245.22699652777777
1.3985133742065001,-215.22699652777777
1.3994899896912811,-196.22699652777777
1.4004666051760621,-202.22699652777777
1.4014432206608431,-183.22699652777777
1.4024198361456244,-61.22699652777777
1.4033964516304054,53.77300347222223
1.4043730671151864,90.77300347222223
1.4053496825999676,181.77300347222223
1.4063262980847486,237.77300347222223
1.4073029135695296,268.77300347222223
1.4082795290543109,238.77300347222223
1.4092561445390919,183.77300347222223
1.4102327600238729,180.77300347222223
1.411209375508654,168.77300347222223
1.4121859909934351,50.77300347222223
1.4131626064782161,-67.22699652777777
1.4141392219629971,-102.22699652777777
1.4151158374477784,-174.22699652777777
1.4160924529325594,-216.22699652777777
1.4170690684173404,-236.22699652777777
1.4180456839021216,-210.22699652777777
1.4190222993869026,-191.22699652777777
1.4199989148716836,-191.22699652777777
1.4209755303564648,-180.22699652777777
1.4219521458412459,-59.22699652777777
1.4229287613260269,54.77300347222223
1.423905376810808,92.77300347222223
1.424881992295589,178.77300347222223
1.42585860778037,228.77300347222223
1.426835223265151,256.77300347222223
1.4278118387499323,231.77300347222223
1.4287884542347133,179.77300347222223
1.4297650697194944,171.77300347222223
1.4307416852042756,156.77300347222223
1.4317183006890566,44.77300347222223
1.4326949161738376,-63.22699652777777
1.4336715316586188,-96.22699652777777
1.4346481471433998,-170.22699652777777
1.4356247626281808,-213.22699652777777
1.436601378112962,-232.22699652777777
1.437577993597743,-206.22699652777777
1.438554609082524,-185.22699652777777
1.439531224567305,-190.22699652777777
1.4405078400520863,-176.22699652777777
1.4414844555368673,-54.22699652777777
1.4424610710216483,55.77300347222223
1.4434376865064296,90.77300347222223
1.4444143019912106,176.77300347222223
1.4453909174759916,234.77300347222223
1.4463675329607728,256.77300347222223
1.4473441484455538,226.77300347222223
1.4483207639303348,176.77300347222223
1.449297379415116,173.77300347222223
1.450273994899897,161.77300347222223
1.451250610384678,42.77300347222223
1.452227225869459,-60.22699652777777
1.4532038413542403,-95.22699652777777
1.4541804568390213,-167.22699652777777
1.4551570723238023,-212.22699652777777
1.4561336878085835,-229.22699652777777
1.4571103032933646,-206.22699652777777
1.4580869187781456,-192.22699652777777
1.4590635342629268,-191.22699652777777
1.4600401497477078,-184.22699652777777
1.4610167652324888,-59.22699652777777
1.46199338071727,58.77300347222223
1.462969996202051,96.77300347222223
1.463946611686832,174.77300347222223
1.464923227171613,234.77300347222223
1.4658998426563943,258.77300347222223
1.4668764581411753,229.77300347222223
1.4678530736259563,171.77300347222223
1.4688296891107375,164.77300347222223
1.4698063045955185,157.77300347222223
1.4707829200802995,46.77300347222223
1.4717595355650808,-64.22699652777777
1.4727361510498618,-97.22699652777777
1.4737127665346428,-168.22699652777777
1.474689382019424,-208.22699652777777
1.475665997504205,-223.22699652777777
1.476642612988986,-205.22699652777777
1.477619228473767,-187.22699652777777
1.4785958439585483,-186.22699652777777
1.4795724594433293,-174.22699652777777
1.4805490749281103,-59.22699652777777
1.4815256904128915,56.77300347222223
1.4825023058976725,91.77300347222223
1.4834789213824535,176.77300347222223
1.4844555368672347,231.77300347222223
1.4854321523520158,255.77300347222223
1.4864087678367968,228.77300347222223
1.487385383321578,176.77300347222223
1.488361998806359,166.77300347222223
1.48933861429114,162.77300347222223
1.490315229775921,44.77300347222223
1.4912918452607022,-61.22699652777777
1.4922684607454832,-92.22699652777777
1.4932450762302643,-172.22699652777777
1.4942216917150455,-210.22699652777777
1.4951983071998265,-228.22699652777777
1.4961749226846075,-200.22699652777777
1.4971515381693887,-183.22699652777777
1.4981281536541697,-189.22699652777777
1.4991047691389507,-180.22699652777777
1.5000813846237318,-61.22699652777777
1.501058000108513,52.77300347222223
1.502034615593294,81.77300347222223
1.503011231078075,171.77300347222223
1.5039878465628562,231.77300347222223
1.5049644620476372,260.77300347222223
1.5059410775324182,227.77300347222223
1.5069176930171995,178.77300347222223
1.5078943085019805,167.77300347222223
1.5088709239867615,159.77300347222223
1.5098475394715427,40.77300347222223
1.5108241549563237,-59.22699652777777
1.5118007704411047,-93.22699652777777
1.5127773859258857,-175.22699652777777
1.513754001410667,-214.22699652777777
1.514730616895448,-234.22699652777777
1.515707232380229,-207.22699652777777
1.5166838478650102,-190.22699652777777
1.5176604633497912,-188.22699652777777
1.5186370788345722,-180.22699652777777
1.5196136943193534,-59.22699652777777
1.5205903098041345,54.77300347222223
1.5215669252889155,88.77300347222223
1.5225435407736967,180.77300347222223
1.5235201562584777,235.77300347222223
1.5244967717432587,252.77300347222223
1.5254733872280397,231.77300347222223
1.526450002712821,172.77300347222223
1.527426618197602,164.77300347222223
1.528403233682383,166.77300347222223
1.5293798491671642,52.77300347222223
1.5303564646519452,-59.22699652777777
1.5313330801367262,-94.22699652777777
1.5323096956215074,-174.22699652777777
1.5332863111062884,-212.22699652777777
1.5342629265910694,-233.22699652777777
1.5352395420758507,-204.22699652777777
1.5362161575606317,-188.22699652777777
1.5371927730454127,-192.22699652777777
1.5381693885301937,-189.22699652777777
1.539146004014975,-64.22699652777777
1.540122619499756,47.77300347222223
1.541099234984537,85.77300347222223
1.5420758504693182,176.77300347222223
1.5430524659540992,232.77300347222223
1.5440290814388802,255.77300347222223
1.5450056969236614,232.77300347222223
1.5459823124084424,176.77300347222223
1.5469589278932234,171.77300347222223
1.5479355433780047,167.77300347222223
1.5489121588627857,48.77300347222223
1.5498887743475667,-61.22699652777777
1.5508653898323477,-96.22699652777777
1.551842005317129,-164.22699652777777
1.55281862080191,-213.22699652777777
1.553795236286691,-232.22699652777777
1.5547718517714721,-202.22699652777777
1.5557484672562532,-189.22699652777777
1.5567250827410342,-192.22699652777777
1.5577016982258154,-194.22699652777777
1.5586783137105964,-60.22699652777777
1.5596549291953774,52.77300347222223
1.5606315446801586,86.77300347222223
1.5616081601649396,171.77300347222223
1.5625847756497206,235.77300347222223
1.5635613911345017,261.77300347222223
1.5645380066192829,228.77300347222223
1.565514622104064,173.77300347222223
1.566491237588845,173.77300347222223
1.5674678530736261,164.77300347222223
1.5684444685584071,48.77300347222223
1.5694210840431881,-60.22699652777777
1.5703976995279694,-92.22699652777777
1.5713743150127504,-167.22699652777777
1.5723509304975314,-210.22699652777777
1.5733275459823126,-235.22699652777777
1.5743041614670936,-208.22699652777777
1.5752807769518746,-184.22699652777777
1.5762573924366556,-197.22699652777777
1.5772340079214369,-183.22699652777777
1.5782106234062179,-61.22699652777777
1.5791872388909989,52.77300347222223
1.58016385437578,90.77300347222223
1.5811404698605611,173.77300347222223
1.5821170853453421,231.77300347222223
1.5830937008301234,258.77300347222223
1.5840703163149044,231.77300347222223
1.5850469317996854,174.77300347222223
1.5860235472844666,163.77300347222223
1.5870001627692476,160.77300347222223
1.5879767782540286,49.77300347222223
1.5889533937388096,-58.22699652777777
1.5899300092235908,-92.22699652777777
1.5909066247083719,-169.22699652777777
1.5918832401931529,-214.22699652777777
1.592859855677934,-232.22699652777777
1.593836471162715,-202.22699652777777
1.594813086647496,-189.22699652777777
1.5957897021322773,-192.22699652777777
1.5967663176170583,-186.22699652777777
1.5977429331018393,-63.22699652777777
1.5987195485866206,48.77300347222223
1.5996961640714016,85.77300347222223
1.6006727795561826,171.77300347222223
1.6016493950409636,227.77300347222223
1.6026260105257448,257.77300347222223
1.6036026260105258,229.77300347222223
1.6045792414953068,176.77300347222223
1.605555856980088,173.77300347222223
1.606532472464869,166.77300347222223
1.60750908794965,48.77300347222223
1.6084857034344313,-58.22699652777777
1.6094623189192123,-90.22699652777777
1.6104389344039933,-163.22699652777777
1.6114155498887746,-211.22699652777777
1.6123921653735556,-231.22699652777777
1.6133687808583366,-201.22699652777777
1.6143453963431176,-184.22699652777777
1.6153220118278988,-190.22699652777777
1.6162986273126798,-185.22699652777777
1.6172752427974608,-60.22699652777777
1.618251858282242,48.77300347222223
1.619228473767023,85.77300347222223
1.620205089251804,171.77300347222223
1.6211817047365853,228.77300347222223
1.6221583202213663,256.77300347222223
1.6231349357061473,230.77300347222223
1.6241115511909285,171.77300347222223
1.6250881666757095,170.77300347222223
1.6260647821604906,164.77300347222223
1.6270413976452716,45.77300347222223
1.6280180131300528,-62.22699652777777
1.6289946286148338,-90.22699652777777
1.6299712440996148,-163.22699652777777
1.630947859584396,-205.22699652777777
1.631924475069177,-225.22699652777777
1.632901090553958,-200.22699652777777
1.6338777060387393,-185.22699652777777
1.6348543215235203,-194.22699652777777
1.6358309370083013,-188.22699652777777
1.6368075524930825,-60.22699652777777
1.6377841679778635,45.77300347222223
1.6387607834626445,82.77300347222223
1.6397373989474255,171.77300347222223
1.6407140144322068,231.77300347222223
1.6416906299169878,252.77300347222223
1.6426672454017688,224.77300347222223
1.64364386088655,173.77300347222223
1.644620476371331,168.77300347222223
1.645597091856112,162.77300347222223
1.6465737073408933,39.77300347222223
1.6475503228256743,-58.22699652777777
1.6485269383104553,-88.22699652777777
1.6495035537952365,-161.22699652777777
1.6504801692800175,-206.22699652777777
1.6514567847647985,-227.22699652777777
1.6524334002495795,-201.22699652777777
1.6534100157343607,-181.22699652777777
1.6543866312191418,-189.22699652777777
1.6553632467039228,-186.22699652777777
1.656339862188704,-59.22699652777777
1.657316477673485,50.77300347222223
1.658293093158266,83.77300347222223
1.6592697086430472,172.77300347222223
1.6602463241278282,226.77300347222223
1.6612229396126093,247.77300347222223
1.6621995550973905,222.77300347222223
1.6631761705821715,173.77300347222223
1.6641527860669525,164.77300347222223
1.6651294015517335,154.77300347222223
1.6661060170365147,36.77300347222223
1.6670826325212957,-60.22699652777777
1.6680592480060767,-81.22699652777777
1.669035863490858,-160.22699652777777
1.670012478975639,-199.22699652777777
1.67098909446042,-218.22699652777777
1.6719657099452012,-191.22699652777777
1.6729423254299822,-175.22699652777777
1.6739189409147632,-180.22699652777777
1.6748955563995445,-180.22699652777777
1.6758721718843255,-54.22699652777777
1.6768487873691065,53.77300347222223
1.6778254028538875,86.77300347222223
1.6788020183386687,166.77300347222223
1.6797786338234497,217.77300347222223
1.6807552493082307,244.77300347222223
1.681731864793012,219.77300347222223
1.682708480277793,168.77300347222223
1.683685095762574,156.77300347222223
1.6846617112473552,154.77300347222223
1.6856383267321362,41.77300347222223
1.6866149422169172,-57.22699652777777
1.6875915577016984,-87.22699652777777
1.6885681731864794,-161.22699652777777
1.6895447886712605,-200.22699652777777
1.6905214041560415,-220.22699652777777
1.6914980196408227,-190.22699652777777
1.6924746351256037,-175.22699652777777
1.6934512506103847,-178.22699652777777
1.694427866095166,-177.22699652777777
1.695404481579947,-61.22699652777777
1.696381097064728,50.77300347222223
1.6973577125495092,85.77300347222223
1.6983343280342902,164.77300347222223
1.6993109435190712,219.77300347222223
1.7002875590038524,242.77300347222223
1.7012641744886334,213.77300347222223
1.7022407899734144,156.77300347222223
1.7032174054581954,157.77300347222223
1.7041940209429767,154.77300347222223
1.7051706364277577,46.77300347222223
1.7061472519125387,-58.22699652777777
1.70712386739732,-84.22699652777777
1.708100482882101,-158.22699652777777
1.709077098366882,-202.22699652777777
1.7100537138516632,-219.22699652777777
1.7110303293364442,-188.22699652777777
1.7120069448212252,-175.22699652777777
1.7129835603060064,-185.22699652777777
1.7139601757907874,-174.22699652777777
1.7149367912755684,-56.22699652777777
1.7159134067603494,51.77300347222223
1.7168900222451307,84.77300347222223
1.7178666377299117,167.77300347222223
1.7188432532146927,215.77300347222223
1.719819868699474,237.77300347222223
1.720796484184255,212.77300347222223
1.721773099669036,162.77300347222223
1.7227497151538171,159.77300347222223
1.7237263306385981,155.77300347222223
1.7247029461233792,43.77300347222223
1.7256795616081604,-57.22699652777777
1.7266561770929414,-84.22699652777777
1.7276327925777224,-156.22699652777777
1.7286094080625034,-203.22699652777777
1.7295860235472846,-218.22699652777777
1.7305626390320656,-187.22699652777777
1.7315392545168466,-171.22699652777777
1.7325158700016279,-176.22699652777777
1.7334924854864089,-168.22699652777777
1.73446910097119,-52.22699652777777
1.7354457164559711,50.77300347222223
1.7364223319407521,82.77300347222223
1.7373989474255331,161.77300347222223
1.7383755629103144,208.77300347222223
1.7393521783950954,239.77300347222223
1.7403287938798764,213.77300347222223
1.7413054093646574,162.77300347222223
1.7422820248494386,154.77300347222223
1.7432586403342196,151.77300347222223
1.7442352558190006,41.77300347222223
1.7452118713037819,-58.22699652777777
1.7461884867885629,-86.22699652777777
1.7471651022733439,-152.22699652777777
1.748141717758125,-196.22699652777777
1.749118333242906,-211.22699652777777
1.7500949487276871,-186.22699652777777
1.7510715642124683,-171.22699652777777
1.7520481796972494,-174.22699652777777
1.7530247951820304,-170.22699652777777
1.7540014106668114,-53.22699652777777
1.7549780261515926,48.77300347222223
1.7559546416363736,78.77300347222223
1.7569312571211546,156.77300347222223
1.7579078726059358,210.77300347222223
1.7588844880907168,239.77300347222223
1.7598611035754979,208.77300347222223
1.760837719060279,159.77300347222223
1.76181433454506,161.77300347222223
1.762790950029841,152.77300347222223
1.7637675655146223,34.77300347222223
1.7647441809994033,-59.22699652777777
1.7657207964841843,-80.22699652777777
1.7666974119689653,-150.22699652777777
1.7676740274537466,-191.22699652777777
1.7686506429385276,-212.22699652777777
1.7696272584233086,-185.22699652777777
1.7706038739080898,-164.22699652777777
1.7715804893928708,-170.22699652777777
1.7725571048776518,-168.22699652777777
1.773533720362433,-62.22699652777777
1.774510335847214,46.77300347222223
1.775486951331995,79.77300347222223
1.7764635668167763,158.77300347222223
1.7774401823015573,208.77300347222223
1.7784167977863383,226.77300347222223
1.7793934132711193,205.77300347222223
1.7803700287559006,157.77300347222223
1.7813466442406816,152.77300347222223
1.7823232597254626,150.77300347222223
1.7832998752102438,46.77300347222223
1.7842764906950248,-52.22699652777777
1.7852531061798058,-75.22699652777777
1.786229721664587,-152.22699652777777
1.787206337149368,-192.22699652777777
1.788182952634149,-215.22699652777777
1.7891595681189303,-180.22699652777777
1.7901361836037113,-167.22699652777777
1.7911127990884923,-175.22699652777777
1.7920894145732733,-175.22699652777777
1.7930660300580545,-58.22699652777777
1.7940426455428355,47.77300347222223
1.7950192610276166,80.77300347222223
1.7959958765123978,160.77300347222223
1.7969724919971788,213.77300347222223
1.7979491074819598,238.77300347222223
1.798925722966741,208.77300347222223
1.799902338451522,163.77300347222223
1.800878953936303,157.77300347222223
1.8018555694210843,155.77300347222223
1.8028321849058653,47.77300347222223
1.8038088003906463,-52.22699652777777
1.8047854158754273,-85.22699652777777
1.8057620313602085,-158.22699652777777
1.8067386468449895,-193.22699652777777
1.8077152623297705,-213.22699652777777
1.8086918778145518,-184.22699652777777
1.8096684932993328,-174.22699652777777
1.8106451087841138,-176.22699652777777
1.811621724268895,-173.22699652777777
1.812598339753676,-56.22699652777777
1.813574955238457,51.77300347222223
1.8145515707232382,77.77300347222223
1.8155281862080193,152.77300347222223
1.8165048016928003,213.77300347222223
1.8174814171775813,238.77300347222223
1.8184580326623625,211.77300347222223
1.8194346481471435,163.77300347222223
1.8204112636319245,155.77300347222223
1.8213878791167057,153.77300347222223
1.8223644946014868,43.77300347222223
1.8233411100862678,-59.22699652777777
1.824317725571049,-84.22699652777777
1.82529434105583,-151.22699652777777
1.826270956540611,-191.22699652777777
1.8272475720253922,-210.22699652777777
1.8282241875101732,-183.22699652777777
1.8292008029949542,-174.22699652777777
1.8301774184797353,-172.22699652777777
1.8311540339645165,-169.22699652777777
1.8321306494492975,-59.22699652777777
1.8331072649340785,48.77300347222223
1.8340838804188597,81.77300347222223
1.8350604959036407,159.77300347222223
1.8360371113884217,211.77300347222223
1.837013726873203,235.77300347222223
1.837990342357984,207.77300347222223
1.838966957842765,161.77300347222223
1.8399435733275462,157.77300347222223
1.8409201888123272,154.77300347222223
1.8418968042971082,41.77300347222223
1.8428734197818892,-58.22699652777777
1.8438500352666705,-84.22699652777777
1.8448266507514515,-156.22699652777777
1.8458032662362325,-199.22699652777777
1.8467798817210137,-217.22699652777777
1.8477564972057947,-184.22699652777777
1.8487331126905757,-167.22699652777777
1.849709728175357,-173.22699652777777
1.850686343660138,-176.22699652777777
1.851662959144919,-59.22699652777777
1.8526395746297002,45.77300347222223
1.8536161901144812,78.77300347222223
1.8545928055992622,166.77300347222223
1.8555694210840432,214.77300347222223
1.8565460365688244,236.77300347222223
1.8575226520536054,210.77300347222223
1.8584992675383865,165.77300347222223
1.8594758830231677,157.77300347222223
1.8604524985079487,157.77300347222223
1.8614291139927297,47.77300347222223
1.862405729477511,-54.22699652777777
1.863382344962292,-84.22699652777777
1.864358960447073,-153.22699652777777
1.8653355759318542,-198.22699652777777
1.8663121914166352,-215.22699652777777
1.8672888069014162,-188.22699652777777
1.8682654223861972,-172.22699652777777
1.8692420378709784,-173.22699652777777
1.8702186533557594,-168.22699652777777
1.8711952688405404,-54.22699652777777
1.8721718843253217,49.77300347222223
1.8731484998101027,83.77300347222223
1.8741251152948837,157.77300347222223
1.875101730779665,212.77300347222223
1.876078346264446,233.77300347222223
1.877054961749227,201.77300347222223
1.8780315772340082,151.77300347222223
1.8790081927187892,155.77300347222223
1.8799848082035702,156.77300347222223
1.8809614236883512,46.77300347222223
1.8819380391731324,-51.22699652777777
1.8829146546579134,-83.22699652777777
1.8838912701426944,-151.22699652777777
1.8848678856274756,-197.22699652777777
1.8858445011122567,-214.22699652777777
1.8868211165970377,-185.22699652777777
1.887797732081819,-175.22699652777777
1.8887743475666,-174.22699652777777
1.889750963051381,-170.22699652777777
1.8907275785361621,-60.22699652777777
1.8917041940209431,44.77300347222223
1.8926808095057241,83.77300347222223
1.8936574249905052,167.77300347222223
1.8946340404752864,214.77300347222223
1.8956106559600674,237.77300347222223
1.8965872714448484,211.77300347222223
1.8975638869296296,162.77300347222223
1.8985405024144106,157.77300347222223
1.8995171178991916,151.77300347222223
1.9004937333839729,41.77300347222223
1.9014703488687539,-56.22699652777777
1.9024469643535349,-86.22699652777777
1.9034235798383161,-159.22699652777777
1.9044001953230971,-197.22699652777777
1.9053768108078781,-222.22699652777777
1.9063534262926591,-193.22699652777777
1.9073300417774404,-174.22699652777777
1.9083066572622214,-175.22699652777777
1.9092832727470024,-171.22699652777777
1.9102598882317836,-52.22699652777777
1.9112365037165646,48.77300347222223
1.9122131192013456,82.77300347222223
1.9131897346861269,165.77300347222223
1.9141663501709079,217.77300347222223
1.9151429656556889,243.77300347222223
1.91611958114047,213.77300347222223
1.917096196625251,164.77300347222223
1.918072812110032,155.77300347222223
1.9190494275948131,150.77300347222223
1.9200260430795943,43.77300347222223
1.9210026585643754,-53.22699652777777
1.9219792740491564,-84.22699652777777
1.9229558895339376,-157.22699652777777
1.9239325050187186,-195.22699652777777
1.9249091205034996,-220.22699652777777
1.9258857359882808,-187.22699652777777
1.9268623514730618,-169.22699652777777
1.9278389669578428,-177.22699652777777
1.928815582442624,-176.22699652777777
1.929792197927405,-56.22699652777777
1.930768813412186,52.77300347222223
1.931745428896967,81.77300347222223
1.9327220443817483,164.77300347222223
1.9336986598665293,220.77300347222223
1.9346752753513103,243.77300347222223
1.9356518908360916,209.77300347222223
1.9366285063208726,163.77300347222223
1.9376051218056536,159.77300347222223
1.9385817372904348,155.77300347222223
1.9395583527752158,45.77300347222223
1.9405349682599968,-64.22699652777777
1.941511583744778,-90.22699652777777
1.942488199229559,-164.22699652777777
1.94346481471434,-197.22699652777777
1.944441430199121,-218.22699652777777
1.9454180456839023,-187.22699652777777
1.9463946611686833,-180.22699652777777
1.9473712766534643,-177.22699652777777
1.9483478921382456,-168.22699652777777
1.9493245076230266,-51.22699652777777
1.9503011231078076,47.77300347222223
1.9512777385925888,82.77300347222223
1.9522543540773698,167.77300347222223
1.9532309695621508,221.77300347222223
1.954207585046932,247.77300347222223
1.955184200531713,212.77300347222223
1.956160816016494,167.77300347222223
1.957137431501275,162.77300347222223
1.9581140469860563,151.77300347222223
1.9590906624708373,39.77300347222223
1.9600672779556183,-52.22699652777777
1.9610438934403995,-89.22699652777777
1.9620205089251805,-170.22699652777777
1.9629971244099615,-202.22699652777777
1.9639737398947428,-222.22699652777777
1.9649503553795238,-187.22699652777777
1.9659269708643048,-180.22699652777777
1.966903586349086,-178.22699652777777
1.967880201833867,-176.22699652777777
1.968856817318648,-54.22699652777777
1.969833432803429,53.77300347222223
1.9708100482882103,87.77300347222223
1.9717866637729913,169.77300347222223
1.9727632792577723,222.77300347222223
1.9737398947425535,245.77300347222223
1.9747165102273345,216.77300347222223
1.9756931257121155,164.77300347222223
1.9766697411968968,165.77300347222223
1.9776463566816778,156.77300347222223
1.9786229721664588,42.77300347222223
1.97959958765124,-58.22699652777777
1.980576203136021,-89.22699652777777
1.981552818620802,-163.22699652777777
1.982529434105583,-206.22699652777777
1.9835060495903643,-227.22699652777777
1.9844826650751453,-195.22699652777777
1.9854592805599263,-181.22699652777777
1.9864358960447075,-184.22699652777777
1.9874125115294885,-174.22699652777777
1.9883891270142695,-56.22699652777777
1.9893657424990507,55.77300347222223
1.9903423579838317,82.77300347222223
1.9913189734686128,166.77300347222223
1.992295588953394,215.77300347222223
1.993272204438175,249.77300347222223
1.994248819922956,218.77300347222223
1.995225435407737,175.77300347222223
1.9962020508925182,164.77300347222223
1.9971786663772992,161.77300347222223
1.9981552818620802,46.77300347222223
1.9991318973468615,-62.22699652777777
2.0001085128316425,-90.22699652777777
2.0010851283164235,-160.22699652777777
2.0020617438012045,-204.22699652777777
2.0030383592859855,-227.22699652777777
2.004014974770767,-195.22699652777777
2.004991590255548,-184.22699652777777
2.005968205740329,-188.22699652777777
2.00694482122511,-180.22699652777777
2.007921436709891,-56.22699652777777
2.008898052194672,50.77300347222223
2.0098746676794534,87.77300347222223
2.0108512831642344,176.77300347222223
2.0118278986490155,227.77300347222223
2.0128045141337965,251.77300347222223
2.0137811296185775,215.77300347222223
2.0147577451033585,161.77300347222223
2.0157343605881395,165.77300347222223
2.016710976072921,159.77300347222223
2.017687591557702,42.77300347222223
2.018664207042483,-55.22699652777777
2.019640822527264,-88.22699652777777
2.020617438012045,-167.22699652777777
2.021594053496826,-206.22699652777777
2.0225706689816074,-229.22699652777777
2.0235472844663884,-194.22699652777777
2.0245238999511694,-183.22699652777777
2.0255005154359504,-180.22699652777777
2.0264771309207315,-175.22699652777777
2.0274537464055125,-53.22699652777777
2.0284303618902935,51.77300347222223
2.029406977375075,83.77300347222223
2.030383592859856,172.77300347222223
2.031360208344637,228.77300347222223
2.032336823829418,256.77300347222223
2.033313439314199,221.77300347222223
2.03429005479898,164.77300347222223
2.0352666702837614,163.77300347222223
2.0362432857685424,156.77300347222223
2.0372199012533234,38.77300347222223
2.0381965167381044,-62.22699652777777
2.0391731322228854,-93.22699652777777
2.0401497477076664,-166.22699652777777
2.0411263631924474,-209.22699652777777
2.042102978677229,-233.22699652777777
2.04307959416201,-198.22699652777777
2.044056209646791,-181.22699652777777
2.045032825131572,-180.22699652777777
2.046009440616353,-174.22699652777777
2.046986056101134,-56.22699652777777
2.0479626715859154,53.77300347222223
2.0489392870706964,86.77300347222223
2.0499159025554774,171.77300347222223
2.0508925180402584,230.77300347222223
2.0518691335250394,252.77300347222223
2.0528457490098204,220.77300347222223
2.0538223644946014,167.77300347222223
2.054798979979383,164.77300347222223
2.055775595464164,163.77300347222223
2.056752210948945,41.77300347222223
2.057728826433726,-58.22699652777777
2.058705441918507,-92.22699652777777
2.059682057403288,-164.22699652777777
2.0606586728880694,-212.22699652777777
2.0616352883728504,-231.22699652777777
2.0626119038576314,-194.22699652777777
2.0635885193424124,-180.22699652777777
2.0645651348271934,-189.22699652777777
2.0655417503119744,-182.22699652777777
2.0665183657967554,-54.22699652777777
2.067494981281537,57.77300347222223
2.068471596766318,90.77300347222223
2.069448212251099,173.77300347222223
2.07042482773588,221.77300347222223
2.071401443220661,249.77300347222223
2.072378058705442,217.77300347222223
2.0733546741902233,171.77300347222223
2.0743312896750044,166.77300347222223
2.0753079051597854,157.77300347222223
2.0762845206445664,47.77300347222223
2.0772611361293474,-56.22699652777777
2.0782377516141284,-90.22699652777777
2.0792143670989094,-165.22699652777777
2.080190982583691,-217.22699652777777
2.081167598068472,-231.22699652777777
2.082144213553253,-192.22699652777777
2.083120829038034,-183.22699652777777
2.084097444522815,-188.22699652777777
2.085074060007596,-179.22699652777777
2.0860506754923773,-55.22699652777777
2.0870272909771583,58.77300347222223
2.0880039064619393,96.77300347222223
2.0889805219467203,169.77300347222223
2.0899571374315014,220.77300347222223
2.0909337529162824,248.77300347222223
2.0919103684010634,220.77300347222223
2.092886983885845,174.77300347222223
2.093863599370626,164.77300347222223
2.094840214855407,160.77300347222223
2.095816830340188,45.77300347222223
2.096793445824969,-57.22699652777777
2.09777006130975,-90.22699652777777
2.0987466767945313,-165.22699652777777
2.0997232922793123,-208.22699652777777
2.1006999077640933,-227.22699652777777
2.1016765232488743,-192.22699652777777
2.1026531387336553,-182.22699652777777
2.1036297542184363,-185.22699652777777
2.1046063697032174,-180.22699652777777
2.105582985187999,-50.22699652777777
2.10655960067278,53.77300347222223
2.107536216157561,91.77300347222223
2.108512831642342,170.77300347222223
2.109489447127123,226.77300347222223
2.110466062611904,250.77300347222223
2.1114426780966853,216.77300347222223
2.1124192935814663,167.77300347222223
2.1133959090662473,167.77300347222223
2.1143725245510283,158.77300347222223
2.1153491400358093,39.77300347222223
2.1163257555205903,-62.22699652777777
2.1173023710053713,-89.22699652777777
2.118278986490153,-162.22699652777777
2.119255601974934,-205.22699652777777
2.120232217459715,-227.22699652777777
2.121208832944496,-196.22699652777777
2.122185448429277,-189.22699652777777
2.123162063914058,-184.22699652777777
2.1241386793988393,-180.22699652777777
2.1251152948836203,-56.22699652777777
2.1260919103684013,58.77300347222223
2.1270685258531823,87.77300347222223
2.1280451413379633,172.77300347222223
2.1290217568227443,227.77300347222223
2.1299983723075253,250.77300347222223
2.1309749877923068,218.77300347222223
2.1319516032770878,171.77300347222223
2.1329282187618688,168.77300347222223
2.13390483424665,155.77300347222223
2.134881449731431,39.77300347222223
2.135858065216212,-60.22699652777777
2.1368346807009932,-92.22699652777777
2.1378112961857743,-170.22699652777777
2.1387879116705553,-212.22699652777777
2.1397645271553363,-233.22699652777777
2.1407411426401173,-201.22699652777777
2.1417177581248983,-180.22699652777777
2.1426943736096793,-188.22699652777777
2.1436709890944607,-187.22699652777777
2.1446476045792418,-60.22699652777777
2.1456242200640228,51.77300347222223
2.1466008355488038,87.77300347222223
2.1475774510335848,171.77300347222223
2.148554066518366,224.77300347222223
2.1495306820031472,253.77300347222223
2.1505072974879282,221.77300347222223
2.1514839129727092,173.77300347222223
2.1524605284574903,167.77300347222223
2.1534371439422713,157.77300347222223
2.1544137594270523,39.77300347222223
2.1553903749118333,-66.22699652777777
2.1563669903966147,-94.22699652777777
2.1573436058813957,-164.22699652777777
2.1583202213661767,-212.22699652777777
2.1592968368509577,-226.22699652777777
2.1602734523357388,-197.22699652777777
2.1612500678205198,-181.22699652777777
2.162226683305301,-184.22699652777777
2.163203298790082,-181.22699652777777
2.1641799142748632,-52.22699652777777
2.1651565297596442,55.77300347222223
2.1661331452444252,88.77300347222223
2.1671097607292062,175.77300347222223
2.1680863762139873,236.77300347222223
2.1690629916987687,256.77300347222223
2.1700396071835497,215.77300347222223
2.1710162226683307,164.77300347222223
2.1719928381531117,164.77300347222223
2.1729694536378927,156.77300347222223
2.1739460691226737,37.77300347222223
2.174922684607455,-59.22699652777777
2.175899300092236,-92.22699652777777
2.176875915577017,-165.22699652777777
2.177852531061798,-203.22699652777777
2.178829146546579,-225.22699652777777
2.1798057620313602,-194.22699652777777
2.1807823775161412,-181.22699652777777
2.1817589930009227,-182.22699652777777
2.1827356084857037,-183.22699652777777
2.1837122239704847,-52.22699652777777
2.1846888394552657,53.77300347222223
2.1856654549400467,84.77300347222223
2.1866420704248277,176.77300347222223
2.187618685909609,229.77300347222223
2.18859530139439,256.77300347222223
2.189571916879171,217.77300347222223
2.190548532363952,172.77300347222223
2.191525147848733,166.77300347222223
2.192501763333514,158.77300347222223
2.193478378818295,38.77300347222223
2.1944549943030767,-66.22699652777777
2.1954316097878577,-100.22699652777777
2.1964082252726387,-168.22699652777777
2.1973848407574197,-207.22699652777777
2.1983614562422007,-227.22699652777777
2.1993380717269817,-189.22699652777777
2.200314687211763,-184.22699652777777
2.201291302696544,-182.22699652777777
2.202267918181325,-179.22699652777777
2.203244533666106,-62.22699652777777
2.204221149150887,48.77300347222223
2.205197764635668,89.77300347222223
2.206174380120449,172.77300347222223
2.2071509956052306,231.77300347222223
2.2081276110900117,256.77300347222223
2.2091042265747927,224.77300347222223
2.2100808420595737,171.77300347222223
2.2110574575443547,163.77300347222223
2.2120340730291357,152.77300347222223
2.213010688513917,35.77300347222223
2.213987303998698,-63.22699652777777
2.214963919483479,-94.22699652777777
2.21594053496826,-166.22699652777777
2.216917150453041,-210.22699652777777
2.217893765937822,-234.22699652777777
2.218870381422603,-199.22699652777777
2.2198469969073846,-179.22699652777777
2.2208236123921656,-180.22699652777777
2.2218002278769466,-182.22699652777777
2.2227768433617277,-53.22699652777777
2.2237534588465087,57.77300347222223
2.2247300743312897,89.77300347222223
2.225706689816071,174.77300347222223
2.226683305300852,229.77300347222223
2.227659920785633,256.77300347222223
2.228636536270414,220.77300347222223
2.229613151755195,171.77300347222223
2.230589767239976,164.77300347222223
2.231566382724757,162.77300347222223
2.2325429982095386,38.77300347222223
2.2335196136943196,-63.22699652777777
2.2344962291791006,-97.22699652777777
2.2354728446638816,-172.22699652777777
2.2364494601486626,-208.22699652777777
2.2374260756334436,-227.22699652777777
2.238402691118225,-195.22699652777777
2.239379306603006,-182.22699652777777
2.240355922087787,-184.22699652777777
2.241332537572568,-182.22699652777777
2.242309153057349,-56.22699652777777
2.24328576854213,55.77300347222223
2.244262384026911,91.77300347222223
2.2452389995116926,176.77300347222223
2.2462156149964736,235.77300347222223
2.2471922304812546,253.77300347222223
2.2481688459660356,217.77300347222223
2.2491454614508166,170.77300347222223
2.2501220769355976,168.77300347222223
2.251098692420379,155.77300347222223
2.25207530790516,36.77300347222223
2.253051923389941,-66.22699652777777
2.254028538874722,-94.22699652777777
2.255005154359503,-164.22699652777777
2.255981769844284,-214.22699652777777
2.256958385329065,-235.22699652777777
2.2579350008138466,-194.22699652777777
2.2589116162986276,-178.22699652777777
2.2598882317834086,-183.22699652777777
2.2608648472681896,-180.22699652777777
2.2618414627529706,-55.22699652777777
2.2628180782377516,54.77300347222223
2.263794693722533,93.77300347222223
2.264771309207314,177.77300347222223
2.265747924692095,230.77300347222223
2.266724540176876,254.77300347222223
2.267701155661657,222.77300347222223
2.268677771146438,171.77300347222223
2.269654386631219,166.77300347222223
2.2706310021160006,154.77300347222223
2.2716076176007816,40.77300347222223
2.2725842330855626,-64.22699652777777
2.2735608485703436,-94.22699652777777
2.2745374640551246,-163.22699652777777
2.2755140795399056,-208.22699652777777
2.276490695024687,-232.22699652777777
2.277467310509468,-198.22699652777777
2.278443925994249,-184.22699652777777
2.27942054147903,-180.22699652777777
2.280397156963811,-172.22699652777777
2.281373772448592,-57.22699652777777
2.282350387933373,58.77300347222223
2.2833270034181545,93.77300347222223
2.2843036189029355,175.77300347222223
2.2852802343877165,227.77300347222223
2.2862568498724976,248.77300347222223
2.2872334653572786,216.77300347222223
2.2882100808420596,171.77300347222223
2.289186696326841,168.77300347222223
2.290163311811622,158.77300347222223
2.291139927296403,36.77300347222223
2.292116542781184,-56.22699652777777
2.293093158265965,-91.22699652777777
2.294069773750746,-165.22699652777777
2.295046389235527,-213.22699652777777
2.2960230047203085,-234.22699652777777
2.2969996202050895,-195.22699652777777
2.2979762356898705,-184.22699652777777
2.2989528511746515,-186.22699652777777
2.2999294666594325,-173.22699652777777
2.3009060821442135,-47.22699652777777
2.301882697628995,52.77300347222223
2.302859313113776,88.77300347222223
2.303835928598557,177.77300347222223
2.304812544083338,229.77300347222223
2.305789159568119,252.77300347222223
2.3067657750529,213.77300347222223
2.307742390537681,170.77300347222223
2.3087190060224625,164.77300347222223
2.3096956215072435,156.77300347222223
2.3106722369920245,33.77300347222223
2.3116488524768055,-64.22699652777777
2.3126254679615865,-96.22699652777777
2.3136020834463675,-167.22699652777777
2.314578698931149,-206.22699652777777
2.31555531441593,-233.22699652777777
2.316531929900711,-187.22699652777777
2.317508545385492,-179.22699652777777
2.318485160870273,-180.22699652777777
2.319461776355054,-178.22699652777777
2.320438391839835,-57.22699652777777
2.3214150073246165,53.77300347222223
2.3223916228093975,92.77300347222223
2.3233682382941785,175.77300347222223
2.3243448537789595,230.77300347222223
2.3253214692637405,258.77300347222223
2.3262980847485215,215.77300347222223
2.327274700233303,163.77300347222223
2.328251315718084,163.77300347222223
2.329227931202865,159.77300347222223
2.330204546687646,40.77300347222223
2.331181162172427,-64.22699652777777
2.332157777657208,-93.22699652777777
2.333134393141989,-173.22699652777777
2.3341110086267705,-211.22699652777777
2.3350876241115515,-228.22699652777777
2.3360642395963325,-191.22699652777777
2.3370408550811135,-181.22699652777777
2.3380174705658945,-184.22699652777777
2.3389940860506755,-171.22699652777777
2.339970701535457,-49.22699652777777
2.340947317020238,55.77300347222223
2.341923932505019,95.77300347222223
2.3429005479898,171.77300347222223
2.343877163474581,222.77300347222223
2.344853778959362,257.77300347222223
2.345830394444143,218.77300347222223
2.3468070099289244,171.77300347222223
2.3477836254137054,163.77300347222223
2.3487602408984865,156.77300347222223
2.3497368563832675,36.77300347222223
2.3507134718680485,-65.22699652777777
2.3516900873528295,-97.22699652777777
2.352666702837611,-169.22699652777777
2.353643318322392,-213.22699652777777
2.354619933807173,-230.22699652777777
2.355596549291954,-188.22699652777777
2.356573164776735,-180.22699652777777
2.357549780261516,-181.22699652777777
2.358526395746297,-177.22699652777777
2.3595030112310784,-56.22699652777777
2.3604796267158594,59.77300347222223
2.3614562422006404,91.77300347222223
2.3624328576854214,174.77300347222223
2.3634094731702024,229.77300347222223
2.3643860886549835,248.77300347222223
2.365362704139765,209.77300347222223
2.366339319624546,169.77300347222223
2.367315935109327,164.77300347222223
2.368292550594108,160.77300347222223
2.369269166078889,40.77300347222223
2.37024578156367,-60.22699652777777
2.371222397048451,-99.22699652777777
2.3721990125332324,-169.22699652777777
2.3731756280180134,-209.22699652777777
2.3741522435027944,-229.22699652777777
2.3751288589875754,-196.22699652777777
2.3761054744723564,-180.22699652777777
2.3770820899571374,-185.22699652777777
2.378058705441919,-176.22699652777777
2.3790353209267,-53.22699652777777
2.380011936411481,57.77300347222223
2.380988551896262,92.77300347222223
2.381965167381043,176.77300347222223
2.382941782865824,229.77300347222223
2.383918398350605,252.77300347222223
2.3848950138353864,216.77300347222223
2.3858716293201674,168.77300347222223
2.3868482448049484,162.77300347222223
2.3878248602897294,156.77300347222223
2.3888014757745104,37.77300347222223
2.3897780912592914,-67.22699652777777
2.390754706744073,-96.22699652777777
2.391731322228854,-171.22699652777777
2.392707937713635,-211.22699652777777
2.393684553198416,-226.22699652777777
2.394661168683197,-190.22699652777777
2.395637784167978,-178.22699652777777
2.396614399652759,-183.22699652777777
2.3975910151375404,-172.22699652777777
2.3985676306223214,-51.22699652777777
2.3995442461071024,60.77300347222223
2.4005208615918834,93.77300347222223
2.4014974770766644,177.77300347222223
2.4024740925614454,230.77300347222223
2.403450708046227,255.77300347222223
2.404427323531008,215.77300347222223
2.405403939015789,166.77300347222223
2.40638055450057,168.77300347222223
2.407357169985351,161.77300347222223
2.408333785470132,35.77300347222223
2.409310400954913,-70.22699652777777
2.4102870164396943,-96.22699652777777
2.4112636319244753,-166.22699652777777
2.4122402474092564,-211.22699652777777
2.4132168628940374,-231.22699652777777
2.4141934783788184,-192.22699652777777
2.4151700938635994,-185.22699652777777
2.416146709348381,-178.22699652777777
2.417123324833162,-175.22699652777777
2.418099940317943,-51.22699652777777
2.419076555802724,58.77300347222223
2.420053171287505,95.77300347222223
2.421029786772286,177.77300347222223
2.422006402257067,225.77300347222223
2.4229830177418483,248.77300347222223
2.4239596332266293,214.77300347222223
2.4249362487114103,171.77300347222223
2.4259128641961913,160.77300347222223
2.4268894796809724,156.77300347222223
2.4278660951657534,32.77300347222223
2.428842710650535,-69.22699652777777
2.429819326135316,-100.22699652777777
2.430795941620097,-170.22699652777777
2.431772557104878,-208.22699652777777
2.432749172589659,-229.22699652777777
2.43372578807444,-192.22699652777777
2.434702403559221,-182.22699652777777
2.4356790190440023,-181.22699652777777
2.4366556345287833,-175.22699652777777
2.4376322500135643,-47.22699652777777
2.4386088654983453,58.77300347222223
2.4395854809831263,87.77300347222223
2.4405620964679073,172.77300347222223
2.441538711952689,226.77300347222223
2.44251532743747,255.77300347222223
2.443491942922251,214.77300347222223
2.444468558407032,168.77300347222223
2.445445173891813,166.77300347222223
2.446421789376594,157.77300347222223
2.447398404861375,34.77300347222223
2.4483750203461563,-69.22699652777777
2.4493516358309373,-100.22699652777777
2.4503282513157183,-164.22699652777777
2.4513048668004993,-208.22699652777777
2.4522814822852803,-226.22699652777777
2.4532580977700613,-189.22699652777777
2.4542347132548428,-180.22699652777777
2.4552113287396238,-180.22699652777777
2.456187944224405,-173.22699652777777
2.457164559709186,-44.22699652777777
2.458141175193967,59.77300347222223
2.459117790678748,94.77300347222223
2.460094406163529,175.77300347222223
2.4610710216483103,224.77300347222223
2.4620476371330913,246.77300347222223
2.4630242526178723,211.77300347222223
2.4640008681026533,162.77300347222223
2.4649774835874343,160.77300347222223
2.4659540990722153,155.77300347222223
2.4669307145569968,42.77300347222223
2.4679073300417778,-63.22699652777777
2.4688839455265588,-95.22699652777777
2.4698605610113398,-161.22699652777777
2.470837176496121,-210.22699652777777
2.471813791980902,-231.22699652777777
2.472790407465683,-188.22699652777777
2.4737670229504642,-174.22699652777777
2.4747436384352453,-177.22699652777777
2.4757202539200263,-171.22699652777777
2.4766968694048073,-46.22699652777777
2.4776734848895883,58.77300347222223
2.4786501003743693,93.77300347222223
2.4796267158591507,180.77300347222223
2.4806033313439317,220.77300347222223
2.4815799468287127,247.77300347222223
2.4825565623134938,211.77300347222223
2.4835331777982748,160.77300347222223
2.4845097932830558,161.77300347222223
2.4854864087678368,149.77300347222223
2.4864630242526182,31.77300347222223
2.4874396397373992,-64.22699652777777
2.4884162552221802,-92.22699652777777
2.4893928707069612,-167.22699652777777
2.4903694861917423,-204.22699652777777
2.4913461016765233,-224.22699652777777
2.4923227171613047,-189.22699652777777
2.4932993326460857,-179.22699652777777
2.4942759481308667,-173.22699652777777
2.4952525636156477,-172.22699652777777
2.4962291791004287,-50.22699652777777
2.4972057945852097,52.77300347222223
2.4981824100699908,91.77300347222223
2.499159025554772,167.77300347222223
2.500135641039553,219.77300347222223
2.501112256524334,243.77300347222223
2.5020888720091152,208.77300347222223
2.5030654874938962,168.77300347222223
2.5040421029786772,161.77300347222223
2.5050187184634587,153.77300347222223
2.5059953339482397,36.77300347222223
2.5069719494330207,-64.22699652777777
2.5079485649178017,-95.22699652777777
2.5089251804025827,-160.22699652777777
2.5099017958873637,-203.22699652777777
2.5108784113721447,-220.22699652777777
2.511855026856926,-188.22699652777777
2.512831642341707,-175.22699652777777
2.513808257826488,-181.22699652777777
2.514784873311269,-178.22699652777777
2.51576148879605,-47.22699652777777
2.5167381042808312,60.77300347222223
2.5177147197656127,91.77300347222223
2.5186913352503937,165.77300347222223
2.5196679507351747,215.77300347222223
2.5206445662199557,249.77300347222223
2.5216211817047367,207.77300347222223
2.5225977971895177,165.77300347222223
2.5235744126742987,158.77300347222223
2.52455102815908,154.77300347222223
2.525527643643861,34.77300347222223
2.526504259128642,-63.22699652777777
2.527480874613423,-90.22699652777777
2.528457490098204,-161.22699652777777
2.529434105582985,-208.22699652777777
2.5304107210677667,-225.22699652777777
2.5313873365525477,-185.22699652777777
2.5323639520373287,-171.22699652777777
2.5333405675221097,-172.22699652777777
2.5343171830068907,-178.22699652777777
2.5352937984916717,-50.22699652777777
2.5362704139764527,54.77300347222223
2.537247029461234,87.77300347222223
2.538223644946015,168.77300347222223
2.539200260430796,219.77300347222223
2.540176875915577,248.77300347222223
2.541153491400358,210.77300347222223
2.542130106885139,160.77300347222223
2.5431067223699206,156.77300347222223
2.5440833378547016,149.77300347222223
2.5450599533394827,32.77300347222223
2.5460365688242637,-69.22699652777777
2.5470131843090447,-98.22699652777777
2.5479897997938257,-160.22699652777777
2.5489664152786067,-201.22699652777777
2.549943030763388,-224.22699652777777
2.550919646248169,-181.22699652777777
2.55189626173295,-175.22699652777777
2.552872877217731,-171.22699652777777
2.553849492702512,-167.22699652777777
2.554826108187293,-45.22699652777777
2.5558027236720746,56.77300347222223
2.5567793391568556,92.77300347222223
2.5577559546416366,162.77300347222223
2.5587325701264176,217.77300347222223
2.5597091856111986,247.77300347222223
2.5606858010959797,209.77300347222223
2.5616624165807607,162.77300347222223
2.562639032065542,155.77300347222223
2.563615647550323,159.77300347222223
2.564592263035104,39.77300347222223
2.565568878519885,-60.22699652777777
2.566545494004666,-90.22699652777777
2.567522109489447,-162.22699652777777
2.5684987249742286,-204.22699652777777
2.5694753404590096,-225.22699652777777
2.5704519559437906,-181.22699652777777
2.5714285714285716,-172.22699652777777
2.5724051869133526,-182.22699652777777
2.5733818023981336,-177.22699652777777
2.5743584178829146,-46.22699652777777
2.575335033367696,55.77300347222223
2.576311648852477,87.77300347222223
2.577288264337258,166.77300347222223
2.578264879822039,215.77300347222223
2.57924149530682,248.77300347222223
2.580218110791601,208.77300347222223
2.5811947262763826,161.77300347222223
2.5821713417611636,158.77300347222223
2.5831479572459446,152.77300347222223
2.5841245727307256,39.77300347222223
2.5851011882155066,-59.22699652777777
2.5860778037002876,-88.22699652777777
2.5870544191850686,-160.22699652777777
2.58803103466985,-203.22699652777777
2.589007650154631,-225.22699652777777
2.589984265639412,-188.22699652777777
2.590960881124193,-172.22699652777777
2.591937496608974,-173.22699652777777
2.592914112093755,-175.22699652777777
2.5938907275785366,-48.22699652777777
2.5948673430633176,53.77300347222223
2.5958439585480986,90.77300347222223
2.5968205740328796,171.77300347222223
2.5977971895176606,221.77300347222223
2.5987738050024416,244.77300347222223
2.5997504204872226,207.77300347222223
2.600727035972004,166.77300347222223
2.601703651456785,159.77300347222223
2.602680266941566,158.77300347222223
2.603656882426347,31.77300347222223
2.604633497911128,-61.22699652777777
2.605610113395909,-93.22699652777777
2.6065867288806905,-158.22699652777777
2.6075633443654715,-199.22699652777777
2.6085399598502526,-226.22699652777777
2.6095165753350336,-186.22699652777777
2.6104931908198146,-171.22699652777777
2.6114698063045956,-176.22699652777777
2.6124464217893766,-174.22699652777777
2.613423037274158,-50.22699652777777
2.614399652758939,51.77300347222223
2.61537626824372,83.77300347222223
2.616352883728501,161.77300347222223
2.617329499213282,218.77300347222223
2.618306114698063,244.77300347222223
2.6192827301828445,209.77300347222223
2.6202593456676255,160.77300347222223
2.6212359611524065,159.77300347222223
2.6222125766371875,152.77300347222223
2.6231891921219685,34.77300347222223
2.6241658076067496,-64.22699652777777
2.6251424230915306,-92.22699652777777
2.626119038576312,-162.22699652777777
2.627095654061093,-200.22699652777777
2.628072269545874,-224.22699652777777
2.629048885030655,-181.22699652777777
2.630025500515436,-173.22699652777777
2.631002116000217,-179.22699652777777
2.6319787314849985,-174.22699652777777
2.6329553469697795,-50.22699652777777
2.6339319624545605,53.77300347222223
2.6349085779393415,90.77300347222223
2.6358851934241225,173.77300347222223
2.6368618089089035,219.77300347222223
2.6378384243936845,247.77300347222223
2.638815039878466,208.77300347222223
2.639791655363247,164.77300347222223
2.640768270848028,161.77300347222223
2.641744886332809,151.77300347222223
2.64272150181759,32.77300347222223
2.643698117302371,-61.22699652777777
2.6446747327871525,-95.22699652777777
2.6456513482719335,-162.22699652777777
2.6466279637567145,-206.22699652777777
2.6476045792414955,-225.22699652777777
2.6485811947262765,-185.22699652777777
2.6495578102110575,-176.22699652777777
2.6505344256958385,-175.22699652777777
2.65151104118062,-171.22699652777777
2.652487656665401,-44.22699652777777
2.653464272150182,55.77300347222223
2.654440887634963,92.77300347222223
2.655417503119744,171.77300347222223
2.656394118604525,218.77300347222223
2.6573707340893065,246.77300347222223
2.6583473495740875,201.77300347222223
2.6593239650588685,163.77300347222223
2.6603005805436495,155.77300347222223
2.6612771960284305,154.77300347222223
2.6622538115132115,33.77300347222223
2.6632304269979925,-59.22699652777777
2.664207042482774,-90.22699652777777
2.665183657967555,-163.22699652777777
2.666160273452336,-195.22699652777777
2.667136888937117,-223.22699652777777
2.668113504421898,-182.22699652777777
2.669090119906679,-176.22699652777777
2.6700667353914604,-179.22699652777777
2.6710433508762415,-176.22699652777777
2.6720199663610225,-46.22699652777777
2.6729965818458035,61.77300347222223
2.6739731973305845,89.77300347222223
2.6749498128153655,173.77300347222223
2.6759264283001465,222.77300347222223
2.676903043784928,246.77300347222223
2.677879659269709,203.77300347222223
2.67885627475449,158.77300347222223
2.679832890239271,154.77300347222223
2.680809505724052,154.77300347222223
2.681786121208833,35.77300347222223
2.6827627366936144,-59.22699652777777
2.6837393521783954,-92.22699652777777
2.6847159676631764,-160.22699652777777
2.6856925831479574,-210.22699652777777
2.6866691986327385,-225.22699652777777
2.6876458141175195,-188.22699652777777
2.6886224296023005,-172.22699652777777
2.689599045087082,-173.22699652777777
2.690575660571863,-175.22699652777777
2.691552276056644,-47.22699652777777
2.692528891541425,57.77300347222223
2.693505507026206,92.77300347222223
2.694482122510987,172.77300347222223
2.6954587379957684,221.77300347222223
2.6964353534805494,243.77300347222223
2.6974119689653304,207.77300347222223
2.6983885844501114,162.77300347222223
2.6993651999348924,160.77300347222223
2.7003418154196734,153.77300347222223
2.7013184309044544,27.77300347222223
2.702295046389236,-67.22699652777777
2.703271661874017,-97.22699652777777
2.704248277358798,-160.22699652777777
2.705224892843579,-197.22699652777777
2.70620150832836,-225.22699652777777
2.707178123813141,-184.22699652777777
2.7081547392979224,-178.22699652777777
2.7091313547827034,-175.22699652777777
2.7101079702674844,-180.22699652777777
2.7110845857522654,-47.22699652777777
2.7120612012370464,55.77300347222223
2.7130378167218274,89.77300347222223
2.7140144322066084,165.77300347222223
2.71499104769139,222.77300347222223
2.715967663176171,247.77300347222223
2.716944278660952,211.77300347222223
2.717920894145733,168.77300347222223
2.718897509630514,157.77300347222223
2.719874125115295,155.77300347222223
2.7208507406000764,35.77300347222223
2.7218273560848574,-61.22699652777777
2.7228039715696384,-91.22699652777777
2.7237805870544194,-165.22699652777777
2.7247572025392004,-199.22699652777777
2.7257338180239814,-221.22699652777777
2.7267104335087624,-186.22699652777777
2.727687048993544,-179.22699652777777
2.728663664478325,-177.22699652777777
2.729640279963106,-176.22699652777777
2.730616895447887,-47.22699652777777
2.731593510932668,58.77300347222223
2.732570126417449,92.77300347222223
2.7335467419022303,173.77300347222223
2.7345233573870114,220.77300347222223
2.7354999728717924,245.77300347222223
2.7364765883565734,202.77300347222223
2.7374532038413544,160.77300347222223
2.7384298193261354,160.77300347222223
2.7394064348109164,155.77300347222223
2.740383050295698,39.77300347222223
2.741359665780479,-66.22699652777777
2.74233628126526,-98.22699652777777
2.743312896750041,-161.22699652777777
2.744289512234822,-201.22699652777777
2.745266127719603,-221.22699652777777
2.7462427432043843,-187.22699652777777
2.7472193586891653,-174.22699652777777
2.7481959741739463,-174.22699652777777
2.7491725896587274,-174.22699652777777
2.7501492051435084,-46.22699652777777
2.7511258206282894,53.77300347222223
2.7521024361130704,91.77300347222223
2.753079051597852,174.77300347222223
2.754055667082633,219.77300347222223
2.755032282567414,248.77300347222223
2.756008898052195,207.77300347222223
2.756985513536976,167.77300347222223
2.757962129021757,156.77300347222223
2.7589387445065383,149.77300347222223
2.7599153599913193,30.77300347222223
2.7608919754761003,-65.22699652777777
2.7618685909608813,-93.22699652777777
2.7628452064456623,-159.22699652777777
2.7638218219304433,-204.22699652777777
2.7647984374152244,-228.22699652777777
2.765775052900006,-190.22699652777777
2.766751668384787,-180.22699652777777
2.767728283869568,-173.22699652777777
2.768704899354349,-176.22699652777777
2.76968151483913,-48.22699652777777
2.770658130323911,60.77300347222223
2.7716347458086923,90.77300347222223
2.7726113612934733,174.77300347222223
2.7735879767782543,222.77300347222223
2.7745645922630353,250.77300347222223
2.7755412077478163,210.77300347222223
2.7765178232325973,162.77300347222223
2.7774944387173783,152.77300347222223
2.77847105420216,146.77300347222223
2.779447669686941,30.77300347222223
2.780424285171722,-57.22699652777777
2.781400900656503,-94.22699652777777
2.782377516141284,-169.22699652777777
2.783354131626065,-204.22699652777777
2.7843307471108463,-217.22699652777777
2.7853073625956273,-182.22699652777777
2.7862839780804083,-173.22699652777777
2.7872605935651893,-175.22699652777777
2.7882372090499703,-173.22699652777777
2.7892138245347513,-43.22699652777777
2.7901904400195323,53.77300347222223
2.7911670555043138,86.77300347222223
2.7921436709890948,171.77300347222223
2.793120286473876,220.77300347222223
2.794096901958657,248.77300347222223
2.795073517443438,212.77300347222223
2.796050132928219,160.77300347222223
2.7970267484130003,154.77300347222223
2.7980033638977813,157.77300347222223
2.7989799793825623,35.77300347222223
2.7999565948673433,-64.22699652777777
2.8009332103521243,-94.22699652777777
2.8019098258369053,-170.22699652777777
2.8028864413216863,-207.22699652777777
2.8038630568064677,-223.22699652777777
2.8048396722912488,-183.22699652777777
2.8058162877760298,-173.22699652777777
2.8067929032608108,-177.22699652777777
2.8077695187455918,-175.22699652777777
2.808746134230373,-47.22699652777777
2.8097227497151542,60.77300347222223
2.8106993651999352,93.77300347222223
2.8116759806847162,171.77300347222223
2.8126525961694973,226.77300347222223
2.8136292116542783,247.77300347222223
2.8146058271390593,206.77300347222223
2.8155824426238403,167.77300347222223
2.8165590581086217,159.77300347222223
2.8175356735934027,154.77300347222223
2.8185122890781837,29.77300347222223
2.8194889045629647,-62.22699652777777
2.8204655200477458,-90.22699652777777
2.8214421355325268,-164.22699652777777
2.822418751017308,-202.22699652777777
2.823395366502089,-225.22699652777777
2.8243719819868702,-185.22699652777777
2.8253485974716512,-176.22699652777777
2.8263252129564322,-175.22699652777777
2.8273018284412132,-173.22699652777777
2.8282784439259943,-47.22699652777777
2.8292550594107757,58.77300347222223
2.8302316748955567,89.77300347222223
2.8312082903803377,174.77300347222223
2.8321849058651187,215.77300347222223
2.8331615213498997,244.77300347222223
2.8341381368346807,208.77300347222223
2.835114752319462,162.77300347222223
2.836091367804243,154.77300347222223
2.837067983289024,149.77300347222223
2.838044598773805,33.77300347222223
2.8390212142585862,-63.22699652777777
2.8399978297433672,-93.22699652777777
2.8409744452281482,-165.22699652777777
2.8419510607129297,-198.22699652777777
2.8429276761977107,-225.22699652777777
2.8439042916824917,-188.22699652777777
2.8448809071672727,-172.22699652777777
2.8458575226520537,-171.22699652777777
2.8468341381368347,-173.22699652777777
2.847810753621616,-48.22699652777777
2.848787369106397,55.77300347222223
2.849763984591178,90.77300347222223
2.850740600075959,171.77300347222223
2.85171721556074,213.77300347222223
2.852693831045521,249.77300347222223
2.853670446530302,207.77300347222223
2.8546470620150837,162.77300347222223
2.8556236774998647,158.77300347222223
2.8566002929846457,151.77300347222223
2.8575769084694267,31.77300347222223
2.8585535239542077,-65.22699652777777
2.8595301394389887,-93.22699652777777
2.86050675492377,-167.22699652777777
2.861483370408551,-206.22699652777777
2.862459985893332,-227.22699652777777
2.863436601378113,-185.22699652777777
2.864413216862894,-172.22699652777777
2.865389832347675,-177.22699652777777
2.866366447832456,-175.22699652777777
2.8673430633172377,-45.22699652777777
2.8683196788020187,57.77300347222223
2.8692962942867997,92.77300347222223
2.8702729097715807,167.77300347222223
2.8712495252563617,222.77300347222223
2.8722261407411427,245.77300347222223
2.873202756225924,208.77300347222223
2.874179371710705,166.77300347222223
2.875155987195486,164.77300347222223
2.876132602680267,160.77300347222223
2.877109218165048,28.77300347222223
2.878085833649829,-67.22699652777777
2.87906244913461,-97.22699652777777
2.8800390646193916,-160.22699652777777
2.8810156801041726,-205.22699652777777
2.8819922955889536,-221.22699652777777
2.8829689110737347,-188.22699652777777
2.8839455265585157,-181.22699652777777
2.8849221420432967,-178.22699652777777
2.885898757528078,-172.22699652777777
2.886875373012859,-45.22699652777777
2.88785198849764,61.77300347222223
2.888828603982421,96.77300347222223
2.889805219467202,171.77300347222223
2.890781834951983,221.77300347222223
2.891758450436764,254.77300347222223
2.8927350659215456,207.77300347222223
2.8937116814063266,163.77300347222223
2.8946882968911076,159.77300347222223
2.8956649123758886,156.77300347222223
2.8966415278606696,33.77300347222223
2.8976181433454506,-60.22699652777777
2.898594758830232,-94.22699652777777
2.899571374315013,-168.22699652777777
2.900547989799794,-209.22699652777777
2.901524605284575,-236.22699652777777
2.902501220769356,-189.22699652777777
2.903477836254137,-181.22699652777777
2.904454451738918,-175.22699652777777
2.9054310672236996,-168.22699652777777
2.9064076827084806,-44.22699652777777
2.9073842981932616,58.77300347222223
2.9083609136780426,96.77300347222223
2.9093375291628236,176.77300347222223
2.9103141446476046,228.77300347222223
2.911290760132386,252.77300347222223
2.912267375617167,205.77300347222223
2.913243991101948,165.77300347222223
2.914220606586729,162.77300347222223
2.91519722207151,152.77300347222223
2.916173837556291,32.77300347222223
2.917150453041072,-67.22699652777777
2.9181270685258536,-96.22699652777777
2.9191036840106346,-167.22699652777777
2.9200802994954156,-213.22699652777777
2.9210569149801966,-235.22699652777777
2.9220335304649776,-190.22699652777777
2.9230101459497586,-176.22699652777777
2.92398676143454,-176.22699652777777
2.924963376919321,-176.22699652777777
2.925939992404102,-44.22699652777777
2.926916607888883,60.77300347222223
2.927893223373664,95.77300347222223
2.928869838858445,176.77300347222223
2.929846454343226,224.77300347222223
2.9308230698280076,252.77300347222223
2.9317996853127886,208.77300347222223
2.9327763007975696,167.77300347222223
2.9337529162823506,167.77300347222223
2.9347295317671316,154.77300347222223
2.9357061472519126,37.77300347222223
2.936682762736694,-62.22699652777777
2.937659378221475,-98.22699652777777
2.938635993706256,-164.22699652777777
2.939612609191037,-210.22699652777777
2.940589224675818,-232.22699652777777
2.941565840160599,-194.22699652777777
2.94254245564538,-178.22699652777777
2.9435190711301615,-175.22699652777777
2.9444956866149425,-177.22699652777777
2.9454723020997235,-46.22699652777777
2.9464489175845046,55.77300347222223
2.9474255330692856,91.77300347222223
2.9484021485540666,176.77300347222223
2.949378764038848,236.77300347222223
2.950355379523629,251.77300347222223
2.95133199500841,215.77300347222223
2.952308610493191,164.77300347222223
2.953285225977972,161.77300347222223
2.954261841462753,156.77300347222223
2.955238456947534,33.77300347222223
2.9562150724323155,-64.22699652777777
2.9571916879170965,-98.22699652777777
2.9581683034018775,-171.22699652777777
2.9591449188866585,-212.22699652777777
2.9601215343714395,-236.22699652777777
2.9610981498562206,-189.22699652777777
2.962074765341002,-178.22699652777777
2.963051380825783,-178.22699652777777
2.964027996310564,-171.22699652777777
2.965004611795345,-47.22699652777777
2.965981227280126,58.77300347222223
2.966957842764907,95.77300347222223
2.967934458249688,175.77300347222223
2.9689110737344695,225.77300347222223
2.9698876892192505,254.77300347222223
2.9708643047040315,208.77300347222223
2.9718409201888125,170.77300347222223
2.9728175356735935,163.77300347222223
2.9737941511583745,159.77300347222223
2.974770766643156,30.77300347222223
2.975747382127937,-68.22699652777777
2.976723997612718,-100.22699652777777
2.977700613097499,-176.22699652777777
2.97867722858228,-211.22699652777777
2.979653844067061,-233.22699652777777
2.980630459551842,-192.22699652777777
2.9816070750366235,-181.22699652777777
2.9825836905214045,-178.22699652777777
2.9835603060061855,-177.22699652777777
2.9845369214909665,-44.22699652777777
2.9855135369757475,63.77300347222223
2.9864901524605285,95.77300347222223
2.98746676794531,175.77300347222223
2.988443383430091,236.77300347222223
2.989419998914872,258.77300347222223
2.990396614399653,212.77300347222223
2.991373229884434,171.77300347222223
2.992349845369215,161.77300347222223
2.993326460853996,156.77300347222223
2.9943030763387775,34.77300347222223
2.9952796918235585,-65.22699652777777
2.9962563073083395,-101.22699652777777
2.9972329227931205,-172.22699652777777
2.9982095382779015,-211.22699652777777
2.9991861537626825,-233.22699652777777
3.0001627692474635,-192.22699652777777
3.001139384732245,-184.22699652777777
3.002116000217026,-189.22699652777777
3.003092615701807,-176.22699652777777
3.004069231186588,-41.22699652777777
3.005045846671369,60.77300347222223
3.00602246215615,96.77300347222223
3.0069990776409314,179.77300347222223
3.0079756931257124,230.77300347222223
3.0089523086104935,256.77300347222223
3.0099289240952745,217.77300347222223
3.0109055395800555,168.77300347222223
3.0118821550648365,164.77300347222223
3.0128587705496175,157.77300347222223
3.013835386034399,33.77300347222223
3.01481200151918,-66.22699652777777
3.015788617003961,-106.22699652777777
3.016765232488742,-172.22699652777777
3.017741847973523,-214.22699652777777
3.018718463458304,-238.22699652777777
3.0196950789430854,-192.22699652777777
3.0206716944278664,-183.22699652777777
3.0216483099126474,-182.22699652777777
3.0226249253974284,-178.22699652777777
3.0236015408822094,-45.22699652777777
3.0245781563669905,66.77300347222223
3.0255547718517715,98.77300347222223
3.026531387336553,181.77300347222223
3.027508002821334,232.77300347222223
3.028484618306115,256.77300347222223
3.029461233790896,211.77300347222223
3.030437849275677,171.77300347222223
3.031414464760458,167.77300347222223
3.0323910802452394,159.77300347222223
3.0333676957300204,30.77300347222223
3.0343443112148014,-70.22699652777777
3.0353209266995824,-101.22699652777777
3.0362975421843634,-166.22699652777777
3.0372741576691444,-211.22699652777777
3.0382507731539254,-233.22699652777777
3.039227388638707,-197.22699652777777
3.040204004123488,-184.22699652777777
3.041180619608269,-183.22699652777777
3.04215723509305,-181.22699652777777
3.043133850577831,-41.22699652777777
3.044110466062612,61.77300347222223
3.0450870815473934,94.77300347222223
3.0460636970321744,177.77300347222223
3.0470403125169554,234.77300347222223
3.0480169280017364,262.77300347222223
3.0489935434865174,217.77300347222223
3.0499701589712984,171.77300347222223
3.0509467744560794,167.77300347222223
3.051923389940861,154.77300347222223
3.052900005425642,30.77300347222223
3.053876620910423,-71.22699652777777
3.054853236395204,-104.22699652777777
3.055829851879985,-171.22699652777777
3.056806467364766,-212.22699652777777
3.0577830828495474,-236.22699652777777
3.0587596983343284,-191.22699652777777
3.0597363138191094,-185.22699652777777
3.0607129293038904,-180.22699652777777
3.0616895447886714,-168.22699652777777
3.0626661602734524,-41.22699652777777
3.0636427757582334,60.77300347222223
3.064619391243015,99.77300347222223
3.065596006727796,184.77300347222223
3.066572622212577,235.77300347222223
3.067549237697358,255.77300347222223
3.068525853182139,215.77300347222223
3.06950246866692,169.77300347222223
3.0704790841517013,163.77300347222223
3.0714556996364824,155.77300347222223
3.0724323151212634,31.77300347222223
3.0734089306060444,-68.22699652777777
3.0743855460908254,-98.22699652777777
3.0753621615756064,-172.22699652777777
3.0763387770603874,-213.22699652777777
3.077315392545169,-236.22699652777777
3.07829200802995,-189.22699652777777
3.079268623514731,-181.22699652777777
