0,1,2,3,4,5,6,7,8,9
8.149106052193247,2.149106052193247,-7.850893947806753,-14.850893947806751,-23.850893947806753,-23.850893947806753,-17.850893947806753,-19.850893947806753,-22.850893947806753,-14.850893947806751
-3.8508939478067528,-1.8508939478067528,4.149106052193247,16.149106052193247,22.149106052193247,24.14910605219325,19.149106052193247,22.149106052193247,23.14910605219325,13.149106052193249
7.149106052193247,-3.8508939478067528,-9.850893947806751,-14.850893947806751,-22.850893947806753,-23.850893947806753,-20.850893947806753,-23.850893947806753,-17.850893947806753,-11.850893947806751
-7.850893947806753,-1.8508939478067528,11.149106052193249,16.149106052193247,20.149106052193247,24.14910605219325,17.149106052193247,22.149106052193247,24.14910605219325,12.149106052193249
5.149106052193247,0.1491060521932468,-6.850893947806753,-10.850893947806751,-23.850893947806753,-25.850893947806753,-18.850893947806753,-21.850893947806753,-18.850893947806753,-12.850893947806751
-6.850893947806753,0.1491060521932468,9.149106052193249,14.149106052193249,17.149106052193247,24.14910605219325,20.149106052193247,24.14910605219325,23.14910605219325,12.149106052193249
7.149106052193247,2.149106052193247,-9.850893947806751,-15.850893947806751,-23.850893947806753,-23.850893947806753,-18.850893947806753,-21.850893947806753,-23.850893947806753,-13.850893947806751
-4.850893947806753,-0.8508939478067532,5.149106052193247,12.149106052193249,20.149106052193247,24.14910605219325,21.149106052193247,23.14910605219325,21.149106052193247,16.149106052193247
7.149106052193247,-1.8508939478067528,-9.850893947806751,-14.850893947806751,-20.850893947806753,-22.850893947806753,-19.850893947806753,-21.850893947806753,-18.850893947806753,-12.850893947806751
-5.850893947806753,-1.8508939478067528,6.149106052193247,17.149106052193247,21.149106052193247,24.14910605219325,19.149106052193247,21.149106052193247,22.149106052193247,12.149106052193249
5.149106052193247,-1.8508939478067528,-5.850893947806753,-10.850893947806751,-23.850893947806753,-25.850893947806753,-21.850893947806753,-21.850893947806753,-18.850893947806753,-16.850893947806753
-7.850893947806753,3.1491060521932472,9.149106052193249,13.149106052193249,19.149106052193247,23.14910605219325,20.149106052193247,22.149106052193247,23.14910605219325,15.149106052193249
8.149106052193247,0.1491060521932468,-8.850893947806751,-16.850893947806753,-22.850893947806753,-21.850893947806753,-19.850893947806753,-20.850893947806753,-21.850893947806753,-12.850893947806751
-5.850893947806753,-2.8508939478067528,7.149106052193247,13.149106052193249,22.149106052193247,24.14910605219325,20.149106052193247,19.149106052193247,22.149106052193247,17.149106052193247
8.149106052193247,-0.8508939478067532,-11.850893947806751,-12.850893947806751,-20.850893947806753,-23.850893947806753,-20.850893947806753,-23.850893947806753,-19.850893947806753,-14.850893947806751
-7.850893947806753,-2.8508939478067528,8.149106052193247,17.149106052193247,22.149106052193247,25.14910605219325,20.149106052193247,22.149106052193247,25.14910605219325,13.149106052193249
3.1491060521932472,-1.8508939478067528,-7.850893947806753,-11.850893947806751,-23.850893947806753,-26.850893947806753,-19.850893947806753,-19.850893947806753,-19.850893947806753,-13.850893947806751
-6.850893947806753,3.1491060521932472,9.149106052193249,14.149106052193249,18.149106052193247,22.149106052193247,18.149106052193247,23.14910605219325,22.149106052193247,14.149106052193249
7.149106052193247,1.1491060521932468,-6.850893947806753,-13.850893947806751,-21.850893947806753,-24.850893947806753,-17.850893947806753,-23.850893947806753,-21.850893947806753,-10.850893947806751
-2.8508939478067528,0.1491060521932468,3.1491060521932472,13.149106052193249,23.14910605219325,24.14910605219325,18.149106052193247,19.149106052193247,21.149106052193247,14.149106052193249
9.149106052193249,-1.8508939478067528,-10.850893947806751,-13.850893947806751,-23.850893947806753,-23.850893947806753,-19.850893947806753,-23.850893947806753,-19.850893947806753,-13.850893947806751
-7.850893947806753,-1.8508939478067528,7.149106052193247,13.149106052193249,20.149106052193247,24.14910605219325,18.149106052193247,21.149106052193247,24.14910605219325,17.149106052193247
8.149106052193247,0.1491060521932468,-6.850893947806753,-13.850893947806751,-21.850893947806753,-24.850893947806753,-19.850893947806753,-21.850893947806753,-17.850893947806753,-15.850893947806751
-8.850893947806751,-1.8508939478067528,8.149106052193247,16.149106052193247,21.149106052193247,22.149106052193247,20.149106052193247,23.14910605219325,24.14910605219325,16.149106052193247
5.149106052193247,-1.8508939478067528,-9.850893947806751,-13.850893947806751,-20.850893947806753,-26.850893947806753,-19.850893947806753,-22.850893947806753,-20.850893947806753,-14.850893947806751
-5.850893947806753,3.1491060521932472,9.149106052193249,15.149106052193249,19.149106052193247,23.14910605219325,20.149106052193247,22.149106052193247,20.149106052193247,14.149106052193249
7.149106052193247,2.149106052193247,-7.850893947806753,-12.850893947806751,-21.850893947806753,-24.850893947806753,-19.850893947806753,-20.850893947806753,-19.850893947806753,-13.850893947806751
-6.850893947806753,0.1491060521932468,7.149106052193247,12.149106052193249,19.149106052193247,23.14910605219325,19.149106052193247,21.149106052193247,22.149106052193247,11.149106052193249
6.149106052193247,-1.8508939478067528,-5.850893947806753,-11.850893947806751,-20.850893947806753,-23.850893947806753,-18.850893947806753,-21.850893947806753,-19.850893947806753,-15.850893947806751
-5.850893947806753,-1.8508939478067528,8.149106052193247,14.149106052193249,20.149106052193247,24.14910605219325,18.149106052193247,23.14910605219325,23.14910605219325,12.149106052193249
7.149106052193247,0.1491060521932468,-7.850893947806753,-11.850893947806751,-23.850893947806753,-23.850893947806753,-19.850893947806753,-20.850893947806753,-19.850893947806753,-13.850893947806751
-4.850893947806753,-2.8508939478067528,9.149106052193249,15.149106052193249,19.149106052193247,24.14910605219325,19.149106052193247,22.149106052193247,24.14910605219325,14.149106052193249
5.149106052193247,-0.8508939478067532,-7.850893947806753,-13.850893947806751,-22.850893947806753,-24.850893947806753,-19.850893947806753,-19.850893947806753,-19.850893947806753,-14.850893947806751
-4.850893947806753,-0.8508939478067532,6.149106052193247,12.149106052193249,20.149106052193247,23.14910605219325,19.149106052193247,22.149106052193247,24.14910605219325,14.149106052193249
5.149106052193247,1.1491060521932468,-8.850893947806751,-12.850893947806751,-21.850893947806753,-23.850893947806753,-20.850893947806753,-22.850893947806753,-20.850893947806753,-15.850893947806751
-5.850893947806753,-0.8508939478067532,6.149106052193247,13.149106052193249,18.149106052193247,23.14910605219325,17.149106052193247,23.14910605219325,24.14910605219325,13.149106052193249
7.149106052193247,3.1491060521932472,-7.850893947806753,-12.850893947806751,-20.850893947806753,-23.850893947806753,-19.850893947806753,-22.850893947806753,-19.850893947806753,-12.850893947806751
-5.850893947806753,-1.8508939478067528,6.149106052193247,12.149106052193249,20.149106052193247,24.14910605219325,21.149106052193247,22.149106052193247,22.149106052193247,14.149106052193249
6.149106052193247,1.1491060521932468,-7.850893947806753,-13.850893947806751,-19.850893947806753,-23.850893947806753,-20.850893947806753,-20.850893947806753,-19.850893947806753,-14.850893947806751
-5.850893947806753,-2.8508939478067528,6.149106052193247,15.149106052193249,22.149106052193247,23.14910605219325,17.149106052193247,23.14910605219325,21.149106052193247,14.149106052193249
4.149106052193247,1.1491060521932468,-6.850893947806753,-14.850893947806751,-21.850893947806753,-22.850893947806753,-20.850893947806753,-20.850893947806753,-19.850893947806753,-14.850893947806751
-3.8508939478067528,-1.8508939478067528,7.149106052193247,14.149106052193249,17.149106052193247,24.14910605219325,20.149106052193247,22.149106052193247,21.149106052193247,14.149106052193249
8.149106052193247,-1.8508939478067528,-7.850893947806753,-11.850893947806751,-22.850893947806753,-25.850893947806753,-20.850893947806753,-22.850893947806753,-19.850893947806753,-12.850893947806751
-3.8508939478067528,-2.8508939478067528,6.149106052193247,14.149106052193249,17.149106052193247,24.14910605219325,19.149106052193247,23.14910605219325,24.14910605219325,13.149106052193249
7.149106052193247,1.1491060521932468,-8.850893947806751,-11.850893947806751,-19.850893947806753,-24.850893947806753,-21.850893947806753,-21.850893947806753,-19.850893947806753,-15.850893947806751
-5.850893947806753,1.1491060521932468,8.149106052193247,13.149106052193249,21.149106052193247,25.14910605219325,20.149106052193247,24.14910605219325,24.14910605219325,10.149106052193249
6.149106052193247,0.1491060521932468,-9.850893947806751,-15.850893947806751,-22.850893947806753,-23.850893947806753,-19.850893947806753,-21.850893947806753,-21.850893947806753,-12.850893947806751
-5.850893947806753,0.1491060521932468,6.149106052193247,16.149106052193247,20.149106052193247,27.14910605219325,18.149106052193247,22.149106052193247,23.14910605219325,13.149106052193249
6.149106052193247,0.1491060521932468,-9.850893947806751,-12.850893947806751,-19.850893947806753,-23.850893947806753,-18.850893947806753,-20.850893947806753,-21.850893947806753,-14.850893947806751
-8.850893947806751,0.1491060521932468,5.149106052193247,14.149106052193249,19.149106052193247,24.14910605219325,20.149106052193247,24.14910605219325,23.14910605219325,17.149106052193247
9.149106052193249,1.1491060521932468,-8.850893947806751,-11.850893947806751,-21.850893947806753,-24.850893947806753,-19.850893947806753,-22.850893947806753,-21.850893947806753,-15.850893947806751
-5.850893947806753,-0.8508939478067532,7.149106052193247,15.149106052193249,18.149106052193247,23.14910605219325,19.149106052193247,20.149106052193247,22.149106052193247,16.149106052193247
9.149106052193249,2.149106052193247,-7.850893947806753,-13.850893947806751,-22.850893947806753,-23.850893947806753,-21.850893947806753,-19.850893947806753,-20.850893947806753,-15.850893947806751
-6.850893947806753,1.1491060521932468,8.149106052193247,17.149106052193247,22.149106052193247,24.14910605219325,20.149106052193247,23.14910605219325,23.14910605219325,12.149106052193249
5.149106052193247,1.1491060521932468,-8.850893947806751,-15.850893947806751,-19.850893947806753,-23.850893947806753,-17.850893947806753,-19.850893947806753,-19.850893947806753,-14.850893947806751
-5.850893947806753,-0.8508939478067532,8.149106052193247,12.149106052193249,20.149106052193247,26.14910605219325,19.149106052193247,20.149106052193247,23.14910605219325,14.149106052193249
8.149106052193247,-0.8508939478067532,-7.850893947806753,-13.850893947806751,-20.850893947806753,-22.850893947806753,-20.850893947806753,-21.850893947806753,-19.850893947806753,-15.850893947806751
-7.850893947806753,-1.8508939478067528,9.149106052193249,16.149106052193247,20.149106052193247,26.14910605219325,19.149106052193247,22.149106052193247,24.14910605219325,13.149106052193249
6.149106052193247,-0.8508939478067532,-8.850893947806751,-11.850893947806751,-22.850893947806753,-25.850893947806753,-19.850893947806753,-19.850893947806753,-19.850893947806753,-14.850893947806751
-4.850893947806753,-0.8508939478067532,6.149106052193247,13.149106052193249,20.149106052193247,25.14910605219325,19.149106052193247,22.149106052193247,22.149106052193247,15.149106052193249
8.149106052193247,-0.8508939478067532,-7.850893947806753,-11.850893947806751,-21.850893947806753,-25.850893947806753,-21.850893947806753,-20.850893947806753,-19.850893947806753,-12.850893947806751
-7.850893947806753,-3.8508939478067528,6.149106052193247,13.149106052193249,18.149106052193247,24.14910605219325,20.149106052193247,20.149106052193247,23.14910605219325,16.149106052193247
9.149106052193249,1.1491060521932468,-7.850893947806753,-10.850893947806751,-18.850893947806753,-24.850893947806753,-19.850893947806753,-20.850893947806753,-18.850893947806753,-14.850893947806751
-6.850893947806753,-2.8508939478067528,8.149106052193247,12.149106052193249,19.149106052193247,22.149106052193247,18.149106052193247,21.149106052193247,22.149106052193247,13.149106052193249
6.149106052193247,-0.8508939478067532,-8.850893947806751,-10.850893947806751,-21.850893947806753,-25.850893947806753,-21.850893947806753,-21.850893947806753,-20.850893947806753,-14.850893947806751
-4.850893947806753,-1.8508939478067528,8.149106052193247,13.149106052193249,20.149106052193247,23.14910605219325,19.149106052193247,23.14910605219325,23.14910605219325,16.149106052193247
8.149106052193247,0.1491060521932468,-5.850893947806753,-11.850893947806751,-21.850893947806753,-21.850893947806753,-19.850893947806753,-23.850893947806753,-20.850893947806753,-13.850893947806751
-4.850893947806753,-1.8508939478067528,6.149106052193247,13.149106052193249,20.149106052193247,23.14910605219325,19.149106052193247,20.149106052193247,23.14910605219325,14.149106052193249
6.149106052193247,1.1491060521932468,-7.850893947806753,-13.850893947806751,-20.850893947806753,-25.850893947806753,-20.850893947806753,-21.850893947806753,-19.850893947806753,-16.850893947806753
-7.850893947806753,1.1491060521932468,6.149106052193247,13.149106052193249,23.14910605219325,24.14910605219325,19.149106052193247,22.149106052193247,23.14910605219325,12.149106052193249
6.149106052193247,0.1491060521932468,-7.850893947806753,-11.850893947806751,-20.850893947806753,-23.850893947806753,-21.850893947806753,-22.850893947806753,-20.850893947806753,-15.850893947806751
-5.850893947806753,-1.8508939478067528,7.149106052193247,16.149106052193247,19.149106052193247,24.14910605219325,21.149106052193247,22.149106052193247,24.14910605219325,15.149106052193249
8.149106052193247,-0.8508939478067532,-6.850893947806753,-11.850893947806751,-21.850893947806753,-24.850893947806753,-22.850893947806753,-21.850893947806753,-22.850893947806753,-16.850893947806753
-3.8508939478067528,0.1491060521932468,8.149106052193247,16.149106052193247,20.149106052193247,22.149106052193247,19.149106052193247,22.149106052193247,24.14910605219325,14.149106052193249
10.149106052193249,1.1491060521932468,-9.850893947806751,-14.850893947806751,-19.850893947806753,-23.850893947806753,-21.850893947806753,-23.850893947806753,-19.850893947806753,-14.850893947806751
-6.850893947806753,-2.8508939478067528,5.149106052193247,14.149106052193249,20.149106052193247,24.14910605219325,23.14910605219325,24.14910605219325,25.14910605219325,14.149106052193249
8.149106052193247,-0.8508939478067532,-7.850893947806753,-14.850893947806751,-23.850893947806753,-26.850893947806753,-19.850893947806753,-20.850893947806753,-18.850893947806753,-13.850893947806751
-7.850893947806753,-2.8508939478067528,8.149106052193247,13.149106052193249,18.149106052193247,24.14910605219325,19.149106052193247,21.149106052193247,24.14910605219325,13.149106052193249
6.149106052193247,3.1491060521932472,-8.850893947806751,-10.850893947806751,-21.850893947806753,-23.850893947806753,-20.850893947806753,-22.850893947806753,-21.850893947806753,-15.850893947806751
-6.850893947806753,-1.8508939478067528,5.149106052193247,15.149106052193249,18.149106052193247,24.14910605219325,20.149106052193247,22.149106052193247,23.14910605219325,13.149106052193249
7.149106052193247,2.149106052193247,-6.850893947806753,-14.850893947806751,-21.850893947806753,-21.850893947806753,-19.850893947806753,-22.850893947806753,-21.850893947806753,-14.850893947806751
-5.850893947806753,-1.8508939478067528,8.149106052193247,12.149106052193249,19.149106052193247,25.14910605219325,21.149106052193247,22.149106052193247,27.14910605219325,13.149106052193249
8.149106052193247,0.1491060521932468,-4.850893947806753,-15.850893947806751,-22.850893947806753,-26.850893947806753,-18.850893947806753,-20.850893947806753,-21.850893947806753,-16.850893947806753
-6.850893947806753,-2.8508939478067528,7.149106052193247,16.149106052193247,19.149106052193247,25.14910605219325,20.149106052193247,22.149106052193247,25.14910605219325,14.149106052193249
6.149106052193247,-0.8508939478067532,-7.850893947806753,-12.850893947806751,-20.850893947806753,-25.850893947806753,-20.850893947806753,-19.850893947806753,-17.850893947806753,-14.850893947806751
-4.850893947806753,-1.8508939478067528,7.149106052193247,12.149106052193249,20.149106052193247,25.14910605219325,20.149106052193247,20.149106052193247,25.14910605219325,14.149106052193249
9.149106052193249,3.1491060521932472,-5.850893947806753,-12.850893947806751,-20.850893947806753,-25.850893947806753,-20.850893947806753,-22.850893947806753,-21.850893947806753,-16.850893947806753
-4.850893947806753,-1.8508939478067528,8.149106052193247,13.149106052193249,20.149106052193247,25.14910605219325,17.149106052193247,24.14910605219325,24.14910605219325,15.149106052193249
6.149106052193247,0.1491060521932468,-7.850893947806753,-10.850893947806751,-22.850893947806753,-23.850893947806753,-20.850893947806753,-22.850893947806753,-22.850893947806753,-15.850893947806751
-6.850893947806753,-1.8508939478067528,4.149106052193247,14.149106052193249,18.149106052193247,21.149106052193247,21.149106052193247,21.149106052193247,24.14910605219325,15.149106052193249
8.149106052193247,2.149106052193247,-6.850893947806753,-11.850893947806751,-20.850893947806753,-25.850893947806753,-22.850893947806753,-21.850893947806753,-21.850893947806753,-13.850893947806751
-6.850893947806753,-1.8508939478067528,7.149106052193247,14.149106052193249,20.149106052193247,24.14910605219325,20.149106052193247,20.149106052193247,22.149106052193247,17.149106052193247
8.149106052193247,1.1491060521932468,-6.850893947806753,-12.850893947806751,-18.850893947806753,-26.850893947806753,-20.850893947806753,-23.850893947806753,-19.850893947806753,-12.850893947806751
-5.850893947806753,-2.8508939478067528,6.149106052193247,14.149106052193249,17.149106052193247,25.14910605219325,17.149106052193247,24.14910605219325,23.14910605219325,12.149106052193249
8.149106052193247,1.1491060521932468,-7.850893947806753,-13.850893947806751,-19.850893947806753,-22.850893947806753,-18.850893947806753,-19.850893947806753,-22.850893947806753,-14.850893947806751
-8.850893947806751,-0.8508939478067532,8.149106052193247,12.149106052193249,19.149106052193247,24.14910605219325,19.149106052193247,21.149106052193247,24.14910605219325,15.149106052193249
9.149106052193249,0.1491060521932468,-5.850893947806753,-12.850893947806751,-22.850893947806753,-23.850893947806753,-19.850893947806753,-20.850893947806753,-20.850893947806753,-14.850893947806751
-6.850893947806753,-2.8508939478067528,6.149106052193247,12.149106052193249,20.149106052193247,25.14910605219325,20.149106052193247,21.149106052193247,23.14910605219325,14.149106052193249
6.149106052193247,0.1491060521932468,-6.850893947806753,-11.850893947806751,-19.850893947806753,-25.850893947806753,-20.850893947806753,-19.850893947806753,-21.850893947806753,-14.850893947806751
-5.850893947806753,0.1491060521932468,5.149106052193247,15.149106052193249,20.149106052193247,24.14910605219325,21.149106052193247,23.14910605219325,23.14910605219325,15.149106052193249
7.149106052193247,2.149106052193247,-6.850893947806753,-14.850893947806751,-22.850893947806753,-25.850893947806753,-20.850893947806753,-21.850893947806753,-21.850893947806753,-14.850893947806751
-7.850893947806753,-1.8508939478067528,4.149106052193247,12.149106052193249,19.149106052193247,23.14910605219325,21.149106052193247,20.149106052193247,23.14910605219325,14.149106052193249
5.149106052193247,0.1491060521932468,-4.850893947806753,-10.850893947806751,-19.850893947806753,-24.850893947806753,-19.850893947806753,-19.850893947806753,-19.850893947806753,-17.850893947806753
-6.850893947806753,-3.8508939478067528,6.149106052193247,15.149106052193249,19.149106052193247,22.149106052193247,20.149106052193247,23.14910605219325,23.14910605219325,12.149106052193249
8.149106052193247,2.149106052193247,-7.850893947806753,-10.850893947806751,-19.850893947806753,-23.850893947806753,-20.850893947806753,-20.850893947806753,-18.850893947806753,-17.850893947806753
-5.850893947806753,-0.8508939478067532,5.149106052193247,12.149106052193249,18.149106052193247,27.14910605219325,20.149106052193247,23.14910605219325,24.14910605219325,14.149106052193249
8.149106052193247,1.1491060521932468,-4.850893947806753,-13.850893947806751,-20.850893947806753,-22.850893947806753,-22.850893947806753,-20.850893947806753,-20.850893947806753,-15.850893947806751
-7.850893947806753,-4.850893947806753,6.149106052193247,13.149106052193249,20.149106052193247,23.14910605219325,19.149106052193247,21.149106052193247,26.14910605219325,16.149106052193247
8.149106052193247,2.149106052193247,-5.850893947806753,-12.850893947806751,-23.850893947806753,-26.850893947806753,-19.850893947806753,-19.850893947806753,-20.850893947806753,-16.850893947806753
-8.850893947806751,-0.8508939478067532,7.149106052193247,13.149106052193249,19.149106052193247,23.14910605219325,21.149106052193247,20.149106052193247,24.14910605219325,13.149106052193249
9.149106052193249,1.1491060521932468,-6.850893947806753,-11.850893947806751,-21.850893947806753,-23.850893947806753,-19.850893947806753,-20.850893947806753,-23.850893947806753,-16.850893947806753
-6.850893947806753,-0.8508939478067532,6.149106052193247,14.149106052193249,17.149106052193247,24.14910605219325,22.149106052193247,20.149106052193247,24.14910605219325,16.149106052193247
7.149106052193247,1.1491060521932468,-6.850893947806753,-11.850893947806751,-22.850893947806753,-27.850893947806753,-20.850893947806753,-21.850893947806753,-21.850893947806753,-14.850893947806751
-5.850893947806753,-2.8508939478067528,6.149106052193247,14.149106052193249,18.149106052193247,24.14910605219325,22.149106052193247,20.149106052193247,22.149106052193247,13.149106052193249
9.149106052193249,1.1491060521932468,-6.850893947806753,-14.850893947806751,-20.850893947806753,-24.850893947806753,-19.850893947806753,-23.850893947806753,-19.850893947806753,-16.850893947806753
-6.850893947806753,-1.8508939478067528,7.149106052193247,12.149106052193249,19.149106052193247,22.149106052193247,20.149106052193247,22.149106052193247,25.14910605219325,15.149106052193249
11.149106052193249,2.149106052193247,-7.850893947806753,-10.850893947806751,-21.850893947806753,-23.850893947806753,-21.850893947806753,-19.850893947806753,-19.850893947806753,-14.850893947806751
-6.850893947806753,-1.8508939478067528,6.149106052193247,14.149106052193249,17.149106052193247,24.14910605219325,18.149106052193247,23.14910605219325,24.14910605219325,15.149106052193249
8.149106052193247,2.149106052193247,-7.850893947806753,-11.850893947806751,-20.850893947806753,-25.850893947806753,-20.850893947806753,-20.850893947806753,-21.850893947806753,-15.850893947806751
-5.850893947806753,0.1491060521932468,6.149106052193247,13.149106052193249,19.149106052193247,24.14910605219325,18.149106052193247,23.14910605219325,26.14910605219325,16.149106052193247
8.149106052193247,2.149106052193247,-4.850893947806753,-10.850893947806751,-21.850893947806753,-25.850893947806753,-19.850893947806753,-19.850893947806753,-22.850893947806753,-17.850893947806753
-6.850893947806753,-2.8508939478067528,5.149106052193247,12.149106052193249,17.149106052193247,23.14910605219325,20.149106052193247,21.149106052193247,25.14910605219325,15.149106052193249
8.149106052193247,-0.8508939478067532,-7.850893947806753,-12.850893947806751,-22.850893947806753,-23.850893947806753,-21.850893947806753,-19.850893947806753,-19.850893947806753,-14.850893947806751
-6.850893947806753,-2.8508939478067528,8.149106052193247,13.149106052193249,19.149106052193247,22.149106052193247,21.149106052193247,23.14910605219325,23.14910605219325,15.149106052193249
6.149106052193247,2.149106052193247,-5.850893947806753,-9.850893947806751,-20.850893947806753,-26.850893947806753,-20.850893947806753,-19.850893947806753,-22.850893947806753,-14.850893947806751
-8.850893947806751,-3.8508939478067528,5.149106052193247,13.149106052193249,18.149106052193247,25.14910605219325,20.149106052193247,20.149106052193247,24.14910605219325,16.149106052193247
8.149106052193247,2.149106052193247,-6.850893947806753,-10.850893947806751,-22.850893947806753,-22.850893947806753,-17.850893947806753,-23.850893947806753,-19.850893947806753,-14.850893947806751
-8.850893947806751,-2.8508939478067528,5.149106052193247,13.149106052193249,18.149106052193247,24.14910605219325,20.149106052193247,21.149106052193247,27.14910605219325,14.149106052193249
9.149106052193249,3.1491060521932472,-4.850893947806753,-10.850893947806751,-20.850893947806753,-24.850893947806753,-19.850893947806753,-19.850893947806753,-21.850893947806753,-14.850893947806751
-6.850893947806753,-0.8508939478067532,1.1491060521932468,14.149106052193249,16.149106052193247,25.14910605219325,20.149106052193247,22.149106052193247,24.14910605219325,16.149106052193247
7.149106052193247,1.1491060521932468,-5.850893947806753,-11.850893947806751,-18.850893947806753,-23.850893947806753,-20.850893947806753,-21.850893947806753,-19.850893947806753,-15.850893947806751
-5.850893947806753,-2.8508939478067528,5.149106052193247,15.149106052193249,18.149106052193247,22.149106052193247,20.149106052193247,21.149106052193247,23.14910605219325,14.149106052193249
6.149106052193247,2.149106052193247,-7.850893947806753,-12.850893947806751,-22.850893947806753,-26.850893947806753,-19.850893947806753,-18.850893947806753,-19.850893947806753,-14.850893947806751
-8.850893947806751,-2.8508939478067528,6.149106052193247,14.149106052193249,19.149106052193247,23.14910605219325,20.149106052193247,23.14910605219325,23.14910605219325,17.149106052193247
6.149106052193247,2.149106052193247,-7.850893947806753,-11.850893947806751,-20.850893947806753,-23.850893947806753,-19.850893947806753,-19.850893947806753,-20.850893947806753,-15.850893947806751
-7.850893947806753,-2.8508939478067528,6.149106052193247,13.149106052193249,20.149106052193247,24.14910605219325,18.149106052193247,19.149106052193247,25.14910605219325,16.149106052193247
8.149106052193247,4.149106052193247,-6.850893947806753,-11.850893947806751,-20.850893947806753,-23.850893947806753,-20.850893947806753,-23.850893947806753,-18.850893947806753,-15.850893947806751
-8.850893947806751,-2.8508939478067528,6.149106052193247,14.149106052193249,17.149106052193247,27.14910605219325,18.149106052193247,20.149106052193247,24.14910605219325,16.149106052193247
8.149106052193247,4.149106052193247,-5.850893947806753,-10.850893947806751,-20.850893947806753,-24.850893947806753,-21.850893947806753,-19.850893947806753,-22.850893947806753,-15.850893947806751
-8.850893947806751,-2.8508939478067528,6.149106052193247,15.149106052193249,20.149106052193247,24.14910605219325,20.149106052193247,20.149106052193247,24.14910605219325,16.149106052193247
9.149106052193249,3.1491060521932472,-8.850893947806751,-12.850893947806751,-20.850893947806753,-23.850893947806753,-20.850893947806753,-19.850893947806753,-18.850893947806753,-16.850893947806753
-7.850893947806753,-2.8508939478067528,5.149106052193247,12.149106052193249,18.149106052193247,22.149106052193247,20.149106052193247,19.149106052193247,24.14910605219325,16.149106052193247
8.149106052193247,2.149106052193247,-4.850893947806753,-10.850893947806751,-19.850893947806753,-24.850893947806753,-21.850893947806753,-21.850893947806753,-21.850893947806753,-18.850893947806753
-6.850893947806753,-0.8508939478067532,5.149106052193247,14.149106052193249,18.149106052193247,23.14910605219325,20.149106052193247,22.149106052193247,22.149106052193247,14.149106052193249
9.149106052193249,2.149106052193247,-7.850893947806753,-10.850893947806751,-23.850893947806753,-23.850893947806753,-20.850893947806753,-20.850893947806753,-19.850893947806753,-16.850893947806753
-7.850893947806753,-1.8508939478067528,5.149106052193247,14.149106052193249,17.149106052193247,24.14910605219325,20.149106052193247,19.149106052193247,24.14910605219325,14.149106052193249
9.149106052193249,1.1491060521932468,-6.850893947806753,-10.850893947806751,-21.850893947806753,-24.850893947806753,-22.850893947806753,-20.850893947806753,-20.850893947806753,-13.850893947806751
-7.850893947806753,-0.8508939478067532,7.149106052193247,14.149106052193249,17.149106052193247,24.14910605219325,20.149106052193247,21.149106052193247,26.14910605219325,16.149106052193247
6.149106052193247,3.1491060521932472,-5.850893947806753,-11.850893947806751,-20.850893947806753,-23.850893947806753,-19.850893947806753,-20.850893947806753,-21.850893947806753,-19.850893947806753
-10.850893947806751,-0.8508939478067532,4.149106052193247,15.149106052193249,18.149106052193247,26.14910605219325,19.149106052193247,20.149106052193247,23.14910605219325,15.149106052193249
9.149106052193249,2.149106052193247,-6.850893947806753,-12.850893947806751,-22.850893947806753,-26.850893947806753,-20.850893947806753,-20.850893947806753,-18.850893947806753,-14.850893947806751
-8.850893947806751,-0.8508939478067532,5.149106052193247,12.149106052193249,19.149106052193247,23.14910605219325,21.149106052193247,20.149106052193247,25.14910605219325,15.149106052193249
8.149106052193247,1.1491060521932468,-4.850893947806753,-13.850893947806751,-19.850893947806753,-25.850893947806753,-18.850893947806753,-21.850893947806753,-19.850893947806753,-16.850893947806753
-7.850893947806753,-1.8508939478067528,6.149106052193247,13.149106052193249,19.149106052193247,26.14910605219325,18.149106052193247,20.149106052193247,24.14910605219325,17.149106052193247
8.149106052193247,1.1491060521932468,-6.850893947806753,-10.850893947806751,-19.850893947806753,-27.850893947806753,-20.850893947806753,-19.850893947806753,-19.850893947806753,-16.850893947806753
-7.850893947806753,-1.8508939478067528,6.149106052193247,14.149106052193249,18.149106052193247,25.14910605219325,20.149106052193247,22.149106052193247,24.14910605219325,14.149106052193249
9.149106052193249,1.1491060521932468,-5.850893947806753,-11.850893947806751,-20.850893947806753,-24.850893947806753,-19.850893947806753,-22.850893947806753,-19.850893947806753,-15.850893947806751
-9.850893947806751,-2.8508939478067528,5.149106052193247,11.149106052193249,19.149106052193247,24.14910605219325,20.149106052193247,21.149106052193247,25.14910605219325,16.149106052193247
8.149106052193247,2.149106052193247,-5.850893947806753,-11.850893947806751,-19.850893947806753,-23.850893947806753,-22.850893947806753,-21.850893947806753,-19.850893947806753,-15.850893947806751
-7.850893947806753,-2.8508939478067528,4.149106052193247,12.149106052193249,17.149106052193247,22.149106052193247,20.149106052193247,19.149106052193247,22.149106052193247,18.149106052193247
11.149106052193249,1.1491060521932468,-5.850893947806753,-10.850893947806751,-20.850893947806753,-23.850893947806753,-22.850893947806753,-22.850893947806753,-21.850893947806753,-16.850893947806753
-7.850893947806753,-2.8508939478067528,5.149106052193247,13.149106052193249,19.149106052193247,25.14910605219325,18.149106052193247,19.149106052193247,24.14910605219325,19.149106052193247
8.149106052193247,3.1491060521932472,-4.850893947806753,-10.850893947806751,-21.850893947806753,-23.850893947806753,-20.850893947806753,-20.850893947806753,-20.850893947806753,-15.850893947806751
-9.850893947806751,-4.850893947806753,5.149106052193247,13.149106052193249,17.149106052193247,23.14910605219325,19.149106052193247,21.149106052193247,25.14910605219325,18.149106052193247
10.149106052193249,1.1491060521932468,-5.850893947806753,-10.850893947806751,-19.850893947806753,-24.850893947806753,-19.850893947806753,-20.850893947806753,-21.850893947806753,-15.850893947806751
-8.850893947806751,-3.8508939478067528,6.149106052193247,14.149106052193249,17.149106052193247,23.14910605219325,21.149106052193247,20.149106052193247,22.149106052193247,15.149106052193249
7.149106052193247,3.1491060521932472,-5.850893947806753,-12.850893947806751,-20.850893947806753,-24.850893947806753,-20.850893947806753,-19.850893947806753,-19.850893947806753,-15.850893947806751
-7.850893947806753,-3.8508939478067528,5.149106052193247,13.149106052193249,19.149106052193247,24.14910605219325,20.149106052193247,22.149106052193247,24.14910605219325,16.149106052193247
9.149106052193249,4.149106052193247,-2.8508939478067528,-11.850893947806751,-19.850893947806753,-24.850893947806753,-19.850893947806753,-20.850893947806753,-21.850893947806753,-17.850893947806753
-8.850893947806751,-4.850893947806753,5.149106052193247,12.149106052193249,17.149106052193247,23.14910605219325,20.149106052193247,23.14910605219325,25.14910605219325,17.149106052193247
9.149106052193249,3.1491060521932472,-5.850893947806753,-12.850893947806751,-20.850893947806753,-23.850893947806753,-22.850893947806753,-20.850893947806753,-20.850893947806753,-16.850893947806753
-5.850893947806753,-1.8508939478067528,6.149106052193247,13.149106052193249,17.149106052193247,24.14910605219325,21.149106052193247,20.149106052193247,23.14910605219325,14.149106052193249
8.149106052193247,2.149106052193247,-6.850893947806753,-10.850893947806751,-21.850893947806753,-22.850893947806753,-21.850893947806753,-18.850893947806753,-19.850893947806753,-16.850893947806753
-8.850893947806751,-1.8508939478067528,5.149106052193247,12.149106052193249,18.149106052193247,26.14910605219325,23.14910605219325,21.149106052193247,23.14910605219325,15.149106052193249
6.149106052193247,3.1491060521932472,-5.850893947806753,-11.850893947806751,-19.850893947806753,-25.850893947806753,-20.850893947806753,-21.850893947806753,-20.850893947806753,-17.850893947806753
-7.850893947806753,-4.850893947806753,5.149106052193247,13.149106052193249,18.149106052193247,22.149106052193247,21.149106052193247,20.149106052193247,24.14910605219325,18.149106052193247
10.149106052193249,4.149106052193247,-4.850893947806753,-11.850893947806751,-19.850893947806753,-25.850893947806753,-21.850893947806753,-19.850893947806753,-19.850893947806753,-15.850893947806751
-8.850893947806751,0.1491060521932468,5.149106052193247,12.149106052193249,16.149106052193247,24.14910605219325,20.149106052193247,22.149106052193247,24.14910605219325,15.149106052193249
9.149106052193249,1.1491060521932468,-4.850893947806753,-11.850893947806751,-19.850893947806753,-23.850893947806753,-19.850893947806753,-21.850893947806753,-21.850893947806753,-15.850893947806751
-6.850893947806753,-2.8508939478067528,5.149106052193247,14.149106052193249,18.149106052193247,23.14910605219325,20.149106052193247,20.149106052193247,23.14910605219325,16.149106052193247
10.149106052193249,1.1491060521932468,-3.8508939478067528,-11.850893947806751,-20.850893947806753,-23.850893947806753,-19.850893947806753,-20.850893947806753,-21.850893947806753,-19.850893947806753
-9.850893947806751,-2.8508939478067528,6.149106052193247,12.149106052193249,18.149106052193247,24.14910605219325,20.149106052193247,21.149106052193247,27.14910605219325,19.149106052193247
8.149106052193247,1.1491060521932468,-7.850893947806753,-12.850893947806751,-21.850893947806753,-23.850893947806753,-20.850893947806753,-19.850893947806753,-21.850893947806753,-18.850893947806753
-9.850893947806751,-2.8508939478067528,5.149106052193247,14.149106052193249,20.149106052193247,23.14910605219325,19.149106052193247,21.149106052193247,24.14910605219325,17.149106052193247
9.149106052193249,5.149106052193247,-7.850893947806753,-11.850893947806751,-18.850893947806753,-23.850893947806753,-18.850893947806753,-20.850893947806753,-19.850893947806753,-16.850893947806753
-9.850893947806751,-1.8508939478067528,5.149106052193247,13.149106052193249,15.149106052193249,25.14910605219325,21.149106052193247,19.149106052193247,25.14910605219325,15.149106052193249
6.149106052193247,2.149106052193247,-5.850893947806753,-12.850893947806751,-19.850893947806753,-24.850893947806753,-20.850893947806753,-22.850893947806753,-20.850893947806753,-14.850893947806751
-7.850893947806753,-3.8508939478067528,6.149106052193247,12.149106052193249,18.149106052193247,24.14910605219325,19.149106052193247,21.149106052193247,24.14910605219325,17.149106052193247
7.149106052193247,5.149106052193247,-2.8508939478067528,-10.850893947806751,-20.850893947806753,-25.850893947806753,-20.850893947806753,-22.850893947806753,-20.850893947806753,-15.850893947806751
-7.850893947806753,-0.8508939478067532,3.1491060521932472,11.149106052193249,16.149106052193247,24.14910605219325,18.149106052193247,21.149106052193247,24.14910605219325,17.149106052193247
8.149106052193247,1.1491060521932468,-3.8508939478067528,-10.850893947806751,-20.850893947806753,-23.850893947806753,-19.850893947806753,-21.850893947806753,-20.850893947806753,-17.850893947806753
-6.850893947806753,-2.8508939478067528,3.1491060521932472,11.149106052193249,17.149106052193247,25.14910605219325,23.14910605219325,21.149106052193247,24.14910605219325,17.149106052193247
8.149106052193247,0.1491060521932468,-7.850893947806753,-13.850893947806751,-19.850893947806753,-22.850893947806753,-23.850893947806753,-19.850893947806753,-19.850893947806753,-17.850893947806753
-10.850893947806751,-2.8508939478067528,6.149106052193247,12.149106052193249,17.149106052193247,24.14910605219325,21.149106052193247,22.149106052193247,24.14910605219325,15.149106052193249
7.149106052193247,3.1491060521932472,-6.850893947806753,-9.850893947806751,-18.850893947806753,-22.850893947806753,-23.850893947806753,-20.850893947806753,-22.850893947806753,-19.850893947806753
-9.850893947806751,-2.8508939478067528,6.149106052193247,14.149106052193249,19.149106052193247,19.149106052193247,15.149106052193249,26.14910605219325,30.14910605219325,19.149106052193247
10.149106052193249,0.1491060521932468,-5.850893947806753,-11.850893947806751,-21.850893947806753,-26.850893947806753,-22.850893947806753,-23.850893947806753,-20.850893947806753,-14.850893947806751
-10.850893947806751,-2.8508939478067528,4.149106052193247,14.149106052193249,14.149106052193249,23.14910605219325,22.149106052193247,20.149106052193247,22.149106052193247,16.149106052193247
10.149106052193249,2.149106052193247,-5.850893947806753,-12.850893947806751,-20.850893947806753,-23.850893947806753,-22.850893947806753,-17.850893947806753,-20.850893947806753,-15.850893947806751
-7.850893947806753,-2.8508939478067528,5.149106052193247,12.149106052193249,19.149106052193247,24.14910605219325,20.149106052193247,23.14910605219325,24.14910605219325,14.149106052193249
10.149106052193249,2.149106052193247,-4.850893947806753,-13.850893947806751,-19.850893947806753,-24.850893947806753,-20.850893947806753,-18.850893947806753,-21.850893947806753,-15.850893947806751
-7.850893947806753,-1.8508939478067528,3.1491060521932472,14.149106052193249,19.149106052193247,23.14910605219325,21.149106052193247,21.149106052193247,25.14910605219325,17.149106052193247
9.149106052193249,1.1491060521932468,-6.850893947806753,-12.850893947806751,-19.850893947806753,-23.850893947806753,-23.850893947806753,-21.850893947806753,-20.850893947806753,-18.850893947806753
-7.850893947806753,-1.8508939478067528,6.149106052193247,11.149106052193249,18.149106052193247,24.14910605219325,22.149106052193247,22.149106052193247,24.14910605219325,15.149106052193249
8.149106052193247,4.149106052193247,-4.850893947806753,-10.850893947806751,-21.850893947806753,-23.850893947806753,-22.850893947806753,-19.850893947806753,-19.850893947806753,-18.850893947806753
-6.850893947806753,-2.8508939478067528,4.149106052193247,14.149106052193249,17.149106052193247,24.14910605219325,22.149106052193247,22.149106052193247,24.14910605219325,16.149106052193247
9.149106052193249,2.149106052193247,-7.850893947806753,-11.850893947806751,-18.850893947806753,-23.850893947806753,-20.850893947806753,-20.850893947806753,-19.850893947806753,-15.850893947806751
-9.850893947806751,-3.8508939478067528,4.149106052193247,13.149106052193249,15.149106052193249,24.14910605219325,22.149106052193247,20.149106052193247,23.14910605219325,16.149106052193247
8.149106052193247,2.149106052193247,-4.850893947806753,-10.850893947806751,-19.850893947806753,-24.850893947806753,-19.850893947806753,-19.850893947806753,-21.850893947806753,-17.850893947806753
-8.850893947806751,-2.8508939478067528,3.1491060521932472,13.149106052193249,17.149106052193247,25.14910605219325,20.149106052193247,19.149106052193247,24.14910605219325,17.149106052193247
10.149106052193249,1.1491060521932468,-5.850893947806753,-13.850893947806751,-19.850893947806753,-22.850893947806753,-21.850893947806753,-19.850893947806753,-19.850893947806753,-16.850893947806753
-6.850893947806753,-2.8508939478067528,5.149106052193247,12.149106052193249,16.149106052193247,24.14910605219325,20.149106052193247,20.149106052193247,23.14910605219325,17.149106052193247
8.149106052193247,1.1491060521932468,-3.8508939478067528,-12.850893947806751,-21.850893947806753,-22.850893947806753,-22.850893947806753,-19.850893947806753,-20.850893947806753,-14.850893947806751
-6.850893947806753,-2.8508939478067528,5.149106052193247,12.149106052193249,14.149106052193249,22.149106052193247,21.149106052193247,21.149106052193247,23.14910605219325,17.149106052193247
9.149106052193249,3.1491060521932472,-5.850893947806753,-10.850893947806751,-19.850893947806753,-25.850893947806753,-20.850893947806753,-20.850893947806753,-22.850893947806753,-15.850893947806751
-7.850893947806753,-4.850893947806753,3.1491060521932472,14.149106052193249,18.149106052193247,27.14910605219325,20.149106052193247,20.149106052193247,23.14910605219325,17.149106052193247
9.149106052193249,3.1491060521932472,-4.850893947806753,-11.850893947806751,-19.850893947806753,-23.850893947806753,-21.850893947806753,-22.850893947806753,-21.850893947806753,-18.850893947806753
-8.850893947806751,-3.8508939478067528,6.149106052193247,12.149106052193249,17.149106052193247,25.14910605219325,21.149106052193247,20.149106052193247,25.14910605219325,17.149106052193247
9.149106052193249,3.1491060521932472,-5.850893947806753,-12.850893947806751,-19.850893947806753,-26.850893947806753,-22.850893947806753,-19.850893947806753,-19.850893947806753,-17.850893947806753
-8.850893947806751,-2.8508939478067528,4.149106052193247,10.149106052193249,17.149106052193247,22.149106052193247,21.149106052193247,23.14910605219325,27.14910605219325,16.149106052193247
8.149106052193247,4.149106052193247,-4.850893947806753,-9.850893947806751,-19.850893947806753,-23.850893947806753,-20.850893947806753,-21.850893947806753,-21.850893947806753,-18.850893947806753
-9.850893947806751,-3.8508939478067528,7.149106052193247,13.149106052193249,17.149106052193247,24.14910605219325,22.149106052193247,20.149106052193247,25.14910605219325,18.149106052193247
10.149106052193249,4.149106052193247,-4.850893947806753,-10.850893947806751,-20.850893947806753,-23.850893947806753,-23.850893947806753,-20.850893947806753,-20.850893947806753,-16.850893947806753
-9.850893947806751,-1.8508939478067528,7.149106052193247,12.149106052193249,19.149106052193247,24.14910605219325,21.149106052193247,20.149106052193247,25.14910605219325,15.149106052193249
10.149106052193249,1.1491060521932468,-4.850893947806753,-10.850893947806751,-18.850893947806753,-23.850893947806753,-21.850893947806753,-20.850893947806753,-20.850893947806753,-20.850893947806753
-4.850893947806753,-3.8508939478067528,6.149106052193247,13.149106052193249,17.149106052193247,23.14910605219325,20.149106052193247,21.149106052193247,23.14910605219325,17.149106052193247
10.149106052193249,4.149106052193247,-4.850893947806753,-13.850893947806751,-20.850893947806753,-26.850893947806753,-23.850893947806753,-20.850893947806753,-20.850893947806753,-14.850893947806751
-8.850893947806751,-3.8508939478067528,5.149106052193247,11.149106052193249,17.149106052193247,25.14910605219325,22.149106052193247,22.149106052193247,27.14910605219325,18.149106052193247
9.149106052193249,4.149106052193247,-3.8508939478067528,-9.850893947806751,-19.850893947806753,-25.850893947806753,-19.850893947806753,-19.850893947806753,-21.850893947806753,-18.850893947806753
-9.850893947806751,-2.8508939478067528,5.149106052193247,11.149106052193249,17.149106052193247,23.14910605219325,21.149106052193247,20.149106052193247,23.14910605219325,16.149106052193247
11.149106052193249,2.149106052193247,-5.850893947806753,-14.850893947806751,-21.850893947806753,-23.850893947806753,-22.850893947806753,-19.850893947806753,-20.850893947806753,-16.850893947806753
-8.850893947806751,0.1491060521932468,7.149106052193247,14.149106052193249,14.149106052193249,25.14910605219325,21.149106052193247,21.149106052193247,23.14910605219325,17.149106052193247
8.149106052193247,4.149106052193247,-4.850893947806753,-12.850893947806751,-19.850893947806753,-25.850893947806753,-22.850893947806753,-19.850893947806753,-22.850893947806753,-17.850893947806753
-8.850893947806751,-2.8508939478067528,7.149106052193247,11.149106052193249,16.149106052193247,23.14910605219325,22.149106052193247,21.149106052193247,22.149106052193247,16.149106052193247
9.149106052193249,3.1491060521932472,-3.8508939478067528,-9.850893947806751,-18.850893947806753,-22.850893947806753,-20.850893947806753,-17.850893947806753,-22.850893947806753,-19.850893947806753
-9.850893947806751,-5.850893947806753,4.149106052193247,13.149106052193249,17.149106052193247,26.14910605219325,19.149106052193247,20.149106052193247,25.14910605219325,16.149106052193247
9.149106052193249,1.1491060521932468,-7.850893947806753,-12.850893947806751,-19.850893947806753,-23.850893947806753,-22.850893947806753,-20.850893947806753,-21.850893947806753,-18.850893947806753
-7.850893947806753,-1.8508939478067528,3.1491060521932472,12.149106052193249,17.149106052193247,24.14910605219325,20.149106052193247,20.149106052193247,24.14910605219325,17.149106052193247
10.149106052193249,4.149106052193247,-4.850893947806753,-9.850893947806751,-19.850893947806753,-23.850893947806753,-20.850893947806753,-18.850893947806753,-20.850893947806753,-17.850893947806753
-7.850893947806753,-2.8508939478067528,3.1491060521932472,12.149106052193249,17.149106052193247,24.14910605219325,20.149106052193247,19.149106052193247,24.14910605219325,16.149106052193247
9.149106052193249,1.1491060521932468,-5.850893947806753,-11.850893947806751,-20.850893947806753,-23.850893947806753,-20.850893947806753,-18.850893947806753,-20.850893947806753,-19.850893947806753
-7.850893947806753,-2.8508939478067528,3.1491060521932472,13.149106052193249,18.149106052193247,24.14910605219325,22.149106052193247,21.149106052193247,23.14910605219325,20.149106052193247
9.149106052193249,3.1491060521932472,-3.8508939478067528,-12.850893947806751,-20.850893947806753,-25.850893947806753,-19.850893947806753,-19.850893947806753,-22.850893947806753,-19.850893947806753
-7.850893947806753,-2.8508939478067528,5.149106052193247,11.149106052193249,14.149106052193249,21.149106052193247,20.149106052193247,20.149106052193247,24.14910605219325,18.149106052193247
10.149106052193249,3.1491060521932472,-5.850893947806753,-10.850893947806751,-16.850893947806753,-23.850893947806753,-19.850893947806753,-20.850893947806753,-20.850893947806753,-18.850893947806753
-9.850893947806751,-3.8508939478067528,3.1491060521932472,14.149106052193249,17.149106052193247,27.14910605219325,23.14910605219325,19.149106052193247,26.14910605219325,16.149106052193247
11.149106052193249,4.149106052193247,-5.850893947806753,-12.850893947806751,-20.850893947806753,-23.850893947806753,-19.850893947806753,-19.850893947806753,-21.850893947806753,-15.850893947806751
-8.850893947806751,-3.8508939478067528,8.149106052193247,12.149106052193249,16.149106052193247,25.14910605219325,22.149106052193247,19.149106052193247,24.14910605219325,16.149106052193247
8.149106052193247,2.149106052193247,-4.850893947806753,-9.850893947806751,-20.850893947806753,-25.850893947806753,-20.850893947806753,-19.850893947806753,-22.850893947806753,-18.850893947806753
-8.850893947806751,-2.8508939478067528,4.149106052193247,12.149106052193249,17.149106052193247,21.149106052193247,19.149106052193247,22.149106052193247,26.14910605219325,16.149106052193247
9.149106052193249,3.1491060521932472,-4.850893947806753,-11.850893947806751,-19.850893947806753,-25.850893947806753,-22.850893947806753,-17.850893947806753,-22.850893947806753,-15.850893947806751
-8.850893947806751,-0.8508939478067532,5.149106052193247,12.149106052193249,14.149106052193249,24.14910605219325,21.149106052193247,20.149106052193247,23.14910605219325,17.149106052193247
10.149106052193249,-1.8508939478067528,-3.8508939478067528,-9.850893947806751,-19.850893947806753,-23.850893947806753,-20.850893947806753,-19.850893947806753,-20.850893947806753,-18.850893947806753
-7.850893947806753,-2.8508939478067528,3.1491060521932472,12.149106052193249,17.149106052193247,24.14910605219325,21.149106052193247,20.149106052193247,23.14910605219325,18.149106052193247
9.149106052193249,2.149106052193247,-5.850893947806753,-7.850893947806753,-16.850893947806753,-26.850893947806753,-20.850893947806753,-21.850893947806753,-21.850893947806753,-20.850893947806753
-6.850893947806753,-2.8508939478067528,2.149106052193247,11.149106052193249,15.149106052193249,22.149106052193247,22.149106052193247,20.149106052193247,22.149106052193247,17.149106052193247
9.149106052193249,4.149106052193247,-3.8508939478067528,-10.850893947806751,-19.850893947806753,-25.850893947806753,-21.850893947806753,-20.850893947806753,-21.850893947806753,-19.850893947806753
-5.850893947806753,-2.8508939478067528,4.149106052193247,14.149106052193249,17.149106052193247,23.14910605219325,20.149106052193247,21.149106052193247,25.14910605219325,17.149106052193247
8.149106052193247,2.149106052193247,-4.850893947806753,-9.850893947806751,-18.850893947806753,-25.850893947806753,-23.850893947806753,-17.850893947806753,-19.850893947806753,-17.850893947806753
-7.850893947806753,-2.8508939478067528,2.149106052193247,14.149106052193249,17.149106052193247,24.14910605219325,20.149106052193247,20.149106052193247,25.14910605219325,16.149106052193247
10.149106052193249,2.149106052193247,-4.850893947806753,-12.850893947806751,-17.850893947806753,-23.850893947806753,-20.850893947806753,-19.850893947806753,-20.850893947806753,-17.850893947806753
-9.850893947806751,-1.8508939478067528,3.1491060521932472,13.149106052193249,15.149106052193249,24.14910605219325,20.149106052193247,20.149106052193247,22.149106052193247,17.149106052193247
11.149106052193249,5.149106052193247,-6.850893947806753,-10.850893947806751,-19.850893947806753,-24.850893947806753,-19.850893947806753,-17.850893947806753,-20.850893947806753,-19.850893947806753
-8.850893947806751,-2.8508939478067528,3.1491060521932472,11.149106052193249,14.149106052193249,23.14910605219325,21.149106052193247,20.149106052193247,23.14910605219325,18.149106052193247
9.149106052193249,3.1491060521932472,-5.850893947806753,-9.850893947806751,-16.850893947806753,-25.850893947806753,-22.850893947806753,-17.850893947806753,-20.850893947806753,-18.850893947806753
-10.850893947806751,-4.850893947806753,4.149106052193247,13.149106052193249,16.149106052193247,24.14910605219325,21.149106052193247,20.149106052193247,25.14910605219325,16.149106052193247
10.149106052193249,3.1491060521932472,-5.850893947806753,-11.850893947806751,-19.850893947806753,-24.850893947806753,-23.850893947806753,-19.850893947806753,-20.850893947806753,-17.850893947806753
-7.850893947806753,-4.850893947806753,5.149106052193247,10.149106052193249,16.149106052193247,25.14910605219325,20.149106052193247,20.149106052193247,24.14910605219325,17.149106052193247
12.149106052193249,4.149106052193247,-3.8508939478067528,-10.850893947806751,-18.850893947806753,-23.850893947806753,-21.850893947806753,-20.850893947806753,-22.850893947806753,-17.850893947806753
-7.850893947806753,-2.8508939478067528,3.1491060521932472,10.149106052193249,16.149106052193247,23.14910605219325,22.149106052193247,20.149106052193247,25.14910605219325,20.149106052193247
11.149106052193249,3.1491060521932472,-3.8508939478067528,-9.850893947806751,-20.850893947806753,-24.850893947806753,-21.850893947806753,-19.850893947806753,-18.850893947806753,-20.850893947806753
-10.850893947806751,-3.8508939478067528,5.149106052193247,13.149106052193249,17.149106052193247,22.149106052193247,20.149106052193247,20.149106052193247,26.14910605219325,19.149106052193247
9.149106052193249,3.1491060521932472,-3.8508939478067528,-12.850893947806751,-20.850893947806753,-26.850893947806753,-21.850893947806753,-17.850893947806753,-22.850893947806753,-19.850893947806753
-6.850893947806753,-2.8508939478067528,5.149106052193247,11.149106052193249,16.149106052193247,24.14910605219325,23.14910605219325,19.149106052193247,24.14910605219325,19.149106052193247
12.149106052193249,3.1491060521932472,-4.850893947806753,-10.850893947806751,-18.850893947806753,-25.850893947806753,-22.850893947806753,-19.850893947806753,-21.850893947806753,-20.850893947806753
-8.850893947806751,-1.8508939478067528,4.149106052193247,12.149106052193249,16.149106052193247,24.14910605219325,20.149106052193247,19.149106052193247,23.14910605219325,17.149106052193247
9.149106052193249,4.149106052193247,-4.850893947806753,-10.850893947806751,-19.850893947806753,-25.850893947806753,-20.850893947806753,-19.850893947806753,-19.850893947806753,-16.850893947806753
-9.850893947806751,-1.8508939478067528,3.1491060521932472,12.149106052193249,17.149106052193247,23.14910605219325,20.149106052193247,20.149106052193247,23.14910605219325,18.149106052193247
10.149106052193249,2.149106052193247,-2.8508939478067528,-9.850893947806751,-19.850893947806753,-25.850893947806753,-21.850893947806753,-18.850893947806753,-19.850893947806753,-17.850893947806753
-8.850893947806751,-2.8508939478067528,2.149106052193247,14.149106052193249,18.149106052193247,22.149106052193247,21.149106052193247,18.149106052193247,24.14910605219325,17.149106052193247
8.149106052193247,3.1491060521932472,-3.8508939478067528,-9.850893947806751,-19.850893947806753,-24.850893947806753,-23.850893947806753,-19.850893947806753,-19.850893947806753,-17.850893947806753
-9.850893947806751,-3.8508939478067528,2.149106052193247,12.149106052193249,16.149106052193247,24.14910605219325,22.149106052193247,20.149106052193247,25.14910605219325,18.149106052193247
8.149106052193247,3.1491060521932472,-2.8508939478067528,-11.850893947806751,-19.850893947806753,-21.850893947806753,-21.850893947806753,-19.850893947806753,-22.850893947806753,-19.850893947806753
-10.850893947806751,-4.850893947806753,4.149106052193247,11.149106052193249,16.149106052193247,24.14910605219325,20.149106052193247,20.149106052193247,24.14910605219325,19.149106052193247
10.149106052193249,1.1491060521932468,-7.850893947806753,-12.850893947806751,-19.850893947806753,-24.850893947806753,-19.850893947806753,-17.850893947806753,-20.850893947806753,-15.850893947806751
-9.850893947806751,-2.8508939478067528,5.149106052193247,12.149106052193249,17.149106052193247,24.14910605219325,22.149106052193247,18.149106052193247,22.149106052193247,18.149106052193247
11.149106052193249,4.149106052193247,-5.850893947806753,-11.850893947806751,-18.850893947806753,-24.850893947806753,-23.850893947806753,-19.850893947806753,-20.850893947806753,-14.850893947806751
-9.850893947806751,-2.8508939478067528,3.1491060521932472,11.149106052193249,14.149106052193249,22.149106052193247,20.149106052193247,20.149106052193247,26.14910605219325,18.149106052193247
9.149106052193249,2.149106052193247,-3.8508939478067528,-10.850893947806751,-16.850893947806753,-23.850893947806753,-21.850893947806753,-17.850893947806753,-21.850893947806753,-18.850893947806753
-10.850893947806751,-1.8508939478067528,4.149106052193247,11.149106052193249,16.149106052193247,23.14910605219325,20.149106052193247,21.149106052193247,26.14910605219325,20.149106052193247
11.149106052193249,2.149106052193247,-4.850893947806753,-13.850893947806751,-19.850893947806753,-26.850893947806753,-18.850893947806753,-12.850893947806751,-19.850893947806753,-19.850893947806753
-6.850893947806753,-2.8508939478067528,-0.8508939478067532,5.149106052193247,11.149106052193249,20.149106052193247,22.149106052193247,21.149106052193247,27.14910605219325,20.149106052193247
11.149106052193249,2.149106052193247,-6.850893947806753,-11.850893947806751,-19.850893947806753,-23.850893947806753,-20.850893947806753,-16.850893947806753,-19.850893947806753,-16.850893947806753
-9.850893947806751,-2.8508939478067528,4.149106052193247,11.149106052193249,14.149106052193249,24.14910605219325,21.149106052193247,20.149106052193247,22.149106052193247,20.149106052193247
11.149106052193249,3.1491060521932472,-2.8508939478067528,-10.850893947806751,-17.850893947806753,-23.850893947806753,-21.850893947806753,-19.850893947806753,-21.850893947806753,-17.850893947806753
-7.850893947806753,-2.8508939478067528,4.149106052193247,11.149106052193249,16.149106052193247,24.14910605219325,20.149106052193247,20.149106052193247,25.14910605219325,17.149106052193247
9.149106052193249,3.1491060521932472,-4.850893947806753,-11.850893947806751,-17.850893947806753,-25.850893947806753,-23.850893947806753,-20.850893947806753,-20.850893947806753,-17.850893947806753
-8.850893947806751,-1.8508939478067528,4.149106052193247,11.149106052193249,14.149106052193249,25.14910605219325,23.14910605219325,18.149106052193247,22.149106052193247,17.149106052193247
11.149106052193249,4.149106052193247,-3.8508939478067528,-13.850893947806751,-20.850893947806753,-22.850893947806753,-21.850893947806753,-20.850893947806753,-22.850893947806753,-17.850893947806753
-7.850893947806753,-2.8508939478067528,4.149106052193247,11.149106052193249,15.149106052193249,28.14910605219325,23.14910605219325,18.149106052193247,24.14910605219325,17.149106052193247
10.149106052193249,3.1491060521932472,-4.850893947806753,-11.850893947806751,-19.850893947806753,-22.850893947806753,-20.850893947806753,-19.850893947806753,-20.850893947806753,-18.850893947806753
-9.850893947806751,-4.850893947806753,4.149106052193247,12.149106052193249,15.149106052193249,24.14910605219325,20.149106052193247,20.149106052193247,24.14910605219325,18.149106052193247
10.149106052193249,2.149106052193247,-4.850893947806753,-10.850893947806751,-15.850893947806751,-22.850893947806753,-22.850893947806753,-20.850893947806753,-21.850893947806753,-15.850893947806751
-9.850893947806751,-5.850893947806753,3.1491060521932472,11.149106052193249,16.149106052193247,21.149106052193247,22.149106052193247,18.149106052193247,25.14910605219325,17.149106052193247
10.149106052193249,3.1491060521932472,-3.8508939478067528,-12.850893947806751,-19.850893947806753,-23.850893947806753,-19.850893947806753,-20.850893947806753,-20.850893947806753,-18.850893947806753
-10.850893947806751,-1.8508939478067528,2.149106052193247,11.149106052193249,16.149106052193247,24.14910605219325,23.14910605219325,19.149106052193247,25.14910605219325,19.149106052193247
11.149106052193249,1.1491060521932468,-4.850893947806753,-8.850893947806751,-16.850893947806753,-24.850893947806753,-22.850893947806753,-19.850893947806753,-22.850893947806753,-17.850893947806753
-9.850893947806751,-3.8508939478067528,4.149106052193247,11.149106052193249,15.149106052193249,23.14910605219325,20.149106052193247,20.149106052193247,25.14910605219325,17.149106052193247
8.149106052193247,2.149106052193247,-2.8508939478067528,-10.850893947806751,-17.850893947806753,-23.850893947806753,-22.850893947806753,-18.850893947806753,-21.850893947806753,-19.850893947806753
-7.850893947806753,-0.8508939478067532,4.149106052193247,11.149106052193249,17.149106052193247,24.14910605219325,20.149106052193247,17.149106052193247,23.14910605219325,19.149106052193247
11.149106052193249,2.149106052193247,-3.8508939478067528,-11.850893947806751,-17.850893947806753,-22.850893947806753,-21.850893947806753,-17.850893947806753,-20.850893947806753,-18.850893947806753
-9.850893947806751,-3.8508939478067528,5.149106052193247,12.149106052193249,13.149106052193249,21.149106052193247,20.149106052193247,18.149106052193247,23.14910605219325,16.149106052193247
9.149106052193249,4.149106052193247,-4.850893947806753,-10.850893947806751,-19.850893947806753,-21.850893947806753,-22.850893947806753,-19.850893947806753,-20.850893947806753,-20.850893947806753
-9.850893947806751,-5.850893947806753,4.149106052193247,11.149106052193249,16.149106052193247,24.14910605219325,22.149106052193247,20.149106052193247,24.14910605219325,18.149106052193247
11.149106052193249,4.149106052193247,-3.8508939478067528,-9.850893947806751,-15.850893947806751,-24.850893947806753,-23.850893947806753,-18.850893947806753,-23.850893947806753,-19.850893947806753
-10.850893947806751,-3.8508939478067528,4.149106052193247,11.149106052193249,14.149106052193249,22.149106052193247,21.149106052193247,20.149106052193247,22.149106052193247,18.149106052193247
12.149106052193249,4.149106052193247,-3.8508939478067528,-10.850893947806751,-17.850893947806753,-24.850893947806753,-23.850893947806753,-19.850893947806753,-19.850893947806753,-17.850893947806753
-10.850893947806751,-1.8508939478067528,3.1491060521932472,12.149106052193249,15.149106052193249,24.14910605219325,23.14910605219325,20.149106052193247,22.149106052193247,20.149106052193247
9.149106052193249,4.149106052193247,-3.8508939478067528,-11.850893947806751,-18.850893947806753,-24.850893947806753,-20.850893947806753,-19.850893947806753,-20.850893947806753,-17.850893947806753
-8.850893947806751,-2.8508939478067528,4.149106052193247,13.149106052193249,14.149106052193249,25.14910605219325,20.149106052193247,20.149106052193247,25.14910605219325,17.149106052193247
11.149106052193249,3.1491060521932472,-4.850893947806753,-11.850893947806751,-18.850893947806753,-24.850893947806753,-21.850893947806753,-19.850893947806753,-19.850893947806753,-19.850893947806753
-8.850893947806751,-2.8508939478067528,3.1491060521932472,13.149106052193249,13.149106052193249,23.14910605219325,21.149106052193247,19.149106052193247,25.14910605219325,17.149106052193247
12.149106052193249,4.149106052193247,-2.8508939478067528,-8.850893947806751,-20.850893947806753,-25.850893947806753,-24.850893947806753,-19.850893947806753,-22.850893947806753,-19.850893947806753
-6.850893947806753,0.1491060521932468,4.149106052193247,13.149106052193249,14.149106052193249,23.14910605219325,19.149106052193247,19.149106052193247,24.14910605219325,17.149106052193247
11.149106052193249,5.149106052193247,-4.850893947806753,-10.850893947806751,-18.850893947806753,-24.850893947806753,-21.850893947806753,-17.850893947806753,-21.850893947806753,-18.850893947806753
-7.850893947806753,-1.8508939478067528,4.149106052193247,12.149106052193249,15.149106052193249,27.14910605219325,20.149106052193247,19.149106052193247,23.14910605219325,19.149106052193247
10.149106052193249,2.149106052193247,-4.850893947806753,-9.850893947806751,-19.850893947806753,-23.850893947806753,-22.850893947806753,-19.850893947806753,-19.850893947806753,-19.850893947806753
-10.850893947806751,-1.8508939478067528,5.149106052193247,13.149106052193249,14.149106052193249,23.14910605219325,22.149106052193247,19.149106052193247,23.14910605219325,20.149106052193247
10.149106052193249,3.1491060521932472,-7.850893947806753,-9.850893947806751,-18.850893947806753,-24.850893947806753,-22.850893947806753,-18.850893947806753,-19.850893947806753,-19.850893947806753
-8.850893947806751,-2.8508939478067528,4.149106052193247,12.149106052193249,17.149106052193247,24.14910605219325,21.149106052193247,19.149106052193247,23.14910605219325,17.149106052193247
10.149106052193249,4.149106052193247,-3.8508939478067528,-9.850893947806751,-18.850893947806753,-25.850893947806753,-21.850893947806753,-21.850893947806753,-20.850893947806753,-18.850893947806753
-8.850893947806751,-2.8508939478067528,3.1491060521932472,11.149106052193249,14.149106052193249,25.14910605219325,23.14910605219325,21.149106052193247,26.14910605219325,18.149106052193247
9.149106052193249,2.149106052193247,-3.8508939478067528,-12.850893947806751,-18.850893947806753,-23.850893947806753,-23.850893947806753,-19.850893947806753,-19.850893947806753,-20.850893947806753
-10.850893947806751,-2.8508939478067528,5.149106052193247,13.149106052193249,14.149106052193249,23.14910605219325,24.14910605219325,22.149106052193247,24.14910605219325,17.149106052193247
11.149106052193249,4.149106052193247,-7.850893947806753,-10.850893947806751,-19.850893947806753,-25.850893947806753,-24.850893947806753,-19.850893947806753,-21.850893947806753,-17.850893947806753
-7.850893947806753,-2.8508939478067528,3.1491060521932472,14.149106052193249,17.149106052193247,27.14910605219325,22.149106052193247,19.149106052193247,23.14910605219325,19.149106052193247
8.149106052193247,3.1491060521932472,-4.850893947806753,-10.850893947806751,-18.850893947806753,-25.850893947806753,-26.850893947806753,-21.850893947806753,-19.850893947806753,-17.850893947806753
-11.850893947806751,-4.850893947806753,4.149106052193247,13.149106052193249,16.149106052193247,26.14910605219325,23.14910605219325,22.149106052193247,27.14910605219325,17.149106052193247
10.149106052193249,4.149106052193247,-4.850893947806753,-10.850893947806751,-19.850893947806753,-26.850893947806753,-22.850893947806753,-20.850893947806753,-22.850893947806753,-20.850893947806753
-7.850893947806753,-2.8508939478067528,3.1491060521932472,12.149106052193249,20.149106052193247,21.149106052193247,21.149106052193247,18.149106052193247,26.14910605219325,23.14910605219325
17.149106052193247,9.149106052193249,3.1491060521932472,-6.850893947806753,-17.850893947806753,-30.850893947806753,-34.850893947806746,-30.850893947806753,-34.850893947806746,-32.850893947806746
-21.850893947806753,-10.850893947806751,0.1491060521932468,14.149106052193249,22.149106052193247,38.149106052193254,35.149106052193254,33.149106052193254,42.149106052193254,33.149106052193254
19.149106052193247,10.149106052193249,-1.8508939478067528,-12.850893947806751,-27.850893947806753,-38.850893947806746,-39.850893947806746,-31.850893947806753,-39.850893947806746,-33.850893947806746
-19.850893947806753,-9.850893947806751,0.1491060521932468,14.149106052193249,23.14910605219325,38.149106052193254,39.149106052193254,36.149106052193254,44.149106052193254,36.149106052193254
21.149106052193247,12.149106052193249,-2.8508939478067528,-13.850893947806751,-26.850893947806753,-42.850893947806746,-42.850893947806746,-39.850893947806746,-44.850893947806746,-39.850893947806746
-21.850893947806753,-8.850893947806751,5.149106052193247,17.149106052193247,24.14910605219325,46.149106052193254,43.149106052193254,39.149106052193254,46.149106052193254,36.149106052193254
23.14910605219325,9.149106052193249,-4.850893947806753,-13.850893947806751,-26.850893947806753,-47.850893947806746,-46.850893947806746,-40.850893947806746,-43.850893947806746,-35.850893947806746
-22.850893947806753,-9.850893947806751,3.1491060521932472,17.149106052193247,29.14910605219325,49.149106052193254,46.149106052193254,41.149106052193254,47.149106052193254,39.149106052193254
24.14910605219325,8.149106052193247,-4.850893947806753,-17.850893947806753,-31.850893947806753,-47.850893947806746,-47.850893947806746,-41.850893947806746,-44.850893947806746,-39.850893947806746
-22.850893947806753,-6.850893947806753,4.149106052193247,15.149106052193249,30.14910605219325,50.149106052193254,47.149106052193254,44.149106052193254,49.149106052193254,39.149106052193254
24.14910605219325,7.149106052193247,-7.850893947806753,-18.850893947806753,-31.850893947806753,-48.850893947806746,-48.850893947806746,-42.850893947806746,-47.850893947806746,-41.850893947806746
-22.850893947806753,-7.850893947806753,4.149106052193247,19.149106052193247,29.14910605219325,52.149106052193254,48.149106052193254,43.149106052193254,49.149106052193254,42.149106052193254
23.14910605219325,7.149106052193247,-6.850893947806753,-17.850893947806753,-32.850893947806746,-50.850893947806746,-51.850893947806746,-46.850893947806746,-47.850893947806746,-41.850893947806746
-21.850893947806753,-6.850893947806753,5.149106052193247,20.149106052193247,30.14910605219325,53.149106052193254,52.149106052193254,44.149106052193254,53.149106052193254,40.149106052193254
22.149106052193247,5.149106052193247,-6.850893947806753,-17.850893947806753,-32.850893947806746,-53.850893947806746,-51.850893947806746,-44.850893947806746,-49.850893947806746,-42.850893947806746
-24.850893947806753,-7.850893947806753,6.149106052193247,21.149106052193247,32.149106052193254,54.149106052193254,50.149106052193254,44.149106052193254,52.149106052193254,43.149106052193254
24.14910605219325,6.149106052193247,-6.850893947806753,-17.850893947806753,-33.850893947806746,-53.850893947806746,-50.850893947806746,-43.850893947806746,-49.850893947806746,-39.850893947806746
-25.850893947806753,-6.850893947806753,5.149106052193247,21.149106052193247,32.149106052193254,56.149106052193254,50.149106052193254,46.149106052193254,53.149106052193254,40.149106052193254
22.149106052193247,8.149106052193247,-6.850893947806753,-18.850893947806753,-33.850893947806746,-55.850893947806746,-51.850893947806746,-47.850893947806746,-49.850893947806746,-40.850893947806746
-22.850893947806753,-7.850893947806753,5.149106052193247,18.149106052193247,33.149106052193254,56.149106052193254,54.149106052193254,46.149106052193254,53.149106052193254,42.149106052193254
24.14910605219325,6.149106052193247,-7.850893947806753,-19.850893947806753,-35.850893947806746,-56.850893947806746,-52.850893947806746,-44.850893947806746,-48.850893947806746,-43.850893947806746
-24.850893947806753,-5.850893947806753,9.149106052193249,19.149106052193247,32.149106052193254,55.149106052193254,52.149106052193254,43.149106052193254,53.149106052193254,42.149106052193254
26.14910605219325,5.149106052193247,-7.850893947806753,-20.850893947806753,-34.850893947806746,-53.850893947806746,-51.850893947806746,-42.850893947806746,-52.850893947806746,-43.850893947806746
-24.850893947806753,-6.850893947806753,7.149106052193247,21.149106052193247,31.14910605219325,55.149106052193254,52.149106052193254,46.149106052193254,54.149106052193254,42.149106052193254
24.14910605219325,6.149106052193247,-4.850893947806753,-18.850893947806753,-34.850893947806746,-54.850893947806746,-52.850893947806746,-46.850893947806746,-47.850893947806746,-43.850893947806746
-22.850893947806753,-7.850893947806753,4.149106052193247,18.149106052193247,30.14910605219325,55.149106052193254,52.149106052193254,46.149106052193254,56.149106052193254,41.149106052193254
25.14910605219325,6.149106052193247,-7.850893947806753,-18.850893947806753,-33.850893947806746,-53.850893947806746,-53.850893947806746,-45.850893947806746,-48.850893947806746,-44.850893947806746
-24.850893947806753,-7.850893947806753,7.149106052193247,20.149106052193247,32.149106052193254,56.149106052193254,50.149106052193254,46.149106052193254,54.149106052193254,45.149106052193254
24.14910605219325,6.149106052193247,-8.850893947806751,-18.850893947806753,-33.850893947806746,-55.850893947806746,-55.850893947806746,-45.850893947806746,-50.850893947806746,-43.850893947806746
-22.850893947806753,-6.850893947806753,3.1491060521932472,20.149106052193247,33.149106052193254,54.149106052193254,52.149106052193254,45.149106052193254,55.149106052193254,45.149106052193254
23.14910605219325,6.149106052193247,-7.850893947806753,-17.850893947806753,-34.850893947806746,-53.850893947806746,-54.850893947806746,-46.850893947806746,-46.850893947806746,-43.850893947806746
-26.850893947806753,-8.850893947806751,6.149106052193247,19.149106052193247,32.149106052193254,54.149106052193254,52.149106052193254,44.149106052193254,54.149106052193254,43.149106052193254
24.14910605219325,5.149106052193247,-5.850893947806753,-18.850893947806753,-34.850893947806746,-52.850893947806746,-52.850893947806746,-42.850893947806746,-49.850893947806746,-43.850893947806746
-25.850893947806753,-6.850893947806753,6.149106052193247,20.149106052193247,33.149106052193254,54.149106052193254,53.149106052193254,44.149106052193254,54.149106052193254,43.149106052193254
25.14910605219325,6.149106052193247,-6.850893947806753,-17.850893947806753,-32.850893947806746,-55.850893947806746,-53.850893947806746,-42.850893947806746,-49.850893947806746,-43.850893947806746
-23.850893947806753,-6.850893947806753,8.149106052193247,19.149106052193247,30.14910605219325,54.149106052193254,51.149106052193254,45.149106052193254,53.149106052193254,43.149106052193254
23.14910605219325,5.149106052193247,-7.850893947806753,-15.850893947806751,-35.850893947806746,-55.850893947806746,-54.850893947806746,-46.850893947806746,-49.850893947806746,-42.850893947806746
-22.850893947806753,-6.850893947806753,6.149106052193247,19.149106052193247,31.14910605219325,54.149106052193254,53.149106052193254,45.149106052193254,53.149106052193254,43.149106052193254
24.14910605219325,7.149106052193247,-7.850893947806753,-18.850893947806753,-36.850893947806746,-54.850893947806746,-52.850893947806746,-44.850893947806746,-49.850893947806746,-42.850893947806746
-23.850893947806753,-5.850893947806753,6.149106052193247,20.149106052193247,34.149106052193254,53.149106052193254,51.149106052193254,46.149106052193254,54.149106052193254,41.149106052193254
26.14910605219325,7.149106052193247,-4.850893947806753,-19.850893947806753,-35.850893947806746,-53.850893947806746,-51.850893947806746,-44.850893947806746,-48.850893947806746,-43.850893947806746
-24.850893947806753,-7.850893947806753,5.149106052193247,20.149106052193247,32.149106052193254,53.149106052193254,53.149106052193254,46.149106052193254,54.149106052193254,44.149106052193254
25.14910605219325,6.149106052193247,-4.850893947806753,-17.850893947806753,-34.850893947806746,-56.850893947806746,-54.850893947806746,-46.850893947806746,-48.850893947806746,-43.850893947806746
-21.850893947806753,-7.850893947806753,4.149106052193247,20.149106052193247,30.14910605219325,54.149106052193254,50.149106052193254,44.149106052193254,51.149106052193254,41.149106052193254
24.14910605219325,6.149106052193247,-5.850893947806753,-17.850893947806753,-35.850893947806746,-52.850893947806746,-52.850893947806746,-44.850893947806746,-48.850893947806746,-40.850893947806746
-21.850893947806753,-7.850893947806753,9.149106052193249,18.149106052193247,29.14910605219325,53.149106052193254,52.149106052193254,44.149106052193254,54.149106052193254,41.149106052193254
25.14910605219325,7.149106052193247,-4.850893947806753,-18.850893947806753,-33.850893947806746,-56.850893947806746,-54.850893947806746,-46.850893947806746,-50.850893947806746,-41.850893947806746
-22.850893947806753,-7.850893947806753,3.1491060521932472,20.149106052193247,33.149106052193254,55.149106052193254,51.149106052193254,46.149106052193254,55.149106052193254,43.149106052193254
24.14910605219325,5.149106052193247,-4.850893947806753,-19.850893947806753,-32.850893947806746,-54.850893947806746,-51.850893947806746,-44.850893947806746,-48.850893947806746,-46.850893947806746
-25.850893947806753,-6.850893947806753,6.149106052193247,19.149106052193247,33.149106052193254,55.149106052193254,54.149106052193254,45.149106052193254,54.149106052193254,43.149106052193254
23.14910605219325,5.149106052193247,-5.850893947806753,-18.850893947806753,-36.850893947806746,-55.850893947806746,-55.850893947806746,-44.850893947806746,-51.850893947806746,-42.850893947806746
-25.850893947806753,-4.850893947806753,5.149106052193247,19.149106052193247,31.14910605219325,55.149106052193254,55.149106052193254,46.149106052193254,56.149106052193254,44.149106052193254
26.14910605219325,5.149106052193247,-6.850893947806753,-17.850893947806753,-34.850893947806746,-55.850893947806746,-52.850893947806746,-46.850893947806746,-49.850893947806746,-44.850893947806746
-24.850893947806753,-8.850893947806751,6.149106052193247,19.149106052193247,30.14910605219325,55.149106052193254,54.149106052193254,45.149106052193254,54.149106052193254,42.149106052193254
25.14910605219325,7.149106052193247,-8.850893947806751,-16.850893947806753,-34.850893947806746,-57.850893947806746,-54.850893947806746,-46.850893947806746,-51.850893947806746,-43.850893947806746
-24.850893947806753,-6.850893947806753,7.149106052193247,20.149106052193247,33.149106052193254,54.149106052193254,52.149106052193254,46.149106052193254,55.149106052193254,44.149106052193254
25.14910605219325,6.149106052193247,-5.850893947806753,-18.850893947806753,-34.850893947806746,-56.850893947806746,-54.850893947806746,-46.850893947806746,-48.850893947806746,-39.850893947806746
-23.850893947806753,-7.850893947806753,4.149106052193247,20.149106052193247,32.149106052193254,55.149106052193254,55.149106052193254,49.149106052193254,54.149106052193254,40.149106052193254
23.14910605219325,5.149106052193247,-4.850893947806753,-18.850893947806753,-35.850893947806746,-55.850893947806746,-53.850893947806746,-45.850893947806746,-49.850893947806746,-45.850893947806746
-25.850893947806753,-6.850893947806753,4.149106052193247,21.149106052193247,33.149106052193254,57.149106052193254,56.149106052193254,44.149106052193254,56.149106052193254,41.149106052193254
27.14910605219325,6.149106052193247,-5.850893947806753,-17.850893947806753,-35.850893947806746,-55.850893947806746,-56.850893947806746,-45.850893947806746,-50.850893947806746,-43.850893947806746
-25.850893947806753,-4.850893947806753,8.149106052193247,20.149106052193247,32.149106052193254,53.149106052193254,52.149106052193254,44.149106052193254,54.149106052193254,45.149106052193254
25.14910605219325,6.149106052193247,-3.8508939478067528,-16.850893947806753,-34.850893947806746,-54.850893947806746,-53.850893947806746,-43.850893947806746,-50.850893947806746,-45.850893947806746
-25.850893947806753,-7.850893947806753,5.149106052193247,20.149106052193247,31.14910605219325,55.149106052193254,54.149106052193254,45.149106052193254,53.149106052193254,41.149106052193254
27.14910605219325,9.149106052193249,-6.850893947806753,-19.850893947806753,-32.850893947806746,-54.850893947806746,-55.850893947806746,-44.850893947806746,-50.850893947806746,-40.850893947806746
-22.850893947806753,-10.850893947806751,7.149106052193247,21.149106052193247,32.149106052193254,55.149106052193254,56.149106052193254,46.149106052193254,53.149106052193254,40.149106052193254
26.14910605219325,8.149106052193247,-6.850893947806753,-18.850893947806753,-35.850893947806746,-56.850893947806746,-55.850893947806746,-46.850893947806746,-50.850893947806746,-43.850893947806746
-24.850893947806753,-8.850893947806751,8.149106052193247,21.149106052193247,32.149106052193254,58.149106052193254,54.149106052193254,44.149106052193254,56.149106052193254,44.149106052193254
24.14910605219325,5.149106052193247,-7.850893947806753,-19.850893947806753,-36.850893947806746,-56.850893947806746,-54.850893947806746,-45.850893947806746,-49.850893947806746,-44.850893947806746
-24.850893947806753,-5.850893947806753,5.149106052193247,22.149106052193247,32.149106052193254,56.149106052193254,52.149106052193254,45.149106052193254,53.149106052193254,43.149106052193254
26.14910605219325,8.149106052193247,-6.850893947806753,-17.850893947806753,-34.850893947806746,-56.850893947806746,-56.850893947806746,-43.850893947806746,-49.850893947806746,-43.850893947806746
-23.850893947806753,-6.850893947806753,5.149106052193247,19.149106052193247,30.14910605219325,55.149106052193254,55.149106052193254,46.149106052193254,56.149106052193254,43.149106052193254
24.14910605219325,4.149106052193247,-9.850893947806751,-19.850893947806753,-35.850893947806746,-59.850893947806746,-55.850893947806746,-35.850893947806746,-36.850893947806746,-38.850893947806746
-25.850893947806753,-9.850893947806751,0.1491060521932468,15.149106052193249,29.14910605219325,53.149106052193254,52.149106052193254,46.149106052193254,57.149106052193254,43.149106052193254
25.14910605219325,7.149106052193247,-6.850893947806753,-17.850893947806753,-31.850893947806753,-55.850893947806746,-54.850893947806746,-46.850893947806746,-50.850893947806746,-42.850893947806746
-23.850893947806753,-3.8508939478067528,9.149106052193249,23.14910605219325,33.149106052193254,51.149106052193254,46.149106052193254,45.149106052193254,56.149106052193254,41.149106052193254
25.14910605219325,6.149106052193247,-6.850893947806753,-19.850893947806753,-36.850893947806746,-55.850893947806746,-55.850893947806746,-46.850893947806746,-50.850893947806746,-42.850893947806746
-24.850893947806753,-7.850893947806753,5.149106052193247,18.149106052193247,34.149106052193254,55.149106052193254,56.149106052193254,48.149106052193254,56.149106052193254,41.149106052193254
26.14910605219325,8.149106052193247,-7.850893947806753,-17.850893947806753,-38.850893947806746,-56.850893947806746,-50.850893947806746,-42.850893947806746,-51.850893947806746,-43.850893947806746
-25.850893947806753,-7.850893947806753,3.1491060521932472,19.149106052193247,32.149106052193254,54.149106052193254,53.149106052193254,46.149106052193254,56.149106052193254,45.149106052193254
26.14910605219325,6.149106052193247,-7.850893947806753,-17.850893947806753,-37.850893947806746,-56.850893947806746,-55.850893947806746,-46.850893947806746,-50.850893947806746,-44.850893947806746
-26.850893947806753,-6.850893947806753,7.149106052193247,19.149106052193247,33.149106052193254,56.149106052193254,53.149106052193254,46.149106052193254,55.149106052193254,44.149106052193254
29.14910605219325,6.149106052193247,-7.850893947806753,-19.850893947806753,-36.850893947806746,-57.850893947806746,-55.850893947806746,-43.850893947806746,-51.850893947806746,-43.850893947806746
-27.850893947806753,-8.850893947806751,7.149106052193247,20.149106052193247,31.14910605219325,57.149106052193254,55.149106052193254,46.149106052193254,56.149106052193254,44.149106052193254
25.14910605219325,6.149106052193247,-5.850893947806753,-19.850893947806753,-35.850893947806746,-54.850893947806746,-53.850893947806746,-45.850893947806746,-48.850893947806746,-44.850893947806746
-24.850893947806753,-7.850893947806753,4.149106052193247,21.149106052193247,30.14910605219325,57.149106052193254,55.149106052193254,43.149106052193254,56.149106052193254,43.149106052193254
25.14910605219325,5.149106052193247,-6.850893947806753,-18.850893947806753,-34.850893947806746,-56.850893947806746,-52.850893947806746,-46.850893947806746,-49.850893947806746,-43.850893947806746
-23.850893947806753,-7.850893947806753,4.149106052193247,18.149106052193247,33.149106052193254,57.149106052193254,56.149106052193254,44.149106052193254,54.149106052193254,44.149106052193254
27.14910605219325,6.149106052193247,-6.850893947806753,-18.850893947806753,-35.850893947806746,-54.850893947806746,-53.850893947806746,-45.850893947806746,-50.850893947806746,-46.850893947806746
-24.850893947806753,-7.850893947806753,5.149106052193247,20.149106052193247,33.149106052193254,56.149106052193254,57.149106052193254,49.149106052193254,56.149106052193254,45.149106052193254
26.14910605219325,7.149106052193247,-7.850893947806753,-15.850893947806751,-31.850893947806753,-57.850893947806746,-54.850893947806746,-46.850893947806746,-52.850893947806746,-46.850893947806746
-26.850893947806753,-10.850893947806751,5.149106052193247,22.149106052193247,32.149106052193254,56.149106052193254,54.149106052193254,45.149106052193254,56.149106052193254,44.149106052193254
26.14910605219325,7.149106052193247,-6.850893947806753,-17.850893947806753,-35.850893947806746,-55.850893947806746,-55.850893947806746,-43.850893947806746,-51.850893947806746,-44.850893947806746
-25.850893947806753,-7.850893947806753,5.149106052193247,21.149106052193247,32.149106052193254,54.149106052193254,54.149106052193254,45.149106052193254,56.149106052193254,42.149106052193254
25.14910605219325,8.149106052193247,-7.850893947806753,-19.850893947806753,-34.850893947806746,-55.850893947806746,-56.850893947806746,-44.850893947806746,-51.850893947806746,-44.850893947806746
-24.850893947806753,-9.850893947806751,5.149106052193247,20.149106052193247,33.149106052193254,56.149106052193254,55.149106052193254,48.149106052193254,57.149106052193254,42.149106052193254
26.14910605219325,8.149106052193247,-6.850893947806753,-19.850893947806753,-33.850893947806746,-56.850893947806746,-52.850893947806746,-43.850893947806746,-51.850893947806746,-44.850893947806746
-26.850893947806753,-6.850893947806753,4.149106052193247,20.149106052193247,31.14910605219325,54.149106052193254,53.149106052193254,46.149106052193254,57.149106052193254,45.149106052193254
25.14910605219325,5.149106052193247,-6.850893947806753,-19.850893947806753,-35.850893947806746,-57.850893947806746,-54.850893947806746,-43.850893947806746,-51.850893947806746,-42.850893947806746
-26.850893947806753,-6.850893947806753,6.149106052193247,19.149106052193247,33.149106052193254,55.149106052193254,57.149106052193254,47.149106052193254,57.149106052193254,44.149106052193254
27.14910605219325,6.149106052193247,-6.850893947806753,-18.850893947806753,-34.850893947806746,-55.850893947806746,-56.850893947806746,-44.850893947806746,-50.850893947806746,-44.850893947806746
-26.850893947806753,-7.850893947806753,5.149106052193247,22.149106052193247,33.149106052193254,57.149106052193254,56.149106052193254,45.149106052193254,54.149106052193254,44.149106052193254
24.14910605219325,5.149106052193247,-7.850893947806753,-18.850893947806753,-35.850893947806746,-55.850893947806746,-55.850893947806746,-45.850893947806746,-50.850893947806746,-42.850893947806746
-25.850893947806753,-8.850893947806751,5.149106052193247,20.149106052193247,33.149106052193254,56.149106052193254,54.149106052193254,46.149106052193254,56.149106052193254,44.149106052193254
26.14910605219325,5.149106052193247,-10.850893947806751,-19.850893947806753,-32.850893947806746,-55.850893947806746,-55.850893947806746,-45.850893947806746,-51.850893947806746,-44.850893947806746
-25.850893947806753,-7.850893947806753,5.149106052193247,20.149106052193247,31.14910605219325,56.149106052193254,55.149106052193254,48.149106052193254,58.149106052193254,45.149106052193254
26.14910605219325,6.149106052193247,-4.850893947806753,-17.850893947806753,-34.850893947806746,-55.850893947806746,-54.850893947806746,-45.850893947806746,-53.850893947806746,-46.850893947806746
-24.850893947806753,-8.850893947806751,6.149106052193247,20.149106052193247,31.14910605219325,60.149106052193254,56.149106052193254,46.149106052193254,54.149106052193254,44.149106052193254
26.14910605219325,8.149106052193247,-6.850893947806753,-19.850893947806753,-36.850893947806746,-56.850893947806746,-57.850893947806746,-45.850893947806746,-50.850893947806746,-42.850893947806746
-23.850893947806753,-8.850893947806751,4.149106052193247,19.149106052193247,30.14910605219325,59.149106052193254,56.149106052193254,48.149106052193254,54.149106052193254,43.149106052193254
28.14910605219325,7.149106052193247,-7.850893947806753,-18.850893947806753,-35.850893947806746,-57.850893947806746,-55.850893947806746,-44.850893947806746,-52.850893947806746,-44.850893947806746
-23.850893947806753,-7.850893947806753,4.149106052193247,20.149106052193247,32.149106052193254,55.149106052193254,56.149106052193254,44.149106052193254,56.149106052193254,49.149106052193254
25.14910605219325,5.149106052193247,-7.850893947806753,-17.850893947806753,-32.850893947806746,-57.850893947806746,-55.850893947806746,-48.850893947806746,-49.850893947806746,-41.850893947806746
-29.850893947806753,-11.850893947806751,7.149106052193247,22.149106052193247,31.14910605219325,53.149106052193254,54.149106052193254,44.149106052193254,58.149106052193254,43.149106052193254
23.14910605219325,11.149106052193249,-2.8508939478067528,-16.850893947806753,-35.850893947806746,-58.850893947806746,-58.850893947806746,-44.850893947806746,-50.850893947806746,-48.850893947806746
-26.850893947806753,-2.8508939478067528,8.149106052193247,16.149106052193247,26.14910605219325,58.149106052193254,54.149106052193254,47.149106052193254,54.149106052193254,43.149106052193254
31.14910605219325,12.149106052193249,-8.850893947806751,-21.850893947806753,-36.850893947806746,-51.850893947806746,-56.850893947806746,-44.850893947806746,-53.850893947806746,-45.850893947806746
-18.850893947806753,-9.850893947806751,1.1491060521932468,17.149106052193247,33.149106052193254,60.149106052193254,57.149106052193254,49.149106052193254,56.149106052193254,48.149106052193254
26.14910605219325,0.1491060521932468,-11.850893947806751,-18.850893947806753,-30.850893947806753,-58.850893947806746,-55.850893947806746,-46.850893947806746,-49.850893947806746,-42.850893947806746
-28.850893947806753,-13.850893947806751,6.149106052193247,26.14910605219325,33.149106052193254,53.149106052193254,56.149106052193254,45.149106052193254,60.149106052193254,44.149106052193254
20.149106052193247,6.149106052193247,-0.8508939478067532,-14.850893947806751,-36.850893947806746,-58.850893947806746,-56.850893947806746,-49.850893947806746,-50.850893947806746,-48.850893947806746
-28.850893947806753,0.1491060521932468,10.149106052193249,20.149106052193247,27.14910605219325,55.149106052193254,55.149106052193254,44.149106052193254,54.149106052193254,44.149106052193254
29.14910605219325,13.149106052193249,-8.850893947806751,-22.850893947806753,-36.850893947806746,-55.850893947806746,-54.850893947806746,-41.850893947806746,-54.850893947806746,-45.850893947806746
-19.850893947806753,-7.850893947806753,0.1491060521932468,17.149106052193247,33.149106052193254,59.149106052193254,59.149106052193254,49.149106052193254,55.149106052193254,49.149106052193254
30.14910605219325,-0.8508939478067532,-12.850893947806751,-17.850893947806753,-30.850893947806753,-55.850893947806746,-57.850893947806746,-46.850893947806746,-50.850893947806746,-42.850893947806746
-26.850893947806753,-12.850893947806751,7.149106052193247,25.14910605219325,35.149106052193254,53.149106052193254,54.149106052193254,42.149106052193254,60.149106052193254,44.149106052193254
23.14910605219325,6.149106052193247,-3.8508939478067528,-14.850893947806751,-34.850893947806746,-59.850893947806746,-59.850893947806746,-47.850893947806746,-49.850893947806746,-50.850893947806746
-27.850893947806753,-2.8508939478067528,9.149106052193249,20.149106052193247,25.14910605219325,58.149106052193254,56.149106052193254,48.149106052193254,55.149106052193254,41.149106052193254
29.14910605219325,12.149106052193249,-7.850893947806753,-21.850893947806753,-38.850893947806746,-51.850893947806746,-53.850893947806746,-43.850893947806746,-55.850893947806746,-45.850893947806746
-20.850893947806753,-7.850893947806753,-0.8508939478067532,16.149106052193247,35.149106052193254,58.149106052193254,57.149106052193254,47.149106052193254,54.149106052193254,49.149106052193254
28.14910605219325,3.1491060521932472,-9.850893947806751,-16.850893947806753,-31.850893947806753,-58.850893947806746,-56.850893947806746,-47.850893947806746,-48.850893947806746,-41.850893947806746
-27.850893947806753,-12.850893947806751,7.149106052193247,23.14910605219325,32.149106052193254,51.149106052193254,55.149106052193254,42.149106052193254,59.149106052193254,47.149106052193254
22.149106052193247,6.149106052193247,-4.850893947806753,-16.850893947806753,-35.850893947806746,-57.850893947806746,-54.850893947806746,-46.850893947806746,-51.850893947806746,-49.850893947806746
-28.850893947806753,-2.8508939478067528,9.149106052193249,17.149106052193247,26.14910605219325,55.149106052193254,55.149106052193254,48.149106052193254,55.149106052193254,43.149106052193254
30.14910605219325,11.149106052193249,-7.850893947806753,-23.850893947806753,-33.850893947806746,-55.850893947806746,-53.850893947806746,-41.850893947806746,-55.850893947806746,-41.850893947806746
-20.850893947806753,-6.850893947806753,0.1491060521932468,15.149106052193249,28.14910605219325,58.149106052193254,56.149106052193254,46.149106052193254,54.149106052193254,48.149106052193254
30.14910605219325,1.1491060521932468,-9.850893947806751,-17.850893947806753,-28.850893947806753,-55.850893947806746,-55.850893947806746,-47.850893947806746,-50.850893947806746,-39.850893947806746
-28.850893947806753,-12.850893947806751,5.149106052193247,23.14910605219325,36.149106052193254,51.149106052193254,54.149106052193254,43.149106052193254,59.149106052193254,44.149106052193254
20.149106052193247,8.149106052193247,-1.8508939478067528,-12.850893947806751,-35.850893947806746,-57.850893947806746,-56.850893947806746,-44.850893947806746,-51.850893947806746,-49.850893947806746
-28.850893947806753,-2.8508939478067528,10.149106052193249,19.149106052193247,24.14910605219325,57.149106052193254,56.149106052193254,48.149106052193254,53.149106052193254,40.149106052193254
29.14910605219325,11.149106052193249,-8.850893947806751,-19.850893947806753,-36.850893947806746,-50.850893947806746,-54.850893947806746,-43.850893947806746,-53.850893947806746,-46.850893947806746
-20.850893947806753,-8.850893947806751,-0.8508939478067532,17.149106052193247,33.149106052193254,59.149106052193254,55.149106052193254,47.149106052193254,53.149106052193254,49.149106052193254
28.14910605219325,4.149106052193247,-10.850893947806751,-19.850893947806753,-28.850893947806753,-54.850893947806746,-55.850893947806746,-47.850893947806746,-51.850893947806746,-42.850893947806746
-30.850893947806753,-14.850893947806751,6.149106052193247,24.14910605219325,31.14910605219325,50.149106052193254,56.149106052193254,43.149106052193254,58.149106052193254,44.149106052193254
21.149106052193247,8.149106052193247,-1.8508939478067528,-16.850893947806753,-31.850893947806753,-57.850893947806746,-56.850893947806746,-44.850893947806746,-50.850893947806746,-47.850893947806746
-27.850893947806753,-1.8508939478067528,9.149106052193249,19.149106052193247,25.14910605219325,56.149106052193254,54.149106052193254,48.149106052193254,55.149106052193254,40.149106052193254
29.14910605219325,14.149106052193249,-6.850893947806753,-23.850893947806753,-40.850893947806746,-54.850893947806746,-55.850893947806746,-45.850893947806746,-53.850893947806746,-45.850893947806746
-20.850893947806753,-7.850893947806753,1.1491060521932468,15.149106052193249,32.149106052193254,58.149106052193254,56.149106052193254,46.149106052193254,54.149106052193254,51.149106052193254
29.14910605219325,3.1491060521932472,-10.850893947806751,-16.850893947806753,-29.850893947806753,-55.850893947806746,-55.850893947806746,-46.850893947806746,-51.850893947806746,-41.850893947806746
-28.850893947806753,-13.850893947806751,7.149106052193247,22.149106052193247,32.149106052193254,53.149106052193254,54.149106052193254,43.149106052193254,58.149106052193254,46.149106052193254
21.149106052193247,8.149106052193247,-0.8508939478067532,-13.850893947806751,-35.850893947806746,-57.850893947806746,-57.850893947806746,-49.850893947806746,-50.850893947806746,-48.850893947806746
-27.850893947806753,-2.8508939478067528,6.149106052193247,17.149106052193247,26.14910605219325,56.149106052193254,54.149106052193254,48.149106052193254,54.149106052193254,43.149106052193254
31.14910605219325,14.149106052193249,-6.850893947806753,-24.850893947806753,-35.850893947806746,-52.850893947806746,-56.850893947806746,-43.850893947806746,-54.850893947806746,-45.850893947806746
-19.850893947806753,-9.850893947806751,1.1491060521932468,17.149106052193247,33.149106052193254,57.149106052193254,58.149106052193254,48.149106052193254,55.149106052193254,46.149106052193254
27.14910605219325,3.1491060521932472,-8.850893947806751,-17.850893947806753,-27.850893947806753,-55.850893947806746,-55.850893947806746,-46.850893947806746,-50.850893947806746,-43.850893947806746
-29.850893947806753,-14.850893947806751,7.149106052193247,25.14910605219325,34.149106052193254,49.149106052193254,54.149106052193254,43.149106052193254,61.149106052193254,44.149106052193254
24.14910605219325,8.149106052193247,0.1491060521932468,-14.850893947806751,-34.850893947806746,-59.850893947806746,-57.850893947806746,-46.850893947806746,-50.850893947806746,-47.850893947806746
-29.850893947806753,-3.8508939478067528,10.149106052193249,22.149106052193247,26.14910605219325,55.149106052193254,55.149106052193254,46.149106052193254,54.149106052193254,42.149106052193254
29.14910605219325,12.149106052193249,-8.850893947806751,-22.850893947806753,-35.850893947806746,-52.850893947806746,-56.850893947806746,-41.850893947806746,-54.850893947806746,-45.850893947806746
-19.850893947806753,-7.850893947806753,1.1491060521932468,14.149106052193249,33.149106052193254,58.149106052193254,57.149106052193254,47.149106052193254,55.149106052193254,49.149106052193254
27.14910605219325,4.149106052193247,-8.850893947806751,-18.850893947806753,-28.850893947806753,-53.850893947806746,-55.850893947806746,-48.850893947806746,-49.850893947806746,-42.850893947806746
-27.850893947806753,-12.850893947806751,4.149106052193247,22.149106052193247,33.149106052193254,52.149106052193254,56.149106052193254,42.149106052193254,60.149106052193254,51.149106052193254
23.14910605219325,4.149106052193247,-2.8508939478067528,-13.850893947806751,-34.850893947806746,-56.850893947806746,-58.850893947806746,-47.850893947806746,-49.850893947806746,-50.850893947806746
-29.850893947806753,-6.850893947806753,8.149106052193247,17.149106052193247,23.14910605219325,54.149106052193254,56.149106052193254,49.149106052193254,55.149106052193254,41.149106052193254
29.14910605219325,16.149106052193247,-6.850893947806753,-22.850893947806753,-34.850893947806746,-52.850893947806746,-56.850893947806746,-44.850893947806746,-55.850893947806746,-46.850893947806746
-19.850893947806753,-8.850893947806751,-0.8508939478067532,17.149106052193247,35.149106052193254,60.149106052193254,56.149106052193254,47.149106052193254,54.149106052193254,49.149106052193254
27.14910605219325,3.1491060521932472,-12.850893947806751,-16.850893947806753,-28.850893947806753,-54.850893947806746,-57.850893947806746,-49.850893947806746,-48.850893947806746,-39.850893947806746
-28.850893947806753,-15.850893947806751,6.149106052193247,23.14910605219325,34.149106052193254,52.149106052193254,56.149106052193254,44.149106052193254,59.149106052193254,45.149106052193254
22.149106052193247,7.149106052193247,-1.8508939478067528,-13.850893947806751,-36.850893947806746,-56.850893947806746,-59.850893947806746,-45.850893947806746,-47.850893947806746,-49.850893947806746
-28.850893947806753,-2.8508939478067528,9.149106052193249,19.149106052193247,26.14910605219325,53.149106052193254,55.149106052193254,47.149106052193254,55.149106052193254,44.149106052193254
29.14910605219325,14.149106052193249,-6.850893947806753,-23.850893947806753,-36.850893947806746,-51.850893947806746,-55.850893947806746,-46.850893947806746,-53.850893947806746,-47.850893947806746
-21.850893947806753,-7.850893947806753,-0.8508939478067532,16.149106052193247,33.149106052193254,57.149106052193254,57.149106052193254,45.149106052193254,55.149106052193254,50.149106052193254
28.14910605219325,5.149106052193247,-7.850893947806753,-16.850893947806753,-28.850893947806753,-54.850893947806746,-55.850893947806746,-46.850893947806746,-50.850893947806746,-43.850893947806746
-30.850893947806753,-14.850893947806751,5.149106052193247,23.14910605219325,32.149106052193254,52.149106052193254,55.149106052193254,42.149106052193254,60.149106052193254,43.149106052193254
23.14910605219325,8.149106052193247,-3.8508939478067528,-14.850893947806751,-31.850893947806753,-56.850893947806746,-58.850893947806746,-46.850893947806746,-50.850893947806746,-50.850893947806746
-28.850893947806753,-3.8508939478067528,9.149106052193249,17.149106052193247,25.14910605219325,53.149106052193254,56.149106052193254,46.149106052193254,57.149106052193254,44.149106052193254
33.149106052193254,16.149106052193247,-5.850893947806753,-23.850893947806753,-38.850893947806746,-51.850893947806746,-55.850893947806746,-43.850893947806746,-54.850893947806746,-44.850893947806746
-21.850893947806753,-9.850893947806751,1.1491060521932468,17.149106052193247,29.14910605219325,56.149106052193254,56.149106052193254,46.149106052193254,54.149106052193254,50.149106052193254
29.14910605219325,4.149106052193247,-9.850893947806751,-15.850893947806751,-29.850893947806753,-56.850893947806746,-55.850893947806746,-46.850893947806746,-51.850893947806746,-43.850893947806746
-26.850893947806753,-13.850893947806751,4.149106052193247,24.14910605219325,33.149106052193254,49.149106052193254,54.149106052193254,44.149106052193254,58.149106052193254,45.149106052193254
23.14910605219325,9.149106052193249,0.1491060521932468,-13.850893947806751,-34.850893947806746,-57.850893947806746,-60.850893947806746,-46.850893947806746,-50.850893947806746,-48.850893947806746
-26.850893947806753,-2.8508939478067528,8.149106052193247,19.149106052193247,25.14910605219325,55.149106052193254,56.149106052193254,46.149106052193254,54.149106052193254,42.149106052193254
30.14910605219325,13.149106052193249,-6.850893947806753,-21.850893947806753,-34.850893947806746,-50.850893947806746,-55.850893947806746,-43.850893947806746,-53.850893947806746,-45.850893947806746
-20.850893947806753,-8.850893947806751,0.1491060521932468,18.149106052193247,29.14910605219325,58.149106052193254,56.149106052193254,46.149106052193254,56.149106052193254,49.149106052193254
29.14910605219325,3.1491060521932472,-11.850893947806751,-18.850893947806753,-27.850893947806753,-57.850893947806746,-54.850893947806746,-46.850893947806746,-50.850893947806746,-42.850893947806746
-30.850893947806753,-14.850893947806751,4.149106052193247,24.14910605219325,33.149106052193254,50.149106052193254,54.149106052193254,44.149106052193254,56.149106052193254,44.149106052193254
23.14910605219325,6.149106052193247,0.1491060521932468,-11.850893947806751,-32.850893947806746,-56.850893947806746,-58.850893947806746,-45.850893947806746,-51.850893947806746,-44.850893947806746
-26.850893947806753,-4.850893947806753,6.149106052193247,19.149106052193247,25.14910605219325,54.149106052193254,55.149106052193254,46.149106052193254,56.149106052193254,44.149106052193254
29.14910605219325,15.149106052193249,-6.850893947806753,-21.850893947806753,-35.850893947806746,-49.850893947806746,-55.850893947806746,-43.850893947806746,-54.850893947806746,-45.850893947806746
-20.850893947806753,-10.850893947806751,-0.8508939478067532,16.149106052193247,33.149106052193254,55.149106052193254,54.149106052193254,45.149106052193254,54.149106052193254,50.149106052193254
28.14910605219325,5.149106052193247,-9.850893947806751,-18.850893947806753,-28.850893947806753,-52.850893947806746,-56.850893947806746,-47.850893947806746,-50.850893947806746,-44.850893947806746
-31.850893947806753,-14.850893947806751,4.149106052193247,25.14910605219325,34.149106052193254,51.149106052193254,53.149106052193254,44.149106052193254,59.149106052193254,48.149106052193254
22.149106052193247,7.149106052193247,-0.8508939478067532,-14.850893947806751,-33.850893947806746,-54.850893947806746,-57.850893947806746,-46.850893947806746,-50.850893947806746,-49.850893947806746
-27.850893947806753,-7.850893947806753,6.149106052193247,17.149106052193247,24.14910605219325,54.149106052193254,55.149106052193254,47.149106052193254,54.149106052193254,42.149106052193254
32.149106052193254,18.149106052193247,-4.850893947806753,-20.850893947806753,-32.850893947806746,-50.850893947806746,-57.850893947806746,-43.850893947806746,-52.850893947806746,-45.850893947806746
-22.850893947806753,-9.850893947806751,-1.8508939478067528,14.149106052193249,29.14910605219325,54.149106052193254,56.149106052193254,45.149106052193254,54.149106052193254,50.149106052193254
28.14910605219325,4.149106052193247,-9.850893947806751,-13.850893947806751,-28.850893947806753,-53.850893947806746,-56.850893947806746,-46.850893947806746,-50.850893947806746,-42.850893947806746
-29.850893947806753,-15.850893947806751,6.149106052193247,24.14910605219325,34.149106052193254,50.149106052193254,55.149106052193254,42.149106052193254,57.149106052193254,44.149106052193254
21.149106052193247,7.149106052193247,-1.8508939478067528,-14.850893947806751,-31.850893947806753,-58.850893947806746,-58.850893947806746,-46.850893947806746,-50.850893947806746,-49.850893947806746
-26.850893947806753,-4.850893947806753,7.149106052193247,19.149106052193247,27.14910605219325,54.149106052193254,55.149106052193254,46.149106052193254,53.149106052193254,42.149106052193254
31.14910605219325,13.149106052193249,-4.850893947806753,-20.850893947806753,-35.850893947806746,-48.850893947806746,-55.850893947806746,-42.850893947806746,-54.850893947806746,-46.850893947806746
-20.850893947806753,-11.850893947806751,-2.8508939478067528,16.149106052193247,30.14910605219325,56.149106052193254,56.149106052193254,47.149106052193254,54.149106052193254,51.149106052193254
28.14910605219325,3.1491060521932472,-7.850893947806753,-17.850893947806753,-32.850893947806746,-54.850893947806746,-55.850893947806746,-45.850893947806746,-49.850893947806746,-43.850893947806746
-27.850893947806753,-14.850893947806751,4.149106052193247,23.14910605219325,33.149106052193254,50.149106052193254,56.149106052193254,44.149106052193254,58.149106052193254,46.149106052193254
20.149106052193247,9.149106052193249,-1.8508939478067528,-12.850893947806751,-28.850893947806753,-57.850893947806746,-57.850893947806746,-44.850893947806746,-51.850893947806746,-51.850893947806746
-27.850893947806753,-5.850893947806753,7.149106052193247,16.149106052193247,24.14910605219325,56.149106052193254,56.149106052193254,46.149106052193254,55.149106052193254,43.149106052193254
29.14910605219325,15.149106052193249,-5.850893947806753,-20.850893947806753,-35.850893947806746,-51.850893947806746,-56.850893947806746,-43.850893947806746,-53.850893947806746,-45.850893947806746
-23.850893947806753,-8.850893947806751,0.1491060521932468,16.149106052193247,32.149106052193254,57.149106052193254,56.149106052193254,45.149106052193254,54.149106052193254,50.149106052193254
28.14910605219325,3.1491060521932472,-10.850893947806751,-15.850893947806751,-26.850893947806753,-52.850893947806746,-55.850893947806746,-47.850893947806746,-51.850893947806746,-43.850893947806746
-27.850893947806753,-16.850893947806753,6.149106052193247,24.14910605219325,33.149106052193254,49.149106052193254,56.149106052193254,45.149106052193254,59.149106052193254,46.149106052193254
24.14910605219325,8.149106052193247,-1.8508939478067528,-13.850893947806751,-35.850893947806746,-57.850893947806746,-57.850893947806746,-43.850893947806746,-51.850893947806746,-47.850893947806746
-29.850893947806753,-7.850893947806753,6.149106052193247,20.149106052193247,25.14910605219325,52.149106052193254,56.149106052193254,45.149106052193254,57.149106052193254,46.149106052193254
28.14910605219325,12.149106052193249,-3.8508939478067528,-19.850893947806753,-36.850893947806746,-51.850893947806746,-54.850893947806746,-44.850893947806746,-51.850893947806746,-48.850893947806746
-24.850893947806753,-8.850893947806751,1.1491060521932468,16.149106052193247,30.14910605219325,55.149106052193254,57.149106052193254,46.149106052193254,54.149106052193254,48.149106052193254
30.14910605219325,8.149106052193247,-6.850893947806753,-20.850893947806753,-31.850893947806753,-51.850893947806746,-56.850893947806746,-44.850893947806746,-53.850893947806746,-47.850893947806746
-25.850893947806753,-10.850893947806751,1.1491060521932468,19.149106052193247,28.14910605219325,55.149106052193254,55.149106052193254,45.149106052193254,57.149106052193254,49.149106052193254
27.14910605219325,8.149106052193247,-6.850893947806753,-16.850893947806753,-33.850893947806746,-52.850893947806746,-58.850893947806746,-44.850893947806746,-50.850893947806746,-45.850893947806746
-27.850893947806753,-11.850893947806751,4.149106052193247,19.149106052193247,27.14910605219325,52.149106052193254,56.149106052193254,46.149106052193254,57.149106052193254,45.149106052193254
28.14910605219325,9.149106052193249,-3.8508939478067528,-17.850893947806753,-33.850893947806746,-52.850893947806746,-57.850893947806746,-42.850893947806746,-50.850893947806746,-46.850893947806746
-26.850893947806753,-12.850893947806751,3.1491060521932472,20.149106052193247,27.14910605219325,54.149106052193254,55.149106052193254,45.149106052193254,57.149106052193254,49.149106052193254
27.14910605219325,8.149106052193247,-6.850893947806753,-16.850893947806753,-32.850893947806746,-53.850893947806746,-58.850893947806746,-42.850893947806746,-53.850893947806746,-46.850893947806746
-25.850893947806753,-12.850893947806751,2.149106052193247,19.149106052193247,29.14910605219325,53.149106052193254,56.149106052193254,42.149106052193254,54.149106052193254,48.149106052193254
27.14910605219325,10.149106052193249,-4.850893947806753,-17.850893947806753,-31.850893947806753,-51.850893947806746,-54.850893947806746,-43.850893947806746,-50.850893947806746,-47.850893947806746
-25.850893947806753,-10.850893947806751,4.149106052193247,19.149106052193247,29.14910605219325,51.149106052193254,54.149106052193254,44.149106052193254,55.149106052193254,43.149106052193254
24.14910605219325,9.149106052193249,-5.850893947806753,-15.850893947806751,-28.850893947806753,-55.850893947806746,-56.850893947806746,-43.850893947806746,-51.850893947806746,-46.850893947806746
-25.850893947806753,-10.850893947806751,3.1491060521932472,19.149106052193247,28.14910605219325,53.149106052193254,56.149106052193254,46.149106052193254,56.149106052193254,44.149106052193254
27.14910605219325,9.149106052193249,-2.8508939478067528,-16.850893947806753,-31.850893947806753,-51.850893947806746,-58.850893947806746,-48.850893947806746,-52.850893947806746,-45.850893947806746
-25.850893947806753,-7.850893947806753,5.149106052193247,19.149106052193247,28.14910605219325,51.149106052193254,53.149106052193254,44.149106052193254,56.149106052193254,46.149106052193254
29.14910605219325,11.149106052193249,-5.850893947806753,-16.850893947806753,-33.850893947806746,-51.850893947806746,-55.850893947806746,-45.850893947806746,-52.850893947806746,-46.850893947806746
-27.850893947806753,-11.850893947806751,1.1491060521932468,17.149106052193247,27.14910605219325,53.149106052193254,58.149106052193254,46.149106052193254,57.149106052193254,45.149106052193254
26.14910605219325,10.149106052193249,-4.850893947806753,-15.850893947806751,-29.850893947806753,-51.850893947806746,-55.850893947806746,-45.850893947806746,-49.850893947806746,-43.850893947806746
-26.850893947806753,-9.850893947806751,3.1491060521932472,18.149106052193247,27.14910605219325,51.149106052193254,54.149106052193254,44.149106052193254,55.149106052193254,47.149106052193254
29.14910605219325,8.149106052193247,-2.8508939478067528,-15.850893947806751,-28.850893947806753,-52.850893947806746,-56.850893947806746,-45.850893947806746,-52.850893947806746,-46.850893947806746
-24.850893947806753,-8.850893947806751,2.149106052193247,18.149106052193247,27.14910605219325,50.149106052193254,55.149106052193254,47.149106052193254,56.149106052193254,46.149106052193254
28.14910605219325,12.149106052193249,-2.8508939478067528,-17.850893947806753,-30.850893947806753,-52.850893947806746,-55.850893947806746,-44.850893947806746,-51.850893947806746,-46.850893947806746
-25.850893947806753,-13.850893947806751,1.1491060521932468,18.149106052193247,29.14910605219325,51.149106052193254,53.149106052193254,43.149106052193254,55.149106052193254,44.149106052193254
27.14910605219325,11.149106052193249,-4.850893947806753,-14.850893947806751,-27.850893947806753,-48.850893947806746,-53.850893947806746,-43.850893947806746,-51.850893947806746,-45.850893947806746
-27.850893947806753,-10.850893947806751,1.1491060521932468,17.149106052193247,29.14910605219325,51.149106052193254,53.149106052193254,42.149106052193254,54.149106052193254,46.149106052193254
29.14910605219325,12.149106052193249,-1.8508939478067528,-15.850893947806751,-30.850893947806753,-53.850893947806746,-54.850893947806746,-44.850893947806746,-53.850893947806746,-46.850893947806746
-27.850893947806753,-9.850893947806751,1.1491060521932468,19.149106052193247,27.14910605219325,51.149106052193254,56.149106052193254,44.149106052193254,56.149106052193254,48.149106052193254
29.14910605219325,10.149106052193249,-1.8508939478067528,-15.850893947806751,-33.850893947806746,-53.850893947806746,-57.850893947806746,-45.850893947806746,-51.850893947806746,-46.850893947806746
-26.850893947806753,-10.850893947806751,4.149106052193247,19.149106052193247,29.14910605219325,51.149106052193254,54.149106052193254,44.149106052193254,56.149106052193254,46.149106052193254
30.14910605219325,11.149106052193249,-4.850893947806753,-18.850893947806753,-31.850893947806753,-50.850893947806746,-55.850893947806746,-44.850893947806746,-52.850893947806746,-49.850893947806746
-27.850893947806753,-10.850893947806751,2.149106052193247,19.149106052193247,30.14910605219325,54.149106052193254,55.149106052193254,43.149106052193254,56.149106052193254,46.149106052193254
29.14910605219325,9.149106052193249,-2.8508939478067528,-18.850893947806753,-29.850893947806753,-54.850893947806746,-58.850893947806746,-46.850893947806746,-51.850893947806746,-47.850893947806746
-27.850893947806753,-11.850893947806751,4.149106052193247,18.149106052193247,29.14910605219325,54.149106052193254,57.149106052193254,45.149106052193254,58.149106052193254,49.149106052193254
28.14910605219325,12.149106052193249,-3.8508939478067528,-18.850893947806753,-34.850893947806746,-53.850893947806746,-57.850893947806746,-45.850893947806746,-52.850893947806746,-44.850893947806746
-25.850893947806753,-12.850893947806751,3.1491060521932472,17.149106052193247,30.14910605219325,55.149106052193254,58.149106052193254,45.149106052193254,57.149106052193254,44.149106052193254
28.14910605219325,11.149106052193249,-6.850893947806753,-14.850893947806751,-31.850893947806753,-52.850893947806746,-55.850893947806746,-43.850893947806746,-51.850893947806746,-48.850893947806746
-26.850893947806753,-11.850893947806751,0.1491060521932468,16.149106052193247,29.14910605219325,56.149106052193254,58.149106052193254,47.149106052193254,56.149106052193254,48.149106052193254
25.14910605219325,10.149106052193249,-3.8508939478067528,-16.850893947806753,-30.850893947806753,-55.850893947806746,-58.850893947806746,-44.850893947806746,-51.850893947806746,-48.850893947806746
-26.850893947806753,-10.850893947806751,3.1491060521932472,18.149106052193247,30.14910605219325,53.149106052193254,58.149106052193254,46.149106052193254,57.149106052193254,48.149106052193254
27.14910605219325,11.149106052193249,-5.850893947806753,-18.850893947806753,-33.850893947806746,-52.850893947806746,-58.850893947806746,-44.850893947806746,-54.850893947806746,-50.850893947806746
-27.850893947806753,-11.850893947806751,3.1491060521932472,19.149106052193247,30.14910605219325,55.149106052193254,56.149106052193254,44.149106052193254,58.149106052193254,46.149106052193254
27.14910605219325,13.149106052193249,-2.8508939478067528,-16.850893947806753,-32.850893947806746,-56.850893947806746,-59.850893947806746,-43.850893947806746,-54.850893947806746,-49.850893947806746
-25.850893947806753,-14.850893947806751,3.1491060521932472,20.149106052193247,32.149106052193254,53.149106052193254,58.149106052193254,44.149106052193254,55.149106052193254,46.149106052193254
30.14910605219325,11.149106052193249,-2.8508939478067528,-17.850893947806753,-31.850893947806753,-53.850893947806746,-60.850893947806746,-46.850893947806746,-54.850893947806746,-45.850893947806746
-26.850893947806753,-8.850893947806751,3.1491060521932472,19.149106052193247,28.14910605219325,52.149106052193254,58.149106052193254,44.149106052193254,58.149106052193254,48.149106052193254
27.14910605219325,10.149106052193249,-3.8508939478067528,-15.850893947806751,-31.850893947806753,-53.850893947806746,-58.850893947806746,-43.850893947806746,-51.850893947806746,-47.850893947806746
-24.850893947806753,-12.850893947806751,3.1491060521932472,17.149106052193247,30.14910605219325,53.149106052193254,59.149106052193254,45.149106052193254,58.149106052193254,44.149106052193254
25.14910605219325,12.149106052193249,-3.8508939478067528,-17.850893947806753,-31.850893947806753,-53.850893947806746,-57.850893947806746,-42.850893947806746,-54.850893947806746,-50.850893947806746
-27.850893947806753,-10.850893947806751,5.149106052193247,19.149106052193247,25.14910605219325,52.149106052193254,56.149106052193254,44.149106052193254,59.149106052193254,50.149106052193254
29.14910605219325,12.149106052193249,-3.8508939478067528,-18.850893947806753,-35.850893947806746,-54.850893947806746,-60.850893947806746,-44.850893947806746,-53.850893947806746,-47.850893947806746
-25.850893947806753,-10.850893947806751,2.149106052193247,20.149106052193247,31.14910605219325,54.149106052193254,57.149106052193254,45.149106052193254,56.149106052193254,46.149106052193254
30.14910605219325,12.149106052193249,-6.850893947806753,-17.850893947806753,-29.850893947806753,-54.850893947806746,-58.850893947806746,-46.850893947806746,-52.850893947806746,-48.850893947806746
-27.850893947806753,-10.850893947806751,2.149106052193247,17.149106052193247,31.14910605219325,53.149106052193254,59.149106052193254,45.149106052193254,54.149106052193254,49.149106052193254
29.14910605219325,11.149106052193249,-3.8508939478067528,-15.850893947806751,-29.850893947806753,-52.850893947806746,-57.850893947806746,-43.850893947806746,-53.850893947806746,-47.850893947806746
-26.850893947806753,-11.850893947806751,1.1491060521932468,19.149106052193247,33.149106052193254,54.149106052193254,55.149106052193254,45.149106052193254,56.149106052193254,46.149106052193254
28.14910605219325,10.149106052193249,-3.8508939478067528,-18.850893947806753,-29.850893947806753,-55.850893947806746,-59.850893947806746,-47.850893947806746,-52.850893947806746,-47.850893947806746
-24.850893947806753,-10.850893947806751,1.1491060521932468,18.149106052193247,29.14910605219325,55.149106052193254,56.149106052193254,47.149106052193254,57.149106052193254,46.149106052193254
29.14910605219325,12.149106052193249,-3.8508939478067528,-15.850893947806751,-31.850893947806753,-52.850893947806746,-58.850893947806746,-48.850893947806746,-55.850893947806746,-49.850893947806746
-27.850893947806753,-10.850893947806751,3.1491060521932472,17.149106052193247,29.14910605219325,54.149106052193254,58.149106052193254,48.149106052193254,56.149106052193254,46.149106052193254
25.14910605219325,11.149106052193249,-3.8508939478067528,-18.850893947806753,-32.850893947806746,-52.850893947806746,-58.850893947806746,-44.850893947806746,-52.850893947806746,-48.850893947806746
-26.850893947806753,-10.850893947806751,2.149106052193247,16.149106052193247,31.14910605219325,53.149106052193254,57.149106052193254,46.149106052193254,57.149106052193254,49.149106052193254
30.14910605219325,10.149106052193249,-3.8508939478067528,-17.850893947806753,-31.850893947806753,-54.850893947806746,-57.850893947806746,-44.850893947806746,-54.850893947806746,-48.850893947806746
-26.850893947806753,-11.850893947806751,3.1491060521932472,19.149106052193247,30.14910605219325,51.149106052193254,56.149106052193254,44.149106052193254,57.149106052193254,47.149106052193254
28.14910605219325,12.149106052193249,-3.8508939478067528,-16.850893947806753,-32.850893947806746,-51.850893947806746,-60.850893947806746,-46.850893947806746,-53.850893947806746,-47.850893947806746
-25.850893947806753,-9.850893947806751,2.149106052193247,20.149106052193247,29.14910605219325,52.149106052193254,59.149106052193254,46.149106052193254,56.149106052193254,48.149106052193254
26.14910605219325,12.149106052193249,-3.8508939478067528,-15.850893947806751,-31.850893947806753,-52.850893947806746,-58.850893947806746,-45.850893947806746,-54.850893947806746,-47.850893947806746
-27.850893947806753,-12.850893947806751,4.149106052193247,19.149106052193247,27.14910605219325,52.149106052193254,57.149106052193254,48.149106052193254,56.149106052193254,47.149106052193254
29.14910605219325,11.149106052193249,-2.8508939478067528,-17.850893947806753,-31.850893947806753,-53.850893947806746,-58.850893947806746,-47.850893947806746,-52.850893947806746,-47.850893947806746
-26.850893947806753,-8.850893947806751,3.1491060521932472,20.149106052193247,29.14910605219325,51.149106052193254,57.149106052193254,44.149106052193254,59.149106052193254,50.149106052193254
29.14910605219325,12.149106052193249,-2.8508939478067528,-17.850893947806753,-31.850893947806753,-52.850893947806746,-58.850893947806746,-47.850893947806746,-52.850893947806746,-46.850893947806746
