Time,EMG
0.0,4.042562396006645
0.001996738660188359,3.0425623960066446
0.003993477320376718,0.042562396006644576
0.005990215980565077,3.0425623960066446
0.007986954640753436,-4.957437603993355
0.009983693300941794,-1.9574376039933554
0.011980431961130154,5.042562396006645
0.013977170621318513,-3.9574376039933554
0.01597390928150687,-3.9574376039933554
0.01797064794169523,0.042562396006644576
0.01996738660188359,1.0425623960066446
0.02196412526207195,3.0425623960066446
0.02396086392226031,-0.9574376039933554
0.025957602582448665,4.042562396006645
0.027954341242637026,2.0425623960066446
0.029951079902825382,-1.9574376039933554
0.03194781856301374,-0.9574376039933554
0.0339445572232021,-0.9574376039933554
0.03594129588339046,-2.9574376039933554
0.037938034543578816,3.0425623960066446
0.03993477320376718,9.042562396006645
0.04193151186395554,5.042562396006645
0.0439282505241439,3.0425623960066446
0.04592498918433226,-3.9574376039933554
0.04792172784452062,-1.9574376039933554
0.04991846650470897,-2.9574376039933554
0.05191520516489733,-2.9574376039933554
0.05391194382508569,-3.9574376039933554
0.05590868248527405,-1.9574376039933554
0.05790542114546241,-11.957437603993355
0.059902159805650765,-9.957437603993355
0.061898898465839125,2.0425623960066446
0.06389563712602749,2.0425623960066446
0.06589237578621585,1.0425623960066446
0.0678891144464042,1.0425623960066446
0.06988585310659257,0.042562396006644576
0.07188259176678093,3.0425623960066446
0.07387933042696929,19.042562396006645
0.07587606908715763,6.042562396006645
0.07787280774734599,2.0425623960066446
0.07986954640753435,-0.9574376039933554
0.08186628506772271,-2.9574376039933554
0.08386302372791107,-2.9574376039933554
0.08585976238809943,-2.9574376039933554
0.0878565010482878,-3.9574376039933554
0.08985323970847615,-2.9574376039933554
0.09184997836866451,-2.9574376039933554
0.09384671702885287,-3.9574376039933554
0.09584345568904123,-5.957437603993355
0.09784019434922958,0.042562396006644576
0.09983693300941794,1.0425623960066446
0.1018336716696063,4.042562396006645
0.10383041032979466,2.0425623960066446
0.10582714898998302,-6.957437603993355
0.10782388765017138,9.042562396006645
0.10982062631035974,5.042562396006645
0.1118173649705481,-3.9574376039933554
0.11381410363073646,-4.957437603993355
0.11581084229092482,-3.9574376039933554
0.11780758095111317,-0.9574376039933554
0.11980431961130153,-0.9574376039933554
0.12180105827148989,3.0425623960066446
0.12379779693167825,1.0425623960066446
0.12579453559186662,1.0425623960066446
0.12779127425205497,-0.9574376039933554
0.12978801291224332,-1.9574376039933554
0.1317847515724317,4.042562396006645
0.13378149023262004,0.042562396006644576
0.1357782288928084,10.042562396006645
0.13777496755299676,8.042562396006645
0.13977170621318513,3.0425623960066446
0.14176844487337348,3.0425623960066446
0.14376518353356185,-2.9574376039933554
0.1457619221937502,13.042562396006645
0.14775866085393857,0.042562396006644576
0.14975539951412692,-7.957437603993355
0.15175213817431527,-7.957437603993355
0.15374887683450364,-7.957437603993355
0.15574561549469199,-9.957437603993355
0.15774235415488036,-1.9574376039933554
0.1597390928150687,-1.9574376039933554
0.16173583147525708,1.0425623960066446
0.16373257013544543,0.042562396006644576
0.1657293087956338,0.042562396006644576
0.16772604745582215,-0.9574376039933554
0.16972278611601052,-1.9574376039933554
0.17171952477619887,-1.9574376039933554
0.1737162634363872,6.042562396006645
0.1757130020965756,2.0425623960066446
0.17770974075676393,4.042562396006645
0.1797064794169523,3.0425623960066446
0.18170321807714065,3.0425623960066446
0.18369995673732903,1.0425623960066446
0.18569669539751738,-4.957437603993355
0.18769343405770575,0.042562396006644576
0.1896901727178941,-2.9574376039933554
0.19168691137808247,1.0425623960066446
0.19368365003827082,-2.9574376039933554
0.19568038869845916,-3.9574376039933554
0.19767712735864754,4.042562396006645
0.19967386601883588,4.042562396006645
0.20167060467902426,1.0425623960066446
0.2036673433392126,0.042562396006644576
0.20566408199940098,-12.957437603993355
0.20766082065958932,-7.957437603993355
0.2096575593197777,-3.9574376039933554
0.21165429797996604,0.042562396006644576
0.2136510366401544,0.042562396006644576
0.21564777530034276,-1.9574376039933554
0.2176445139605311,1.0425623960066446
0.21964125262071948,5.042562396006645
0.22163799128090783,3.0425623960066446
0.2236347299410962,2.0425623960066446
0.22563146860128455,-1.9574376039933554
0.22762820726147293,0.042562396006644576
0.22962494592166127,-1.9574376039933554
0.23162168458184965,0.042562396006644576
0.233618423242038,-1.9574376039933554
0.23561516190222634,-1.9574376039933554
0.2376119005624147,4.042562396006645
0.23960863922260306,2.0425623960066446
0.24160537788279143,11.042562396006645
0.24360211654297978,3.0425623960066446
0.24559885520316815,-1.9574376039933554
0.2475955938633565,6.042562396006645
0.24959233252354487,-1.9574376039933554
0.25158907118373325,-4.957437603993355
0.2535858098439216,-4.957437603993355
0.25558254850410994,-5.957437603993355
0.2575792871642983,0.042562396006644576
0.25957602582448663,-2.9574376039933554
0.26157276448467504,6.042562396006645
0.2635695031448634,-1.9574376039933554
0.26556624180505173,-3.9574376039933554
0.2675629804652401,-2.9574376039933554
0.2695597191254285,-2.9574376039933554
0.2715564577856168,2.0425623960066446
0.27355319644580517,-0.9574376039933554
0.2755499351059935,-2.9574376039933554
0.27754667376618186,3.0425623960066446
0.27954341242637026,4.042562396006645
0.2815401510865586,4.042562396006645
0.28353688974674696,-1.9574376039933554
0.2855336284069353,-1.9574376039933554
0.2875303670671237,-2.9574376039933554
0.28952710572731205,-2.9574376039933554
0.2915238443875004,-0.9574376039933554
0.29352058304768874,-2.9574376039933554
0.29551732170787715,-2.9574376039933554
0.2975140603680655,0.042562396006644576
0.29951079902825384,3.0425623960066446
0.3015075376884422,1.0425623960066446
0.30350427634863053,-0.9574376039933554
0.30550101500881893,0.042562396006644576
0.3074977536690073,3.0425623960066446
0.3094944923291956,-1.9574376039933554
0.31149123098938397,0.042562396006644576
0.3134879696495724,-2.9574376039933554
0.3154847083097607,-4.957437603993355
0.31748144696994907,-7.957437603993355
0.3194781856301374,4.042562396006645
0.32147492429032576,5.042562396006645
0.32347166295051416,3.0425623960066446
0.3254684016107025,3.0425623960066446
0.32746514027089085,-2.9574376039933554
0.3294618789310792,0.042562396006644576
0.3314586175912676,-5.957437603993355
0.33345535625145595,5.042562396006645
0.3354520949116443,0.042562396006644576
0.33744883357183264,0.042562396006644576
0.33944557223202104,2.0425623960066446
0.3414423108922094,-1.9574376039933554
0.34343904955239773,-5.957437603993355
0.3454357882125861,-5.957437603993355
0.3474325268727744,11.042562396006645
0.34942926553296283,9.042562396006645
0.3514260041931512,-6.957437603993355
0.3534227428533395,1.0425623960066446
0.35541948151352787,-6.957437603993355
0.35741622017371627,8.042562396006645
0.3594129588339046,-2.9574376039933554
0.36140969749409296,-7.957437603993355
0.3634064361542813,3.0425623960066446
0.36540317481446966,-8.957437603993355
0.36739991347465806,-12.957437603993355
0.3693966521348464,-7.957437603993355
0.37139339079503475,32.042562396006645
0.3733901294552231,14.042562396006645
0.3753868681154115,-5.957437603993355
0.37738360677559984,-6.957437603993355
0.3793803454357882,-6.957437603993355
0.38137708409597654,19.042562396006645
0.38337382275616494,0.042562396006644576
0.3853705614163533,-4.957437603993355
0.38736730007654163,-5.957437603993355
0.38936403873673,-4.957437603993355
0.3913607773969183,1.0425623960066446
0.3933575160571067,-2.9574376039933554
0.3953542547172951,-2.9574376039933554
0.3973509933774834,-1.9574376039933554
0.39934773203767177,2.0425623960066446
0.40134447069786017,5.042562396006645
0.4033412093580485,0.042562396006644576
0.40533794801823686,0.042562396006644576
0.4073346866784252,0.042562396006644576
0.40933142533861355,-0.9574376039933554
0.41132816399880195,-1.9574376039933554
0.4133249026589903,-1.9574376039933554
0.41532164131917865,-1.9574376039933554
0.417318379979367,3.0425623960066446
0.4193151186395554,1.0425623960066446
0.42131185729974374,14.042562396006645
0.4233085959599321,4.042562396006645
0.42530533462012043,-3.9574376039933554
0.4273020732803088,-9.957437603993355
0.4292988119404972,-6.957437603993355
0.43129555060068553,-1.9574376039933554
0.4332922892608739,2.0425623960066446
0.4352890279210622,-0.9574376039933554
0.4372857665812506,1.0425623960066446
0.43928250524143897,-1.9574376039933554
0.4412792439016273,6.042562396006645
0.44327598256181566,0.042562396006644576
0.44527272122200406,-3.9574376039933554
0.4472694598821924,1.0425623960066446
0.44926619854238076,-1.9574376039933554
0.4512629372025691,-4.957437603993355
0.45325967586275745,0.042562396006644576
0.45525641452294585,2.0425623960066446
0.4572531531831342,8.042562396006645
0.45924989184332254,1.0425623960066446
0.4612466305035109,1.0425623960066446
0.4632433691636993,-4.957437603993355
0.46524010782388764,-7.957437603993355
0.467236846484076,4.042562396006645
0.46923358514426433,2.0425623960066446
0.4712303238044527,-6.957437603993355
0.4732270624646411,-10.957437603993355
0.4752238011248294,-3.9574376039933554
0.47722053978501777,4.042562396006645
0.4792172784452061,4.042562396006645
0.4812140171053945,-1.9574376039933554
0.48321075576558287,-4.957437603993355
0.4852074944257712,-4.957437603993355
0.48720423308595956,28.042562396006645
0.48920097174614796,4.042562396006645
0.4911977104063363,5.042562396006645
0.49319444906652465,-2.9574376039933554
0.495191187726713,-9.957437603993355
0.49718792638690135,1.0425623960066446
0.49918466504708975,-4.957437603993355
0.501181403707278,1.0425623960066446
0.5031781423674665,8.042562396006645
0.5051748810276548,0.042562396006644576
0.5071716196878432,-4.957437603993355
0.5091683583480315,3.0425623960066446
0.5111650970082199,-0.9574376039933554
0.5131618356684082,10.042562396006645
0.5151585743285966,-1.9574376039933554
0.5171553129887849,-2.9574376039933554
0.5191520516489733,3.0425623960066446
0.5211487903091617,-0.9574376039933554
0.5231455289693501,4.042562396006645
0.5251422676295384,-2.9574376039933554
0.5271390062897268,-1.9574376039933554
0.5291357449499151,-4.957437603993355
0.5311324836101035,-3.9574376039933554
0.5331292222702918,5.042562396006645
0.5351259609304801,1.0425623960066446
0.5371226995906685,3.0425623960066446
0.539119438250857,2.0425623960066446
0.5411161769110453,1.0425623960066446
0.5431129155712336,-1.9574376039933554
0.545109654231422,0.042562396006644576
0.5471063928916103,1.0425623960066446
0.5491031315517987,-0.9574376039933554
0.551099870211987,-3.9574376039933554
0.5530966088721754,0.042562396006644576
0.5550933475323637,-4.957437603993355
0.5570900861925522,5.042562396006645
0.5590868248527405,5.042562396006645
0.5610835635129289,2.0425623960066446
0.5630803021731172,-6.957437603993355
0.5650770408333056,-13.957437603993355
0.5670737794934939,10.042562396006645
0.5690705181536823,1.0425623960066446
0.5710672568138706,6.042562396006645
0.5730639954740591,-6.957437603993355
0.5750607341342474,-5.957437603993355
0.5770574727944358,-5.957437603993355
0.5790542114546241,-12.957437603993355
0.5810509501148124,-3.9574376039933554
0.5830476887750008,15.042562396006645
0.5850444274351891,9.042562396006645
0.5870411660953775,-6.957437603993355
0.5890379047555658,8.042562396006645
0.5910346434157543,3.0425623960066446
0.5930313820759426,-8.957437603993355
0.595028120736131,-7.957437603993355
0.5970248593963193,6.042562396006645
0.5990215980565077,2.0425623960066446
0.601018336716696,-2.9574376039933554
0.6030150753768844,-6.957437603993355
0.6050118140370727,4.042562396006645
0.6070085526972611,2.0425623960066446
0.6090052913574495,-9.957437603993355
0.6110020300176379,-2.9574376039933554
0.6129987686778262,9.042562396006645
0.6149955073380146,2.0425623960066446
0.6169922459982029,4.042562396006645
0.6189889846583913,5.042562396006645
0.6209857233185796,-0.9574376039933554
0.6229824619787679,-5.957437603993355
0.6249792006389563,-9.957437603993355
0.6269759392991447,-5.957437603993355
0.6289726779593331,16.042562396006645
0.6309694166195214,1.0425623960066446
0.6329661552797098,0.042562396006644576
0.6349628939398981,6.042562396006645
0.6369596326000865,0.042562396006644576
0.6389563712602748,3.0425623960066446
0.6409531099204632,4.042562396006645
0.6429498485806515,-3.9574376039933554
0.64494658724084,-0.9574376039933554
0.6469433259010283,-1.9574376039933554
0.6489400645612167,1.0425623960066446
0.650936803221405,0.042562396006644576
0.6529335418815934,-3.9574376039933554
0.6549302805417817,-1.9574376039933554
0.65692701920197,-2.9574376039933554
0.6589237578621584,6.042562396006645
0.6609204965223467,4.042562396006645
0.6629172351825352,0.042562396006644576
0.6649139738427235,-4.957437603993355
0.6669107125029119,-2.9574376039933554
0.6689074511631002,-3.9574376039933554
0.6709041898232886,5.042562396006645
0.6729009284834769,-14.957437603993355
0.6748976671436653,6.042562396006645
0.6768944058038536,12.042562396006645
0.6788911444640421,1.0425623960066446
0.6808878831242304,-4.957437603993355
0.6828846217844188,-15.957437603993355
0.6848813604446071,9.042562396006645
0.6868780991047955,-5.957437603993355
0.6888748377649838,15.042562396006645
0.6908715764251722,-0.9574376039933554
0.6928683150853605,-6.957437603993355
0.6948650537455489,-13.957437603993355
0.6968617924057373,20.042562396006645
0.6988585310659257,16.042562396006645
0.700855269726114,3.0425623960066446
0.7028520083863024,-11.957437603993355
0.7048487470464907,5.042562396006645
0.706845485706679,-4.957437603993355
0.7088422243668674,-2.9574376039933554
0.7108389630270557,-6.957437603993355
0.7128357016872441,-2.9574376039933554
0.7148324403474325,-1.9574376039933554
0.7168291790076209,-5.957437603993355
0.7188259176678092,3.0425623960066446
0.7208226563279976,9.042562396006645
0.7228193949881859,-1.9574376039933554
0.7248161336483743,-4.957437603993355
0.7268128723085626,-3.9574376039933554
0.728809610968751,-4.957437603993355
0.7308063496289393,15.042562396006645
0.7328030882891278,3.0425623960066446
0.7347998269493161,-12.957437603993355
0.7367965656095045,-7.957437603993355
0.7387933042696928,14.042562396006645
0.7407900429298812,15.042562396006645
0.7427867815900695,-6.957437603993355
0.7447835202502578,-4.957437603993355
0.7467802589104462,-3.9574376039933554
0.7487769975706345,0.042562396006644576
0.750773736230823,-7.957437603993355
0.7527704748910113,-6.957437603993355
0.7547672135511997,-10.957437603993355
0.756763952211388,24.042562396006645
0.7587606908715764,3.0425623960066446
0.7607574295317647,6.042562396006645
0.7627541681919531,2.0425623960066446
0.7647509068521414,-1.9574376039933554
0.7667476455123299,-9.957437603993355
0.7687443841725182,4.042562396006645
0.7707411228327066,-1.9574376039933554
0.7727378614928949,-4.957437603993355
0.7747346001530833,-3.9574376039933554
0.7767313388132716,6.042562396006645
0.77872807747346,3.0425623960066446
0.7807248161336483,3.0425623960066446
0.7827215547938366,2.0425623960066446
0.7847182934540251,0.042562396006644576
0.7867150321142135,-4.957437603993355
0.7887117707744018,-2.9574376039933554
0.7907085094345901,1.0425623960066446
0.7927052480947785,-2.9574376039933554
0.7947019867549668,0.042562396006644576
0.7966987254151552,0.042562396006644576
0.7986954640753435,3.0425623960066446
0.8006922027355319,4.042562396006645
0.8026889413957203,-0.9574376039933554
0.8046856800559087,-0.9574376039933554
0.806682418716097,-5.957437603993355
0.8086791573762854,-19.957437603993355
0.8106758960364737,1.0425623960066446
0.8126726346966621,9.042562396006645
0.8146693733568504,12.042562396006645
0.8166661120170388,25.042562396006645
0.8186628506772271,17.042562396006645
0.8206595893374156,-7.957437603993355
0.8226563279976039,-5.957437603993355
0.8246530666577923,-6.957437603993355
0.8266498053179806,-7.957437603993355
0.828646543978169,-15.957437603993355
0.8306432826383573,-18.957437603993355
0.8326400212985456,-5.957437603993355
0.834636759958734,21.042562396006645
0.8366334986189223,39.042562396006645
0.8386302372791108,-0.9574376039933554
0.8406269759392991,-2.9574376039933554
0.8426237145994875,-7.957437603993355
0.8446204532596758,-7.957437603993355
0.8466171919198642,-8.957437603993355
0.8486139305800525,1.0425623960066446
0.8506106692402409,9.042562396006645
0.8526074079004292,-3.9574376039933554
0.8546041465606176,-3.9574376039933554
0.856600885220806,-1.9574376039933554
0.8585976238809944,-3.9574376039933554
0.8605943625411827,3.0425623960066446
0.8625911012013711,8.042562396006645
0.8645878398615594,-3.9574376039933554
0.8665845785217478,-7.957437603993355
0.8685813171819361,-2.9574376039933554
0.8705780558421244,-3.9574376039933554
0.8725747945023129,-9.957437603993355
0.8745715331625012,-6.957437603993355
0.8765682718226896,24.042562396006645
0.8785650104828779,10.042562396006645
0.8805617491430663,0.042562396006644576
0.8825584878032546,15.042562396006645
0.884555226463443,1.0425623960066446
0.8865519651236313,-4.957437603993355
0.8885487037838197,-3.9574376039933554
0.8905454424440081,-6.957437603993355
0.8925421811041965,-2.9574376039933554
0.8945389197643848,0.042562396006644576
0.8965356584245732,0.042562396006644576
0.8985323970847615,-1.9574376039933554
0.9005291357449499,5.042562396006645
0.9025258744051382,4.042562396006645
0.9045226130653266,0.042562396006644576
0.9065193517255149,-4.957437603993355
0.9085160903857034,-2.9574376039933554
0.9105128290458917,-2.9574376039933554
0.91250956770608,1.0425623960066446
0.9145063063662684,-4.957437603993355
0.9165030450264567,-2.9574376039933554
0.9184997836866451,3.0425623960066446
0.9204965223468334,5.042562396006645
0.9224932610070218,-0.9574376039933554
0.9244899996672101,-3.9574376039933554
0.9264867383273986,-4.957437603993355
0.9284834769875869,6.042562396006645
0.9304802156477753,8.042562396006645
0.9324769543079636,-5.957437603993355
0.934473692968152,-3.9574376039933554
0.9364704316283403,-4.957437603993355
0.9384671702885287,13.042562396006645
0.940463908948717,8.042562396006645
0.9424606476089054,-0.9574376039933554
0.9444573862690938,-2.9574376039933554
0.9464541249292822,-7.957437603993355
0.9484508635894705,-2.9574376039933554
0.9504476022496589,8.042562396006645
0.9524443409098472,-1.9574376039933554
0.9544410795700355,-6.957437603993355
0.9564378182302239,-3.9574376039933554
0.9584345568904122,-3.9574376039933554
0.9604312955506006,1.0425623960066446
0.962428034210789,16.042562396006645
0.9644247728709774,8.042562396006645
0.9664215115311657,-3.9574376039933554
0.9684182501913541,-4.957437603993355
0.9704149888515424,-3.9574376039933554
0.9724117275117308,-0.9574376039933554
0.9744084661719191,-5.957437603993355
0.9764052048321075,-4.957437603993355
0.9784019434922959,12.042562396006645
0.9803986821524843,3.0425623960066446
0.9823954208126726,6.042562396006645
0.984392159472861,-5.957437603993355
0.9863888981330493,-2.9574376039933554
0.9883856367932377,7.042562396006645
0.990382375453426,-5.957437603993355
0.9923791141136143,-5.957437603993355
0.9943758527738027,-28.957437603993355
0.9963725914339912,-5.957437603993355
0.9983693300941795,6.042562396006645
1.0003660687543678,51.042562396006645
1.002362807414556,2.0425623960066446
1.0043595460747445,-9.957437603993355
1.006356284734933,0.042562396006644576
1.0083530233951212,16.042562396006645
1.0103497620553097,-2.9574376039933554
1.012346500715498,-14.957437603993355
1.0143432393756864,-11.957437603993355
1.0163399780358746,-8.957437603993355
1.018336716696063,10.042562396006645
1.0203334553562513,20.042562396006645
1.0223301940164398,2.0425623960066446
1.0243269326766282,-4.957437603993355
1.0263236713368165,-9.957437603993355
1.028320409997005,-1.9574376039933554
1.0303171486571931,-2.9574376039933554
1.0323138873173816,-0.9574376039933554
1.0343106259775698,-3.9574376039933554
1.0363073646377583,6.042562396006645
1.0383041032979465,6.042562396006645
1.040300841958135,10.042562396006645
1.0422975806183234,12.042562396006645
1.0442943192785117,-7.957437603993355
1.0462910579387001,-9.957437603993355
1.0482877965988884,-12.957437603993355
1.0502845352590768,6.042562396006645
1.052281273919265,4.042562396006645
1.0542780125794535,-2.9574376039933554
1.0562747512396418,0.042562396006644576
1.0582714898998302,4.042562396006645
1.0602682285600187,4.042562396006645
1.062264967220207,-2.9574376039933554
1.0642617058803954,-3.9574376039933554
1.0662584445405836,0.042562396006644576
1.068255183200772,-1.9574376039933554
1.0702519218609603,-6.957437603993355
1.0722486605211488,-1.9574376039933554
1.074245399181337,-0.9574376039933554
1.0762421378415254,5.042562396006645
1.078238876501714,3.0425623960066446
1.0802356151619021,-2.9574376039933554
1.0822323538220906,2.0425623960066446
1.0842290924822788,-1.9574376039933554
1.0862258311424673,5.042562396006645
1.0882225698026555,0.042562396006644576
1.090219308462844,-3.9574376039933554
1.0922160471230322,-9.957437603993355
1.0942127857832207,4.042562396006645
1.0962095244434091,6.042562396006645
1.0982062631035974,6.042562396006645
1.1002030017637858,0.042562396006644576
1.102199740423974,-2.9574376039933554
1.1041964790841625,-1.9574376039933554
1.1061932177443508,-4.957437603993355
1.1081899564045392,4.042562396006645
1.1101866950647274,1.0425623960066446
1.112183433724916,17.042562396006645
1.1141801723851044,3.0425623960066446
1.1161769110452926,-4.957437603993355
1.118173649705481,-8.957437603993355
1.1201703883656693,4.042562396006645
1.1221671270258577,-0.9574376039933554
1.124163865686046,-5.957437603993355
1.1261606043462344,-1.9574376039933554
1.128157343006423,4.042562396006645
1.1301540816666111,6.042562396006645
1.1321508203267996,-5.957437603993355
1.1341475589869878,-9.957437603993355
1.1361442976471763,4.042562396006645
1.1381410363073645,13.042562396006645
1.140137774967553,10.042562396006645
1.1421345136277412,-1.9574376039933554
1.1441312522879297,-6.957437603993355
1.1461279909481181,0.042562396006644576
1.1481247296083064,-6.957437603993355
1.1501214682684948,-7.957437603993355
1.152118206928683,6.042562396006645
1.1541149455888715,9.042562396006645
1.1561116842490597,7.042562396006645
1.1581084229092482,1.0425623960066446
1.1601051615694364,0.042562396006644576
1.162101900229625,-6.957437603993355
1.1640986388898134,-6.957437603993355
1.1660953775500016,-10.957437603993355
1.16809211621019,7.042562396006645
1.1700888548703783,7.042562396006645
1.1720855935305667,-14.957437603993355
1.174082332190755,-0.9574376039933554
1.1760790708509434,12.042562396006645
1.1780758095111317,7.042562396006645
1.1800725481713201,2.0425623960066446
1.1820692868315086,2.0425623960066446
1.1840660254916968,-4.957437603993355
1.1860627641518853,-3.9574376039933554
1.1880595028120735,6.042562396006645
1.190056241472262,3.0425623960066446
1.1920529801324502,-12.957437603993355
1.1940497187926387,-0.9574376039933554
1.196046457452827,2.0425623960066446
1.1980431961130154,8.042562396006645
1.2000399347732038,-1.9574376039933554
1.202036673433392,-2.9574376039933554
1.2040334120935805,10.042562396006645
1.2060301507537687,-0.9574376039933554
1.2080268894139572,-5.957437603993355
1.2100236280741454,10.042562396006645
1.2120203667343339,-11.957437603993355
1.2140171053945221,-9.957437603993355
1.2160138440547106,3.0425623960066446
1.218010582714899,6.042562396006645
1.2200073213750873,-3.9574376039933554
1.2220040600352757,-4.957437603993355
1.224000798695464,4.042562396006645
1.2259975373556524,3.0425623960066446
1.2279942760158407,3.0425623960066446
1.2299910146760291,9.042562396006645
1.2319877533362174,1.0425623960066446
1.2339844919964058,-11.957437603993355
1.2359812306565943,3.0425623960066446
1.2379779693167825,12.042562396006645
1.239974707976971,5.042562396006645
1.2419714466371592,-1.9574376039933554
1.2439681852973477,-4.957437603993355
1.2459649239575359,-2.9574376039933554
1.2479616626177243,-3.9574376039933554
1.2499584012779126,-3.9574376039933554
1.251955139938101,-9.957437603993355
1.2539518785982895,-6.957437603993355
1.2559486172584777,17.042562396006645
1.2579453559186662,6.042562396006645
1.2599420945788544,9.042562396006645
1.2619388332390429,-1.9574376039933554
1.2639355718992311,-3.9574376039933554
1.2659323105594196,-0.9574376039933554
1.2679290492196078,-5.957437603993355
1.2699257878797963,0.042562396006644576
1.2719225265399847,-4.957437603993355
1.273919265200173,-8.957437603993355
1.2759160038603614,-2.9574376039933554
1.2779127425205496,18.042562396006645
1.279909481180738,12.042562396006645
1.2819062198409263,-3.9574376039933554
1.2839029585011148,-9.957437603993355
1.285899697161303,-4.957437603993355
1.2878964358214915,-6.957437603993355
1.28989317448168,19.042562396006645
1.2918899131418682,-0.9574376039933554
1.2938866518020566,-5.957437603993355
1.2958833904622449,0.042562396006644576
1.2978801291224333,-4.957437603993355
1.2998768677826216,-1.9574376039933554
1.30187360644281,9.042562396006645
1.3038703451029983,8.042562396006645
1.3058670837631867,-3.9574376039933554
1.3078638224233752,1.0425623960066446
1.3098605610835634,-7.957437603993355
1.3118572997437519,4.042562396006645
1.31385403840394,-1.9574376039933554
1.3158507770641286,-2.9574376039933554
1.3178475157243168,6.042562396006645
1.3198442543845053,-6.957437603993355
1.3218409930446935,10.042562396006645
1.323837731704882,0.042562396006644576
1.3258344703650704,1.0425623960066446
1.3278312090252586,-2.9574376039933554
1.329827947685447,1.0425623960066446
1.3318246863456353,-6.957437603993355
1.3338214250058238,-9.957437603993355
1.335818163666012,-4.957437603993355
1.3378149023262005,13.042562396006645
1.339811640986389,14.042562396006645
1.3418083796465772,-2.9574376039933554
1.3438051183067656,4.042562396006645
1.3458018569669539,-0.9574376039933554
1.3477985956271423,-4.957437603993355
1.3497953342873306,4.042562396006645
1.351792072947519,-3.9574376039933554
1.3537888116077073,-3.9574376039933554
1.3557855502678957,-2.9574376039933554
1.3577822889280842,-4.957437603993355
1.3597790275882724,10.042562396006645
1.3617757662484609,4.042562396006645
1.363772504908649,-0.9574376039933554
1.3657692435688376,-0.9574376039933554
1.3677659822290258,-7.957437603993355
1.3697627208892142,-5.957437603993355
1.3717594595494025,-9.957437603993355
1.373756198209591,15.042562396006645
1.3757529368697794,-4.957437603993355
1.3777496755299676,-0.9574376039933554
1.379746414190156,8.042562396006645
1.3817431528503443,17.042562396006645
1.3837398915105328,4.042562396006645
1.385736630170721,-11.957437603993355
1.3877333688309095,-7.957437603993355
1.3897301074910977,-9.957437603993355
1.3917268461512862,6.042562396006645
1.3937235848114746,-6.957437603993355
1.3957203234716629,-0.9574376039933554
1.3977170621318513,-3.9574376039933554
1.3997138007920396,6.042562396006645
1.401710539452228,7.042562396006645
1.4037072781124162,-2.9574376039933554
1.4057040167726047,-1.9574376039933554
1.407700755432793,-9.957437603993355
1.4096974940929814,13.042562396006645
1.4116942327531699,4.042562396006645
1.413690971413358,-2.9574376039933554
1.4156877100735465,0.042562396006644576
1.4176844487337348,0.042562396006644576
1.4196811873939232,2.0425623960066446
1.4216779260541115,-1.9574376039933554
1.4236746647143,2.0425623960066446
1.4256714033744882,1.0425623960066446
1.4276681420346766,-10.957437603993355
1.429664880694865,1.0425623960066446
1.4316616193550533,1.0425623960066446
1.4336583580152418,-3.9574376039933554
1.43565509667543,4.042562396006645
1.4376518353356185,4.042562396006645
1.4396485739958067,5.042562396006645
1.4416453126559952,0.042562396006644576
1.4436420513161834,-2.9574376039933554
1.4456387899763719,-4.957437603993355
1.4476355286365603,4.042562396006645
1.4496322672967485,-0.9574376039933554
1.451629005956937,-6.957437603993355
1.4536257446171252,-2.9574376039933554
1.4556224832773137,-0.9574376039933554
1.457619221937502,5.042562396006645
1.4596159605976904,4.042562396006645
1.4616126992578786,-1.9574376039933554
1.463609437918067,2.0425623960066446
1.4656061765782555,-1.9574376039933554
1.4676029152384438,-5.957437603993355
1.4695996538986322,-0.9574376039933554
1.4715963925588205,-7.957437603993355
1.473593131219009,-3.9574376039933554
1.4755898698791972,0.042562396006644576
1.4775866085393856,23.042562396006645
1.4795833471995739,8.042562396006645
1.4815800858597623,3.0425623960066446
1.4835768245199508,4.042562396006645
1.485573563180139,-4.957437603993355
1.4875703018403275,-6.957437603993355
1.4895670405005157,-1.9574376039933554
1.4915637791607042,-2.9574376039933554
1.4935605178208924,-10.957437603993355
1.4955572564810808,1.0425623960066446
1.497553995141269,11.042562396006645
1.4995507338014575,1.0425623960066446
1.501547472461646,1.0425623960066446
1.5035442111218342,-6.957437603993355
1.5055409497820227,3.0425623960066446
1.507537688442211,-5.957437603993355
1.5095344271023994,14.042562396006645
1.5115311657625876,7.042562396006645
1.513527904422776,-0.9574376039933554
1.5155246430829643,-8.957437603993355
1.5175213817431528,4.042562396006645
1.5195181204033412,3.0425623960066446
1.5215148590635295,-5.957437603993355
1.523511597723718,-2.9574376039933554
1.5255083363839061,-2.9574376039933554
1.5275050750440946,-4.957437603993355
1.5295018137042828,-1.9574376039933554
1.5314985523644713,1.0425623960066446
1.5334952910246598,-8.957437603993355
1.535492029684848,-6.957437603993355
1.5374887683450364,-0.9574376039933554
1.5394855070052247,4.042562396006645
1.5414822456654131,5.042562396006645
1.5434789843256014,19.042562396006645
1.5454757229857898,2.0425623960066446
1.547472461645978,-4.957437603993355
1.5494692003061665,-8.957437603993355
1.551465938966355,-6.957437603993355
1.5534626776265432,0.042562396006644576
1.5554594162867317,0.042562396006644576
1.55745615494692,6.042562396006645
1.5594528936071084,1.0425623960066446
1.5614496322672966,-3.9574376039933554
1.563446370927485,0.042562396006644576
1.5654431095876733,2.0425623960066446
1.5674398482478618,-3.9574376039933554
1.5694365869080502,-5.957437603993355
1.5714333255682384,2.0425623960066446
1.573430064228427,5.042562396006645
1.5754268028886151,13.042562396006645
1.5774235415488036,-2.9574376039933554
1.5794202802089918,-2.9574376039933554
1.5814170188691803,-3.9574376039933554
1.5834137575293685,-2.9574376039933554
1.585410496189557,-1.9574376039933554
1.5874072348497454,-1.9574376039933554
1.5894039735099337,3.0425623960066446
1.5914007121701221,6.042562396006645
1.5933974508303104,-10.957437603993355
1.5953941894904988,-4.957437603993355
1.597390928150687,10.042562396006645
1.5993876668108755,10.042562396006645
1.6013844054710638,2.0425623960066446
1.6033811441312522,-4.957437603993355
1.6053778827914407,-6.957437603993355
1.607374621451629,-2.9574376039933554
1.6093713601118174,-2.9574376039933554
1.6113680987720056,1.0425623960066446
1.613364837432194,-1.9574376039933554
1.6153615760923823,9.042562396006645
1.6173583147525707,1.0425623960066446
1.619355053412759,3.0425623960066446
1.6213517920729474,3.0425623960066446
1.623348530733136,-2.9574376039933554
1.6253452693933241,-0.9574376039933554
1.6273420080535126,-1.9574376039933554
1.6293387467137008,-0.9574376039933554
1.6313354853738893,-4.957437603993355
1.6333322240340775,-2.9574376039933554
1.635328962694266,2.0425623960066446
1.6373257013544542,4.042562396006645
1.6393224400146427,4.042562396006645
1.6413191786748311,0.042562396006644576
1.6433159173350194,0.042562396006644576
1.6453126559952078,-1.9574376039933554
1.647309394655396,0.042562396006644576
1.6493061333155845,-3.9574376039933554
1.6513028719757727,-7.957437603993355
1.6532996106359612,-5.957437603993355
1.6552963492961494,18.042562396006645
1.657293087956338,1.0425623960066446
1.6592898266165264,-3.9574376039933554
1.6612865652767146,-7.957437603993355
1.663283303936903,-9.957437603993355
1.6652800425970913,38.042562396006645
1.6672767812572797,-4.957437603993355
1.669273519917468,-6.957437603993355
1.6712702585776564,-3.9574376039933554
1.6732669972378447,-25.957437603993355
1.6752637358980331,17.042562396006645
1.6772604745582216,31.042562396006645
1.6792572132184098,2.0425623960066446
1.6812539518785983,-15.957437603993355
1.6832506905387865,-2.9574376039933554
1.685247429198975,-1.9574376039933554
1.6872441678591632,-14.957437603993355
1.6892409065193517,7.042562396006645
1.69123764517954,9.042562396006645
1.6932343838397284,-11.957437603993355
1.6952311224999168,-7.957437603993355
1.697227861160105,9.042562396006645
1.6992245998202935,14.042562396006645
1.7012213384804817,5.042562396006645
1.7032180771406702,-10.957437603993355
1.7052148158008584,0.042562396006644576
1.7072115544610469,1.0425623960066446
1.7092082931212351,-3.9574376039933554
1.7112050317814236,-6.957437603993355
1.713201770441612,-8.957437603993355
1.7151985091018003,2.0425623960066446
1.7171952477619887,-0.9574376039933554
1.719191986422177,-2.9574376039933554
1.7211887250823654,0.042562396006644576
1.7231854637425537,3.0425623960066446
1.7251822024027421,-8.957437603993355
1.7271789410629304,-2.9574376039933554
1.7291756797231188,8.042562396006645
1.7311724183833073,1.0425623960066446
1.7331691570434955,-3.9574376039933554
1.735165895703684,-0.9574376039933554
1.7371626343638722,1.0425623960066446
1.7391593730240607,4.042562396006645
1.7411561116842489,-1.9574376039933554
1.7431528503444373,1.0425623960066446
1.7451495890046258,-1.9574376039933554
1.747146327664814,-3.9574376039933554
1.7491430663250025,2.0425623960066446
1.7511398049851907,1.0425623960066446
1.7531365436453792,0.042562396006644576
1.7551332823055674,0.042562396006644576
1.7571300209657559,1.0425623960066446
1.7591267596259441,6.042562396006645
1.7611234982861326,4.042562396006645
1.763120236946321,-3.9574376039933554
1.7651169756065093,1.0425623960066446
1.7671137142666977,3.0425623960066446
1.769110452926886,3.0425623960066446
1.7711071915870744,-4.957437603993355
1.7731039302472626,-3.9574376039933554
1.775100668907451,0.042562396006644576
1.7770974075676393,9.042562396006645
1.7790941462278278,3.0425623960066446
1.7810908848880163,1.0425623960066446
1.7830876235482045,-1.9574376039933554
1.785084362208393,-3.9574376039933554
1.7870811008685812,-8.957437603993355
1.7890778395287696,5.042562396006645
1.7910745781889579,-1.9574376039933554
1.7930713168491463,1.0425623960066446
1.7950680555093346,4.042562396006645
1.797064794169523,-4.957437603993355
1.7990615328297115,3.0425623960066446
1.8010582714898997,0.042562396006644576
1.8030550101500882,16.042562396006645
1.8050517488102764,4.042562396006645
1.8070484874704649,-10.957437603993355
1.809045226130653,5.042562396006645
1.8110419647908416,-3.9574376039933554
1.8130387034510298,-8.957437603993355
1.8150354421112183,4.042562396006645
1.8170321807714067,-1.9574376039933554
1.819028919431595,1.0425623960066446
1.8210256580917834,0.042562396006644576
1.8230223967519716,2.0425623960066446
1.82501913541216,2.0425623960066446
1.8270158740723483,-2.9574376039933554
1.8290126127325368,-2.9574376039933554
1.831009351392725,-9.957437603993355
1.8330060900529135,-6.957437603993355
1.835002828713102,16.042562396006645
1.8369995673732902,-14.957437603993355
1.8389963060334786,23.042562396006645
1.8409930446936669,15.042562396006645
1.8429897833538553,-4.957437603993355
1.8449865220140436,-7.957437603993355
1.846983260674232,-8.957437603993355
1.8489799993344203,9.042562396006645
1.8509767379946087,-7.957437603993355
1.8529734766547972,-2.9574376039933554
1.8549702153149854,7.042562396006645
1.8569669539751739,5.042562396006645
1.858963692635362,3.0425623960066446
1.8609604312955506,-3.9574376039933554
1.8629571699557388,-7.957437603993355
1.8649539086159272,-9.957437603993355
1.8669506472761155,11.042562396006645
1.868947385936304,7.042562396006645
1.8709441245964924,-2.9574376039933554
1.8729408632566806,-11.957437603993355
1.874937601916869,9.042562396006645
1.8769343405770573,2.0425623960066446
1.8789310792372458,1.0425623960066446
1.880927817897434,1.0425623960066446
1.8829245565576225,-1.9574376039933554
1.8849212952178107,-0.9574376039933554
1.8869180338779992,-2.9574376039933554
1.8889147725381876,-15.957437603993355
1.8909115111983759,-15.957437603993355
1.8929082498585643,19.042562396006645
1.8949049885187526,28.042562396006645
1.896901727178941,5.042562396006645
1.8988984658391292,-3.9574376039933554
1.9008952044993177,-5.957437603993355
1.902891943159506,-5.957437603993355
1.9048886818196944,-5.957437603993355
1.9068854204798829,-0.9574376039933554
1.908882159140071,-1.9574376039933554
1.9108788978002595,-1.9574376039933554
1.9128756364604478,2.0425623960066446
1.9148723751206362,-1.9574376039933554
1.9168691137808245,0.042562396006644576
1.918865852441013,5.042562396006645
1.9208625911012012,0.042562396006644576
1.9228593297613896,-1.9574376039933554
1.924856068421578,1.0425623960066446
1.9268528070817663,-1.9574376039933554
1.9288495457419548,-0.9574376039933554
1.930846284402143,-2.9574376039933554
1.9328430230623315,-3.9574376039933554
1.9348397617225197,-1.9574376039933554
1.9368365003827082,-2.9574376039933554
1.9388332390428964,-1.9574376039933554
1.9408299777030849,1.0425623960066446
1.9428267163632733,14.042562396006645
1.9448234550234615,-0.9574376039933554
1.94682019368365,-8.957437603993355
1.9488169323438382,5.042562396006645
1.9508136710040267,3.0425623960066446
1.952810409664215,-14.957437603993355
1.9548071483244034,-7.957437603993355
1.9568038869845918,14.042562396006645
1.95880062564478,8.042562396006645
1.9607973643049685,-2.9574376039933554
1.9627941029651568,-9.957437603993355
1.9647908416253452,1.0425623960066446
1.9667875802855335,6.042562396006645
1.968784318945722,3.0425623960066446
1.9707810576059102,-6.957437603993355
1.9727777962660986,-26.957437603993355
1.974774534926287,11.042562396006645
1.9767712735864753,-1.9574376039933554
1.9787680122466638,20.042562396006645
1.980764750906852,17.042562396006645
1.9827614895670405,-4.957437603993355
1.9847582282272287,6.042562396006645
1.9867549668874172,-8.957437603993355
1.9887517055476054,-6.957437603993355
1.9907484442077938,0.042562396006644576
1.9927451828679823,-1.9574376039933554
1.9947419215281705,-6.957437603993355
1.996738660188359,1.0425623960066446
1.9987353988485472,8.042562396006645
2.0007321375087357,14.042562396006645
2.002728876168924,4.042562396006645
2.004725614829112,-4.957437603993355
2.006722353489301,-0.9574376039933554
2.008719092149489,-3.9574376039933554
2.0107158308096773,-6.957437603993355
2.012712569469866,-4.957437603993355
2.014709308130054,1.0425623960066446
2.0167060467902425,1.0425623960066446
2.0187027854504307,3.0425623960066446
2.0206995241106194,-3.9574376039933554
2.0226962627708076,-0.9574376039933554
2.024693001430996,8.042562396006645
2.026689740091184,2.0425623960066446
2.0286864787513728,-3.9574376039933554
2.030683217411561,-1.9574376039933554
2.0326799560717492,-3.9574376039933554
2.034676694731938,-1.9574376039933554
2.036673433392126,1.0425623960066446
2.0386701720523144,11.042562396006645
2.0406669107125026,-0.9574376039933554
2.0426636493726913,-4.957437603993355
2.0446603880328795,1.0425623960066446
2.0466571266930678,-1.9574376039933554
2.0486538653532564,-1.9574376039933554
2.0506506040134447,-1.9574376039933554
2.052647342673633,-0.9574376039933554
2.054644081333821,2.0425623960066446
2.05664081999401,2.0425623960066446
2.058637558654198,0.042562396006644576
2.0606342973143863,-4.957437603993355
2.062631035974575,-7.957437603993355
2.064627774634763,-2.9574376039933554
2.0666245132949514,5.042562396006645
2.0686212519551397,6.042562396006645
2.0706179906153284,-1.9574376039933554
2.0726147292755166,0.042562396006644576
2.074611467935705,0.042562396006644576
2.076608206595893,-15.957437603993355
2.0786049452560817,-1.9574376039933554
2.08060168391627,8.042562396006645
2.082598422576458,5.042562396006645
2.084595161236647,-3.9574376039933554
2.086591899896835,15.042562396006645
2.0885886385570234,-2.9574376039933554
2.0905853772172116,-7.957437603993355
2.0925821158774003,-3.9574376039933554
2.0945788545375885,-4.957437603993355
2.0965755931977768,-1.9574376039933554
2.0985723318579654,8.042562396006645
2.1005690705181537,4.042562396006645
2.102565809178342,-1.9574376039933554
2.10456254783853,-2.9574376039933554
2.106559286498719,0.042562396006644576
2.108556025158907,0.042562396006644576
2.1105527638190953,-2.9574376039933554
2.1125495024792835,-11.957437603993355
2.114546241139472,-0.9574376039933554
2.1165429797996604,17.042562396006645
2.1185397184598487,10.042562396006645
2.1205364571200374,-0.9574376039933554
2.1225331957802256,-3.9574376039933554
2.124529934440414,-2.9574376039933554
2.126526673100602,-4.957437603993355
2.1285234117607907,-2.9574376039933554
2.130520150420979,-4.957437603993355
2.132516889081167,-8.957437603993355
2.134513627741356,7.042562396006645
2.136510366401544,8.042562396006645
2.1385071050617324,2.0425623960066446
2.1405038437219206,-2.9574376039933554
2.1425005823821093,2.0425623960066446
2.1444973210422975,10.042562396006645
2.1464940597024857,-6.957437603993355
2.148490798362674,-4.957437603993355
2.1504875370228627,1.0425623960066446
2.152484275683051,-4.957437603993355
2.154481014343239,10.042562396006645
2.156477753003428,-1.9574376039933554
2.158474491663616,-2.9574376039933554
2.1604712303238043,1.0425623960066446
2.1624679689839925,-2.9574376039933554
2.164464707644181,-4.957437603993355
2.1664614463043694,5.042562396006645
2.1684581849645577,2.0425623960066446
2.1704549236247463,-0.9574376039933554
2.1724516622849346,-7.957437603993355
2.174448400945123,-7.957437603993355
2.176445139605311,1.0425623960066446
2.1784418782654997,14.042562396006645
2.180438616925688,14.042562396006645
2.182435355585876,-2.9574376039933554
2.1844320942460644,-9.957437603993355
2.186428832906253,-6.957437603993355
2.1884255715664414,5.042562396006645
2.1904223102266296,1.0425623960066446
2.1924190488868183,1.0425623960066446
2.1944157875470065,9.042562396006645
2.1964125262071947,-9.957437603993355
2.198409264867383,4.042562396006645
2.2004060035275717,-10.957437603993355
2.20240274218776,-8.957437603993355
2.204399480847948,11.042562396006645
2.206396219508137,-2.9574376039933554
2.208392958168325,1.0425623960066446
2.2103896968285133,-0.9574376039933554
2.2123864354887015,-2.9574376039933554
2.21438317414889,-4.957437603993355
2.2163799128090784,-11.957437603993355
2.2183766514692667,-7.957437603993355
2.220373390129455,1.0425623960066446
2.2223701287896436,23.042562396006645
2.224366867449832,-2.9574376039933554
2.22636360611002,2.0425623960066446
2.2283603447702087,11.042562396006645
2.230357083430397,-5.957437603993355
2.232353822090585,-5.957437603993355
2.2343505607507734,-2.9574376039933554
2.236347299410962,0.042562396006644576
2.2383440380711503,8.042562396006645
2.2403407767313386,-0.9574376039933554
2.2423375153915273,-0.9574376039933554
2.2443342540517155,-2.9574376039933554
2.2463309927119037,-5.957437603993355
2.248327731372092,-0.9574376039933554
2.2503244700322806,1.0425623960066446
2.252321208692469,-2.9574376039933554
2.254317947352657,1.0425623960066446
2.256314686012846,4.042562396006645
2.258311424673034,2.0425623960066446
2.2603081633332223,0.042562396006644576
2.2623049019934105,1.0425623960066446
2.264301640653599,-3.9574376039933554
2.2662983793137874,8.042562396006645
2.2682951179739756,-3.9574376039933554
2.270291856634164,2.0425623960066446
2.2722885952943526,-2.9574376039933554
2.274285333954541,3.0425623960066446
2.276282072614729,-0.9574376039933554
2.2782788112749177,4.042562396006645
2.280275549935106,6.042562396006645
2.282272288595294,0.042562396006644576
2.2842690272554824,-4.957437603993355
2.286265765915671,-2.9574376039933554
2.2882625045758593,-0.9574376039933554
2.2902592432360476,-2.9574376039933554
2.2922559818962362,-14.957437603993355
2.2942527205564245,8.042562396006645
2.2962494592166127,8.042562396006645
2.298246197876801,17.042562396006645
2.3002429365369896,-8.957437603993355
2.302239675197178,1.0425623960066446
2.304236413857366,-5.957437603993355
2.3062331525175543,-4.957437603993355
2.308229891177743,-1.9574376039933554
2.3102266298379313,-2.9574376039933554
2.3122233684981195,5.042562396006645
2.314220107158308,1.0425623960066446
2.3162168458184964,-3.9574376039933554
2.3182135844786846,-4.957437603993355
2.320210323138873,-0.9574376039933554
2.3222070617990616,29.042562396006645
2.32420380045925,1.0425623960066446
2.326200539119438,-8.957437603993355
2.3281972777796267,-8.957437603993355
2.330194016439815,-1.9574376039933554
2.332190755100003,4.042562396006645
2.3341874937601914,5.042562396006645
2.33618423242038,-6.957437603993355
2.3381809710805683,-2.9574376039933554
2.3401777097407566,5.042562396006645
2.342174448400945,16.042562396006645
2.3441711870611335,3.0425623960066446
2.3461679257213217,-10.957437603993355
2.34816466438151,-13.957437603993355
2.3501614030416986,-2.9574376039933554
2.352158141701887,-1.9574376039933554
2.354154880362075,8.042562396006645
2.3561516190222633,2.0425623960066446
2.358148357682452,8.042562396006645
2.3601450963426402,18.042562396006645
2.3621418350028285,-11.957437603993355
2.364138573663017,9.042562396006645
2.3661353123232054,-9.957437603993355
2.3681320509833936,-15.957437603993355
2.370128789643582,-10.957437603993355
2.3721255283037705,4.042562396006645
2.374122266963959,2.0425623960066446
2.376119005624147,-1.9574376039933554
2.3781157442843353,3.0425623960066446
2.380112482944524,-1.9574376039933554
2.382109221604712,15.042562396006645
2.3841059602649004,2.0425623960066446
2.386102698925089,-3.9574376039933554
2.3880994375852773,-12.957437603993355
2.3900961762454656,-5.957437603993355
2.392092914905654,-1.9574376039933554
2.3940896535658425,16.042562396006645
2.3960863922260307,10.042562396006645
2.398083130886219,-0.9574376039933554
2.4000798695464076,-6.957437603993355
2.402076608206596,-4.957437603993355
2.404073346866784,4.042562396006645
2.4060700855269723,-1.9574376039933554
2.408066824187161,1.0425623960066446
2.4100635628473492,-2.9574376039933554
2.4120603015075375,-5.957437603993355
2.4140570401677257,2.0425623960066446
2.4160537788279144,6.042562396006645
2.4180505174881026,1.0425623960066446
2.420047256148291,-6.957437603993355
2.4220439948084795,0.042562396006644576
2.4240407334686678,6.042562396006645
2.426037472128856,-3.9574376039933554
2.4280342107890442,4.042562396006645
2.430030949449233,1.0425623960066446
2.432027688109421,-1.9574376039933554
2.4340244267696094,-1.9574376039933554
2.436021165429798,0.042562396006644576
2.4380179040899863,7.042562396006645
2.4400146427501745,3.0425623960066446
2.442011381410363,-5.957437603993355
2.4440081200705515,-10.957437603993355
2.4460048587307397,12.042562396006645
2.448001597390928,6.042562396006645
2.449998336051116,0.042562396006644576
2.451995074711305,-5.957437603993355
2.453991813371493,-7.957437603993355
2.4559885520316813,1.0425623960066446
2.45798529069187,13.042562396006645
2.4599820293520582,-4.957437603993355
2.4619787680122465,-13.957437603993355
2.4639755066724347,19.042562396006645
2.4659722453326234,-22.957437603993355
2.4679689839928116,2.0425623960066446
2.469965722653,12.042562396006645
2.4719624613131885,-1.9574376039933554
2.4739591999733768,8.042562396006645
2.475955938633565,-2.9574376039933554
2.4779526772937532,-3.9574376039933554
2.479949415953942,4.042562396006645
2.48194615461413,-13.957437603993355
2.4839428932743184,-5.957437603993355
2.485939631934507,-3.9574376039933554
2.4879363705946953,-2.9574376039933554
2.4899331092548835,21.042562396006645
2.4919298479150718,-13.957437603993355
2.4939265865752605,1.0425623960066446
2.4959233252354487,11.042562396006645
2.497920063895637,5.042562396006645
2.499916802555825,-9.957437603993355
2.501913541216014,-2.9574376039933554
2.503910279876202,4.042562396006645
2.5059070185363903,-4.957437603993355
2.507903757196579,2.0425623960066446
2.509900495856767,-11.957437603993355
2.5118972345169555,10.042562396006645
2.5138939731771437,5.042562396006645
2.5158907118373324,5.042562396006645
2.5178874504975206,2.0425623960066446
2.519884189157709,-0.9574376039933554
2.5218809278178975,-11.957437603993355
2.5238776664780858,9.042562396006645
2.525874405138274,-1.9574376039933554
2.5278711437984622,-2.9574376039933554
2.529867882458651,-5.957437603993355
2.531864621118839,-6.957437603993355
2.5338613597790274,-9.957437603993355
2.5358580984392156,22.042562396006645
2.5378548370994043,9.042562396006645
2.5398515757595925,-2.9574376039933554
2.5418483144197808,-4.957437603993355
2.5438450530799694,-2.9574376039933554
2.5458417917401577,-3.9574376039933554
2.547838530400346,-0.9574376039933554
2.549835269060534,-2.9574376039933554
2.551832007720723,-7.957437603993355
2.553828746380911,6.042562396006645
2.5558254850410993,4.042562396006645
2.557822223701288,5.042562396006645
2.559818962361476,-1.9574376039933554
2.5618157010216644,-0.9574376039933554
2.5638124396818527,3.0425623960066446
2.5658091783420414,0.042562396006644576
2.5678059170022296,-6.957437603993355
2.569802655662418,-6.957437603993355
2.571799394322606,0.042562396006644576
2.5737961329827947,5.042562396006645
2.575792871642983,5.042562396006645
2.577789610303171,3.0425623960066446
2.57978634896336,-4.957437603993355
2.581783087623548,-2.9574376039933554
2.5837798262837364,4.042562396006645
2.5857765649439246,-7.957437603993355
2.5877733036041133,-2.9574376039933554
2.5897700422643015,-7.957437603993355
2.5917667809244898,1.0425623960066446
2.5937635195846784,17.042562396006645
2.5957602582448667,-1.9574376039933554
2.597756996905055,-3.9574376039933554
2.599753735565243,21.042562396006645
2.601750474225432,-6.957437603993355
2.60374721288562,6.042562396006645
2.6057439515458083,-5.957437603993355
2.6077406902059965,-0.9574376039933554
2.609737428866185,-12.957437603993355
2.6117341675263734,-2.9574376039933554
2.6137309061865617,1.0425623960066446
2.6157276448467504,5.042562396006645
2.6177243835069386,5.042562396006645
2.619721122167127,1.0425623960066446
2.621717860827315,-4.957437603993355
2.6237145994875037,-8.957437603993355
2.625711338147692,6.042562396006645
2.62770807680788,5.042562396006645
2.629704815468069,-27.957437603993355
2.631701554128257,12.042562396006645
2.6336982927884454,14.042562396006645
2.6356950314486336,8.042562396006645
2.6376917701088223,-26.957437603993355
2.6396885087690105,-4.957437603993355
2.6416852474291987,40.042562396006645
2.643681986089387,10.042562396006645
2.6456787247495757,-6.957437603993355
2.647675463409764,-7.957437603993355
2.649672202069952,-10.957437603993355
2.651668940730141,-5.957437603993355
2.653665679390329,-2.9574376039933554
2.6556624180505173,-0.9574376039933554
2.6576591567107055,13.042562396006645
2.659655895370894,0.042562396006644576
2.6616526340310824,-3.9574376039933554
2.6636493726912707,-7.957437603993355
2.6656461113514593,-2.9574376039933554
2.6676428500116476,-0.9574376039933554
2.669639588671836,-2.9574376039933554
2.671636327332024,-4.957437603993355
2.6736330659922127,5.042562396006645
2.675629804652401,4.042562396006645
2.677626543312589,3.0425623960066446
2.679623281972778,0.042562396006644576
2.681620020632966,-4.957437603993355
2.6836167592931544,2.0425623960066446
2.6856134979533426,-3.9574376039933554
2.6876102366135313,-2.9574376039933554
2.6896069752737195,-1.9574376039933554
2.6916037139339077,-0.9574376039933554
2.693600452594096,5.042562396006645
2.6955971912542847,4.042562396006645
2.697593929914473,-2.9574376039933554
2.699590668574661,-2.9574376039933554
2.70158740723485,-1.9574376039933554
2.703584145895038,-1.9574376039933554
2.7055808845552263,1.0425623960066446
2.7075776232154145,14.042562396006645
2.709574361875603,-1.9574376039933554
2.7115711005357914,-10.957437603993355
2.7135678391959797,4.042562396006645
2.7155645778561683,2.0425623960066446
2.7175613165163566,-0.9574376039933554
2.719558055176545,-2.9574376039933554
2.721554793836733,-3.9574376039933554
2.7235515324969217,11.042562396006645
2.72554827115711,-2.9574376039933554
2.727545009817298,-8.957437603993355
2.7295417484774864,1.0425623960066446
2.731538487137675,7.042562396006645
2.7335352257978633,2.0425623960066446
2.7355319644580516,-1.9574376039933554
2.7375287031182403,7.042562396006645
2.7395254417784285,12.042562396006645
2.7415221804386167,7.042562396006645
2.743518919098805,-5.957437603993355
2.7455156577589936,-3.9574376039933554
2.747512396419182,-3.9574376039933554
2.74950913507937,-4.957437603993355
2.751505873739559,0.042562396006644576
2.753502612399747,-3.9574376039933554
2.7554993510599353,3.0425623960066446
2.7574960897201235,4.042562396006645
2.759492828380312,-3.9574376039933554
2.7614895670405004,9.042562396006645
2.7634863057006886,-3.9574376039933554
2.765483044360877,-2.9574376039933554
2.7674797830210656,-2.9574376039933554
2.769476521681254,14.042562396006645
2.771473260341442,-5.957437603993355
2.7734699990016307,1.0425623960066446
2.775466737661819,7.042562396006645
2.777463476322007,-13.957437603993355
2.7794602149821954,-3.9574376039933554
2.781456953642384,18.042562396006645
2.7834536923025723,-3.9574376039933554
2.7854504309627606,-6.957437603993355
2.7874471696229493,0.042562396006644576
2.7894439082831375,-6.957437603993355
2.7914406469433257,11.042562396006645
2.793437385603514,13.042562396006645
2.7954341242637026,2.0425623960066446
2.797430862923891,-2.9574376039933554
2.799427601584079,-2.9574376039933554
2.8014243402442673,-4.957437603993355
2.803421078904456,3.0425623960066446
2.8054178175646443,-1.9574376039933554
2.8074145562248325,-0.9574376039933554
2.809411294885021,-4.957437603993355
2.8114080335452094,-3.9574376039933554
2.8134047722053976,-0.9574376039933554
2.815401510865586,12.042562396006645
2.8173982495257746,0.042562396006644576
2.819394988185963,4.042562396006645
2.821391726846151,-3.9574376039933554
2.8233884655063397,-2.9574376039933554
2.825385204166528,-3.9574376039933554
2.827381942826716,2.0425623960066446
2.8293786814869044,1.0425623960066446
2.831375420147093,-2.9574376039933554
2.8333721588072813,-1.9574376039933554
2.8353688974674696,5.042562396006645
2.837365636127658,8.042562396006645
2.8393623747878465,-10.957437603993355
2.8413591134480347,-6.957437603993355
2.843355852108223,9.042562396006645
2.8453525907684116,1.0425623960066446
2.8473493294286,-5.957437603993355
2.849346068088788,-6.957437603993355
2.8513428067489763,-2.9574376039933554
2.853339545409165,6.042562396006645
2.8553362840693532,3.0425623960066446
2.8573330227295415,-1.9574376039933554
2.85932976138973,2.0425623960066446
2.8613265000499184,6.042562396006645
2.8633232387101066,2.0425623960066446
2.865319977370295,-9.957437603993355
2.8673167160304835,-10.957437603993355
2.869313454690672,3.0425623960066446
2.87131019335086,-2.9574376039933554
2.8733069320110487,11.042562396006645
2.875303670671237,-0.9574376039933554
2.877300409331425,3.0425623960066446
2.8792971479916134,-0.9574376039933554
2.881293886651802,4.042562396006645
2.8832906253119903,-5.957437603993355
2.8852873639721786,-9.957437603993355
2.887284102632367,-7.957437603993355
2.8892808412925555,1.0425623960066446
2.8912775799527437,6.042562396006645
2.893274318612932,0.042562396006644576
2.8952710572731206,-1.9574376039933554
2.897267795933309,9.042562396006645
2.899264534593497,-7.957437603993355
2.9012612732536853,-11.957437603993355
2.903258011913874,3.0425623960066446
2.9052547505740622,22.042562396006645
2.9072514892342505,10.042562396006645
2.909248227894439,-1.9574376039933554
2.9112449665546274,-5.957437603993355
2.9132417052148156,-6.957437603993355
2.915238443875004,-4.957437603993355
2.9172351825351925,-5.957437603993355
2.9192319211953808,19.042562396006645
2.921228659855569,4.042562396006645
2.9232253985157572,-10.957437603993355
2.925222137175946,-0.9574376039933554
2.927218875836134,5.042562396006645
2.9292156144963224,-5.957437603993355
2.931212353156511,-15.957437603993355
2.9332090918166993,14.042562396006645
2.9352058304768875,2.0425623960066446
2.937202569137076,1.0425623960066446
2.9391993077972645,1.0425623960066446
2.9411960464574527,-0.9574376039933554
2.943192785117641,-0.9574376039933554
2.9451895237778296,-3.9574376039933554
2.947186262438018,4.042562396006645
2.949183001098206,-5.957437603993355
2.9511797397583943,9.042562396006645
2.953176478418583,1.0425623960066446
2.9551732170787712,-2.9574376039933554
2.9571699557389595,1.0425623960066446
2.9591666943991477,-0.9574376039933554
2.9611634330593364,-7.957437603993355
2.9631601717195246,-5.957437603993355
2.965156910379713,6.042562396006645
2.9671536490399015,4.042562396006645
2.9691503877000898,-15.957437603993355
2.971147126360278,-9.957437603993355
2.9731438650204662,7.042562396006645
2.975140603680655,3.0425623960066446
2.977137342340843,24.042562396006645
2.9791340810010314,11.042562396006645
2.98113081966122,4.042562396006645
2.9831275583214083,-4.957437603993355
2.9851242969815965,-5.957437603993355
2.9871210356417848,-6.957437603993355
2.9891177743019735,-1.9574376039933554
2.9911145129621617,-6.957437603993355
2.99311125162235,-2.9574376039933554
2.995107990282538,5.042562396006645
2.997104728942727,2.0425623960066446
2.999101467602915,-4.957437603993355
3.0010982062631033,5.042562396006645
3.003094944923292,-2.9574376039933554
3.0050916835834802,3.0425623960066446
3.0070884222436685,-2.9574376039933554
3.0090851609038567,-8.957437603993355
3.0110818995640454,-2.9574376039933554
3.0130786382242336,6.042562396006645
3.015075376884422,8.042562396006645
3.0170721155446105,-0.9574376039933554
3.0190688542047988,-1.9574376039933554
3.021065592864987,-0.9574376039933554
3.0230623315251752,4.042562396006645
3.025059070185364,-5.957437603993355
3.027055808845552,-2.9574376039933554
3.0290525475057404,-13.957437603993355
3.0310492861659286,-2.9574376039933554
3.0330460248261173,17.042562396006645
3.0350427634863055,7.042562396006645
3.0370395021464938,-2.9574376039933554
3.0390362408066824,-2.9574376039933554
3.0410329794668707,0.042562396006644576
3.043029718127059,6.042562396006645
3.045026456787247,1.0425623960066446
3.047023195447436,-7.957437603993355
3.049019934107624,-6.957437603993355
3.0510166727678123,-1.9574376039933554
3.053013411428001,-8.957437603993355
3.055010150088189,7.042562396006645
3.0570068887483774,14.042562396006645
3.0590036274085657,-3.9574376039933554
3.0610003660687544,4.042562396006645
3.0629971047289426,2.0425623960066446
3.064993843389131,-5.957437603993355
3.0669905820493195,-7.957437603993355
3.0689873207095077,-10.957437603993355
3.070984059369696,8.042562396006645
3.072980798029884,12.042562396006645
3.074977536690073,4.042562396006645
3.076974275350261,0.042562396006644576
3.0789710140104494,-3.9574376039933554
3.0809677526706376,-1.9574376039933554
3.0829644913308263,-4.957437603993355
3.0849612299910145,-1.9574376039933554
3.0869579686512028,-10.957437603993355
3.0889547073113914,15.042562396006645
3.0909514459715797,6.042562396006645
3.092948184631768,1.0425623960066446
3.094944923291956,-2.9574376039933554
3.096941661952145,-6.957437603993355
3.098938400612333,-5.957437603993355
3.1009351392725213,13.042562396006645
3.10293187793271,-3.9574376039933554
3.104928616592898,1.0425623960066446
3.1069253552530864,1.0425623960066446
3.1089220939132747,-12.957437603993355
3.1109188325734634,3.0425623960066446
3.1129155712336516,2.0425623960066446
3.11491230989384,-1.9574376039933554
3.116909048554028,19.042562396006645
3.1189057872142167,1.0425623960066446
3.120902525874405,-10.957437603993355
3.122899264534593,17.042562396006645
3.124896003194782,-6.957437603993355
3.12689274185497,-7.957437603993355
3.1288894805151584,-2.9574376039933554
3.1308862191753466,-2.9574376039933554
3.1328829578355353,-2.9574376039933554
3.1348796964957235,3.0425623960066446
3.1368764351559117,2.0425623960066446
3.1388731738161004,-1.9574376039933554
3.1408699124762887,9.042562396006645
3.142866651136477,4.042562396006645
3.144863389796665,0.042562396006644576
3.146860128456854,-2.9574376039933554
3.148856867117042,-3.9574376039933554
3.1508536057772303,-2.9574376039933554
3.1528503444374185,3.0425623960066446
3.154847083097607,1.0425623960066446
3.1568438217577954,-2.9574376039933554
3.1588405604179837,1.0425623960066446
3.1608372990781723,5.042562396006645
3.1628340377383606,-2.9574376039933554
3.164830776398549,3.0425623960066446
3.166827515058737,-3.9574376039933554
3.1688242537189257,-7.957437603993355
3.170820992379114,-2.9574376039933554
3.172817731039302,3.0425623960066446
3.174814469699491,-0.9574376039933554
3.176811208359679,1.0425623960066446
3.1788079470198674,3.0425623960066446
3.1808046856800556,1.0425623960066446
3.1828014243402443,-3.9574376039933554
3.1847981630004325,9.042562396006645
3.1867949016606207,1.0425623960066446
3.188791640320809,-6.957437603993355
3.1907883789809977,-2.9574376039933554
3.192785117641186,-11.957437603993355
3.194781856301374,8.042562396006645
3.196778594961563,11.042562396006645
3.198775333621751,1.0425623960066446
3.2007720722819393,-6.957437603993355
3.2027688109421275,3.0425623960066446
3.204765549602316,0.042562396006644576
3.2067622882625044,-4.957437603993355
3.2087590269226927,-7.957437603993355
3.2107557655828813,-7.957437603993355
3.2127525042430696,0.042562396006644576
3.214749242903258,4.042562396006645
3.216745981563446,10.042562396006645
3.2187427202236347,8.042562396006645
3.220739458883823,-10.957437603993355
3.222736197544011,-19.957437603993355
3.2247329362041994,10.042562396006645
3.226729674864388,34.042562396006645
3.2287264135245763,-0.9574376039933554
3.2307231521847646,-4.957437603993355
3.2327198908449533,-7.957437603993355
3.2347166295051415,-4.957437603993355
3.2367133681653297,-2.9574376039933554
3.238710106825518,-6.957437603993355
3.2407068454857066,12.042562396006645
3.242703584145895,2.0425623960066446
3.244700322806083,1.0425623960066446
3.246697061466272,-3.9574376039933554
3.24869380012646,-2.9574376039933554
3.2506905387866483,-7.957437603993355
3.2526872774468365,2.0425623960066446
3.254684016107025,1.0425623960066446
3.2566807547672134,7.042562396006645
3.2586774934274017,2.0425623960066446
3.26067423208759,-0.9574376039933554
3.2626709707477786,-1.9574376039933554
3.264667709407967,-8.957437603993355
3.266664448068155,-1.9574376039933554
3.2686611867283437,12.042562396006645
3.270657925388532,-2.9574376039933554
3.27265466404872,-3.9574376039933554
3.2746514027089084,6.042562396006645
3.276648141369097,1.0425623960066446
3.2786448800292853,-1.9574376039933554
3.2806416186894736,-2.9574376039933554
3.2826383573496623,-3.9574376039933554
3.2846350960098505,0.042562396006644576
3.2866318346700387,8.042562396006645
3.288628573330227,-1.9574376039933554
3.2906253119904156,-10.957437603993355
3.292622050650604,-9.957437603993355
3.294618789310792,5.042562396006645
3.296615527970981,10.042562396006645
3.298612266631169,8.042562396006645
3.3006090052913573,6.042562396006645
3.3026057439515455,-11.957437603993355
3.304602482611734,-5.957437603993355
3.3065992212719224,-0.9574376039933554
3.3085959599321106,-6.957437603993355
3.310592698592299,-3.9574376039933554
3.3125894372524876,2.0425623960066446
3.314586175912676,5.042562396006645
3.316582914572864,4.042562396006645
3.3185796532330527,1.0425623960066446
3.320576391893241,-12.957437603993355
3.322573130553429,6.042562396006645
3.3245698692136174,2.0425623960066446
3.326566607873806,0.042562396006644576
3.3285633465339943,-3.9574376039933554
3.3305600851941826,-5.957437603993355
3.3325568238543712,2.0425623960066446
3.3345535625145595,9.042562396006645
3.3365503011747477,-0.9574376039933554
3.338547039834936,-6.957437603993355
3.3405437784951246,-10.957437603993355
3.342540517155313,4.042562396006645
3.344537255815501,24.042562396006645
3.3465339944756893,0.042562396006644576
3.348530733135878,-7.957437603993355
3.3505274717960662,-10.957437603993355
3.3525242104562545,-4.957437603993355
3.354520949116443,-10.957437603993355
3.3565176877766314,4.042562396006645
3.3585144264368196,27.042562396006645
3.360511165097008,-2.9574376039933554
3.3625079037571965,-10.957437603993355
3.364504642417385,0.042562396006644576
3.366501381077573,2.0425623960066446
3.3684981197377617,9.042562396006645
3.37049485839795,-4.957437603993355
3.372491597058138,1.0425623960066446
3.3744883357183264,3.0425623960066446
3.376485074378515,2.0425623960066446
3.3784818130387033,-3.9574376039933554
3.3804785516988916,-2.9574376039933554
3.38247529035908,-5.957437603993355
3.3844720290192685,1.0425623960066446
3.3864687676794567,4.042562396006645
3.388465506339645,-2.9574376039933554
3.3904622449998336,-2.9574376039933554
3.392458983660022,1.0425623960066446
3.39445572232021,1.0425623960066446
3.3964524609803983,7.042562396006645
3.398449199640587,-0.9574376039933554
3.4004459383007752,-4.957437603993355
3.4024426769609635,-0.9574376039933554
3.404439415621152,2.0425623960066446
3.4064361542813404,0.042562396006644576
3.4084328929415286,-1.9574376039933554
3.410429631601717,-4.957437603993355
3.4124263702619055,2.0425623960066446
3.4144231089220938,6.042562396006645
3.416419847582282,4.042562396006645
3.4184165862424702,4.042562396006645
3.420413324902659,-6.957437603993355
3.422410063562847,-13.957437603993355
3.4244068022230354,6.042562396006645
3.426403540883224,4.042562396006645
3.4284002795434123,4.042562396006645
3.4303970182036005,8.042562396006645
3.432393756863789,5.042562396006645
3.4343904955239775,-1.9574376039933554
3.4363872341841657,-0.9574376039933554
3.438383972844354,1.0425623960066446
3.4403807115045426,-2.9574376039933554
3.442377450164731,-9.957437603993355
3.444374188824919,2.0425623960066446
3.4463709274851073,0.042562396006644576
3.448367666145296,-4.957437603993355
3.4503644048054842,7.042562396006645
3.4523611434656725,-1.9574376039933554
3.4543578821258607,3.0425623960066446
3.4563546207860494,13.042562396006645
3.4583513594462376,-2.9574376039933554
3.460348098106426,-1.9574376039933554
3.4623448367666145,-12.957437603993355
3.4643415754268028,-9.957437603993355
3.466338314086991,15.042562396006645
3.4683350527471792,-2.9574376039933554
3.470331791407368,-3.9574376039933554
3.472328530067556,19.042562396006645
3.4743252687277444,1.0425623960066446
3.476322007387933,-7.957437603993355
3.4783187460481213,9.042562396006645
3.4803154847083095,-3.9574376039933554
3.4823122233684978,3.0425623960066446
3.4843089620286865,-10.957437603993355
3.4863057006888747,-7.957437603993355
3.488302439349063,-11.957437603993355
3.4902991780092516,-1.9574376039933554
3.49229591666944,28.042562396006645
3.494292655329628,3.0425623960066446
3.4962893939898163,2.0425623960066446
3.498286132650005,-1.9574376039933554
3.5002828713101932,5.042562396006645
3.5022796099703815,-6.957437603993355
3.5042763486305697,-4.957437603993355
3.5062730872907584,-3.9574376039933554
3.5082698259509466,-2.9574376039933554
3.510266564611135,-3.9574376039933554
3.5122633032713235,-1.9574376039933554
3.5142600419315118,4.042562396006645
3.5162567805917,7.042562396006645
3.5182535192518882,-1.9574376039933554
3.520250257912077,-3.9574376039933554
3.522246996572265,2.0425623960066446
3.5242437352324534,-3.9574376039933554
3.526240473892642,-3.9574376039933554
3.5282372125528303,-8.957437603993355
3.5302339512130185,-1.9574376039933554
3.5322306898732068,17.042562396006645
3.5342274285333954,2.0425623960066446
3.5362241671935837,4.042562396006645
3.538220905853772,-2.9574376039933554
3.54021764451396,-1.9574376039933554
3.542214383174149,-1.9574376039933554
3.544211121834337,-2.9574376039933554
3.5462078604945253,-1.9574376039933554
3.548204599154714,-3.9574376039933554
3.550201337814902,0.042562396006644576
3.5521980764750904,2.0425623960066446
3.5541948151352787,-2.9574376039933554
3.5561915537954674,0.042562396006644576
3.5581882924556556,12.042562396006645
3.560185031115844,1.0425623960066446
3.5621817697760325,-2.9574376039933554
3.5641785084362207,0.042562396006644576
3.566175247096409,-1.9574376039933554
3.568171985756597,-2.9574376039933554
3.570168724416786,-2.9574376039933554
3.572165463076974,-4.957437603993355
3.5741622017371624,1.0425623960066446
3.5761589403973506,17.042562396006645
3.5781556790575393,1.0425623960066446
3.5801524177177275,-2.9574376039933554
3.5821491563779158,0.042562396006644576
3.5841458950381044,-1.9574376039933554
3.5861426336982927,-3.9574376039933554
3.588139372358481,-4.957437603993355
3.590136111018669,0.042562396006644576
3.592132849678858,2.0425623960066446
3.594129588339046,6.042562396006645
3.5961263269992343,3.0425623960066446
3.598123065659423,-1.9574376039933554
3.600119804319611,-3.9574376039933554
3.6021165429797994,-2.9574376039933554
3.6041132816399877,1.0425623960066446
3.6061100203001764,4.042562396006645
3.6081067589603646,-1.9574376039933554
3.610103497620553,-4.957437603993355
3.612100236280741,3.0425623960066446
3.6140969749409297,5.042562396006645
3.616093713601118,-1.9574376039933554
3.618090452261306,1.0425623960066446
3.620087190921495,4.042562396006645
3.622083929581683,1.0425623960066446
3.6240806682418714,-2.9574376039933554
3.6260774069020596,-7.957437603993355
3.6280741455622483,-14.957437603993355
3.6300708842224365,2.0425623960066446
3.6320676228826247,22.042562396006645
3.6340643615428134,10.042562396006645
3.6360611002030017,0.042562396006644576
3.63805783886319,-6.957437603993355
3.640054577523378,-8.957437603993355
3.642051316183567,-5.957437603993355
3.644048054843755,2.0425623960066446
3.6460447935039433,1.0425623960066446
3.6480415321641315,0.042562396006644576
3.65003827082432,-3.9574376039933554
3.6520350094845084,-0.9574376039933554
3.6540317481446967,6.042562396006645
3.6560284868048853,-3.9574376039933554
3.6580252254650736,0.042562396006644576
3.660021964125262,5.042562396006645
3.66201870278545,5.042562396006645
3.6640154414456387,6.042562396006645
3.666012180105827,-13.957437603993355
3.668008918766015,-1.9574376039933554
3.670005657426204,8.042562396006645
3.672002396086392,16.042562396006645
3.6739991347465804,-2.9574376039933554
3.6759958734067686,-1.9574376039933554
3.6779926120669573,-3.9574376039933554
3.6799893507271455,-4.957437603993355
3.6819860893873337,-5.957437603993355
3.6839828280475224,2.0425623960066446
3.6859795667077107,9.042562396006645
3.687976305367899,-3.9574376039933554
3.689973044028087,-3.9574376039933554
3.691969782688276,0.042562396006644576
3.693966521348464,-4.957437603993355
3.6959632600086523,0.042562396006644576
3.6979599986688405,-1.9574376039933554
3.699956737329029,4.042562396006645
3.7019534759892174,-2.9574376039933554
3.7039502146494057,29.042562396006645
3.7059469533095943,2.0425623960066446
3.7079436919697826,-10.957437603993355
3.709940430629971,-13.957437603993355
3.711937169290159,12.042562396006645
3.7139339079503477,2.0425623960066446
3.715930646610536,-2.9574376039933554
3.717927385270724,-2.9574376039933554
3.719924123930913,-1.9574376039933554
3.721920862591101,0.042562396006644576
3.7239176012512893,2.0425623960066446
3.7259143399114776,3.0425623960066446
3.7279110785716663,0.042562396006644576
3.7299078172318545,-5.957437603993355
3.7319045558920427,0.042562396006644576
3.733901294552231,5.042562396006645
3.7358980332124196,6.042562396006645
3.737894771872608,3.0425623960066446
3.739891510532796,-2.9574376039933554
3.741888249192985,-2.9574376039933554
3.743884987853173,-1.9574376039933554
3.7458817265133613,-2.9574376039933554
3.7478784651735495,-4.957437603993355
3.749875203833738,-4.957437603993355
3.7518719424939264,4.042562396006645
3.7538686811541147,2.0425623960066446
3.7558654198143033,9.042562396006645
3.7578621584744916,3.0425623960066446
3.75985889713468,-0.9574376039933554
3.761855635794868,-3.9574376039933554
3.7638523744550567,-0.9574376039933554
3.765849113115245,1.0425623960066446
3.767845851775433,-3.9574376039933554
3.7698425904356214,0.042562396006644576
3.77183932909581,0.042562396006644576
3.7738360677559983,4.042562396006645
3.7758328064161866,4.042562396006645
3.7778295450763753,-4.957437603993355
3.7798262837365635,-7.957437603993355
3.7818230223967517,2.0425623960066446
3.78381976105694,-3.9574376039933554
3.7858164997171286,12.042562396006645
3.787813238377317,-9.957437603993355
3.789809977037505,3.0425623960066446
3.791806715697694,-1.9574376039933554
3.793803454357882,11.042562396006645
3.7958001930180703,8.042562396006645
3.7977969316782585,3.0425623960066446
3.799793670338447,-10.957437603993355
3.8017904089986354,6.042562396006645
3.8037871476588236,-4.957437603993355
3.805783886319012,-7.957437603993355
3.8077806249792006,3.0425623960066446
3.809777363639389,5.042562396006645
3.811774102299577,-6.957437603993355
3.8137708409597657,-9.957437603993355
3.815767579619954,8.042562396006645
3.817764318280142,6.042562396006645
3.8197610569403304,1.0425623960066446
3.821757795600519,5.042562396006645
3.8237545342607073,-3.9574376039933554
3.8257512729208956,-6.957437603993355
3.8277480115810842,-7.957437603993355
3.8297447502412725,-0.9574376039933554
3.8317414889014607,0.042562396006644576
3.833738227561649,-7.957437603993355
3.8357349662218376,-3.9574376039933554
3.837731704882026,20.042562396006645
3.839728443542214,9.042562396006645
3.8417251822024023,-13.957437603993355
3.843721920862591,-10.957437603993355
3.8457186595227792,3.0425623960066446
3.8477153981829675,19.042562396006645
3.849712136843156,-0.9574376039933554
3.8517088755033444,-3.9574376039933554
3.8537056141635326,-1.9574376039933554
3.855702352823721,-3.9574376039933554
3.8576990914839095,1.0425623960066446
3.859695830144098,-0.9574376039933554
3.861692568804286,1.0425623960066446
3.8636893074644747,-3.9574376039933554
3.865686046124663,-2.9574376039933554
3.867682784784851,-2.9574376039933554
3.8696795234450394,0.042562396006644576
3.871676262105228,4.042562396006645
3.8736730007654163,1.0425623960066446
3.8756697394256046,-0.9574376039933554
3.877666478085793,-0.9574376039933554
3.8796632167459815,-2.9574376039933554
3.8816599554061697,0.042562396006644576
3.883656694066358,-2.9574376039933554
3.8856534327265466,0.042562396006644576
3.887650171386735,-2.9574376039933554
3.889646910046923,-1.9574376039933554
3.8916436487071113,5.042562396006645
3.8936403873673,1.0425623960066446
3.8956371260274882,3.0425623960066446
3.8976338646876765,-2.9574376039933554
3.899630603347865,1.0425623960066446
3.9016273420080534,2.0425623960066446
3.9036240806682416,-2.9574376039933554
3.90562081932843,-1.9574376039933554
3.9076175579886185,-6.957437603993355
3.9096142966488068,-2.9574376039933554
3.911611035308995,10.042562396006645
3.9136077739691837,-0.9574376039933554
3.915604512629372,2.0425623960066446
3.91760125128956,2.0425623960066446
3.9195979899497484,2.0425623960066446
3.921594728609937,-2.9574376039933554
3.9235914672701253,1.0425623960066446
3.9255882059303135,4.042562396006645
3.927584944590502,-7.957437603993355
3.9295816832506905,5.042562396006645
3.9315784219108787,-1.9574376039933554
3.933575160571067,7.042562396006645
3.9355718992312556,2.0425623960066446
3.937568637891444,5.042562396006645
3.939565376551632,4.042562396006645
3.9415621152118203,-6.957437603993355
3.943558853872009,-6.957437603993355
3.9455555925321972,-4.957437603993355
3.9475523311923855,5.042562396006645
3.949549069852574,-2.9574376039933554
3.9515458085127624,1.0425623960066446
3.9535425471729506,0.042562396006644576
3.955539285833139,4.042562396006645
3.9575360244933275,0.042562396006644576
3.9595327631535158,-6.957437603993355
3.961529501813704,-7.957437603993355
3.9635262404738922,10.042562396006645
3.965522979134081,-2.9574376039933554
3.967519717794269,-7.957437603993355
3.9695164564544574,3.0425623960066446
3.971513195114646,4.042562396006645
3.9735099337748343,9.042562396006645
3.9755066724350225,0.042562396006644576
3.9775034110952108,-2.9574376039933554
3.9795001497553995,-3.9574376039933554
3.9814968884155877,8.042562396006645
3.983493627075776,-6.957437603993355
3.9854903657359646,-2.9574376039933554
3.987487104396153,1.0425623960066446
3.989483843056341,0.042562396006644576
3.9914805817165293,6.042562396006645
3.993477320376718,-0.9574376039933554
3.9954740590369062,8.042562396006645
3.9974707976970945,-5.957437603993355
3.9994675363572827,-9.957437603993355
4.001464275017471,8.042562396006645
4.00346101367766,0.042562396006644576
4.005457752337848,-9.957437603993355
4.007454490998036,-15.957437603993355
4.009451229658224,33.042562396006645
4.011447968318413,6.042562396006645
4.013444706978602,7.042562396006645
4.01544144563879,-3.9574376039933554
4.017438184298978,-7.957437603993355
4.019434922959166,-10.957437603993355
4.021431661619355,5.042562396006645
4.023428400279543,-4.957437603993355
4.025425138939732,4.042562396006645
4.02742187759992,3.0425623960066446
4.029418616260108,-2.9574376039933554
4.031415354920297,-0.9574376039933554
4.033412093580485,3.0425623960066446
4.035408832240673,2.0425623960066446
4.037405570900861,-1.9574376039933554
4.0394023095610505,-3.9574376039933554
4.041399048221239,3.0425623960066446
4.043395786881427,0.042562396006644576
4.045392525541615,-2.9574376039933554
4.0473892642018034,-7.957437603993355
4.049386002861992,6.042562396006645
4.05138274152218,5.042562396006645
4.053379480182368,5.042562396006645
4.055376218842557,4.042562396006645
4.0573729575027455,-1.9574376039933554
4.059369696162934,-1.9574376039933554
4.061366434823122,-3.9574376039933554
4.06336317348331,-2.9574376039933554
4.0653599121434985,-0.9574376039933554
4.067356650803687,-3.9574376039933554
4.069353389463876,2.0425623960066446
4.071350128124064,7.042562396006645
4.073346866784252,2.0425623960066446
4.0753436054444405,3.0425623960066446
4.077340344104629,-7.957437603993355
4.079337082764817,-4.957437603993355
4.081333821425005,11.042562396006645
4.083330560085194,3.0425623960066446
4.085327298745383,-2.9574376039933554
4.087324037405571,-9.957437603993355
4.089320776065759,10.042562396006645
4.091317514725947,1.0425623960066446
4.0933142533861355,-1.9574376039933554
4.095310992046324,0.042562396006644576
4.097307730706513,3.0425623960066446
4.099304469366701,0.042562396006644576
4.101301208026889,1.0425623960066446
4.103297946687078,-1.9574376039933554
4.105294685347266,-1.9574376039933554
4.107291424007454,-7.957437603993355
4.109288162667642,-10.957437603993355
4.111284901327831,7.042562396006645
4.11328163998802,-3.9574376039933554
4.115278378648208,22.042562396006645
4.117275117308396,11.042562396006645
4.119271855968584,-2.9574376039933554
4.121268594628773,-6.957437603993355
4.123265333288961,-1.9574376039933554
4.12526207194915,-3.9574376039933554
4.127258810609338,-5.957437603993355
4.129255549269526,-3.9574376039933554
4.131252287929715,-5.957437603993355
4.133249026589903,1.0425623960066446
4.135245765250091,11.042562396006645
4.137242503910279,4.042562396006645
4.139239242570468,-5.957437603993355
4.141235981230657,9.042562396006645
4.143232719890845,8.042562396006645
4.145229458551033,-10.957437603993355
4.147226197211221,-18.957437603993355
4.14922293587141,-11.957437603993355
4.151219674531598,39.042562396006645
4.153216413191786,10.042562396006645
4.155213151851975,-1.9574376039933554
4.1572098905121635,-9.957437603993355
4.159206629172352,-7.957437603993355
4.16120336783254,-8.957437603993355
4.163200106492728,-3.9574376039933554
4.165196845152916,-6.957437603993355
4.167193583813105,19.042562396006645
4.169190322473294,-7.957437603993355
4.171187061133482,-0.9574376039933554
4.17318379979367,11.042562396006645
4.1751805384538585,-1.9574376039933554
4.177177277114047,-6.957437603993355
4.179174015774235,4.042562396006645
4.181170754434423,6.042562396006645
4.183167493094612,-7.957437603993355
4.185164231754801,10.042562396006645
4.187160970414989,-3.9574376039933554
4.189157709075177,-6.957437603993355
4.191154447735365,4.042562396006645
4.1931511863955535,4.042562396006645
4.195147925055742,1.0425623960066446
4.197144663715931,4.042562396006645
4.199141402376119,-4.957437603993355
4.201138141036307,-2.9574376039933554
4.203134879696496,-1.9574376039933554
4.205131618356684,2.0425623960066446
4.207128357016872,-8.957437603993355
4.20912509567706,7.042562396006645
4.2111218343372485,8.042562396006645
4.213118572997438,-2.9574376039933554
4.215115311657626,5.042562396006645
4.217112050317814,4.042562396006645
4.219108788978002,0.042562396006644576
4.221105527638191,-5.957437603993355
4.223102266298379,-8.957437603993355
4.225099004958567,3.0425623960066446
4.227095743618756,0.042562396006644576
4.229092482278944,-1.9574376039933554
4.231089220939133,5.042562396006645
4.233085959599321,5.042562396006645
4.235082698259509,0.042562396006644576
4.237079436919697,-5.957437603993355
4.239076175579886,-2.9574376039933554
4.241072914240075,4.042562396006645
4.243069652900263,-3.9574376039933554
4.245066391560451,-3.9574376039933554
4.247063130220639,-6.957437603993355
4.249059868880828,5.042562396006645
4.251056607541016,-3.9574376039933554
4.253053346201204,4.042562396006645
4.255050084861393,4.042562396006645
4.2570468235215815,3.0425623960066446
4.25904356218177,-3.9574376039933554
4.261040300841958,-4.957437603993355
4.263037039502146,1.0425623960066446
4.265033778162334,-1.9574376039933554
4.267030516822523,4.042562396006645
4.269027255482712,-6.957437603993355
4.2710239941429,1.0425623960066446
4.273020732803088,1.0425623960066446
4.2750174714632765,6.042562396006645
4.277014210123465,-2.9574376039933554
4.279010948783653,0.042562396006644576
4.281007687443841,-11.957437603993355
4.283004426104029,-14.957437603993355
4.2850011647642186,13.042562396006645
4.286997903424407,3.0425623960066446
4.288994642084595,15.042562396006645
4.290991380744783,-1.9574376039933554
4.2929881194049715,-4.957437603993355
4.29498485806516,-2.9574376039933554
4.296981596725348,1.0425623960066446
4.298978335385537,-4.957437603993355
4.300975074045725,-3.9574376039933554
4.302971812705914,-2.9574376039933554
4.304968551366102,-7.957437603993355
4.30696529002629,6.042562396006645
4.308962028686478,15.042562396006645
4.3109587673466665,1.0425623960066446
4.312955506006856,-2.9574376039933554
4.314952244667044,-4.957437603993355
4.316948983327232,1.0425623960066446
4.31894572198742,12.042562396006645
4.320942460647609,-8.957437603993355
4.322939199307797,-1.9574376039933554
4.324935937967985,-5.957437603993355
4.326932676628174,-4.957437603993355
4.328929415288362,6.042562396006645
4.330926153948551,11.042562396006645
4.332922892608739,3.0425623960066446
4.334919631268927,-1.9574376039933554
4.336916369929115,-2.9574376039933554
4.338913108589304,-1.9574376039933554
4.340909847249493,-6.957437603993355
4.342906585909681,-2.9574376039933554
4.344903324569869,1.0425623960066446
4.346900063230057,3.0425623960066446
4.348896801890246,-8.957437603993355
4.350893540550434,4.042562396006645
4.352890279210622,3.0425623960066446
4.354887017870811,17.042562396006645
4.3568837565309995,-8.957437603993355
4.358880495191188,-10.957437603993355
4.360877233851376,11.042562396006645
4.362873972511564,-5.957437603993355
4.364870711171752,-2.9574376039933554
4.366867449831941,1.0425623960066446
4.368864188492129,-3.9574376039933554
4.370860927152318,3.0425623960066446
4.372857665812506,5.042562396006645
4.3748544044726945,2.0425623960066446
4.376851143132883,-2.9574376039933554
4.378847881793071,0.042562396006644576
4.380844620453259,1.0425623960066446
4.382841359113447,-1.9574376039933554
4.3848380977736365,-0.9574376039933554
4.386834836433825,0.042562396006644576
4.388831575094013,-9.957437603993355
4.390828313754201,-2.9574376039933554
4.3928250524143895,5.042562396006645
4.394821791074578,17.042562396006645
4.396818529734766,5.042562396006645
4.398815268394955,-2.9574376039933554
4.400812007055143,-4.957437603993355
4.4028087457153315,-2.9574376039933554
4.40480548437552,-2.9574376039933554
4.406802223035708,-9.957437603993355
4.408798961695896,-0.9574376039933554
4.4107957003560845,3.0425623960066446
4.412792439016274,9.042562396006645
4.414789177676462,1.0425623960066446
4.41678591633665,0.042562396006644576
4.418782654996838,5.042562396006645
4.4207793936570265,1.0425623960066446
4.422776132317215,-8.957437603993355
4.424772870977403,1.0425623960066446
4.426769609637592,-6.957437603993355
4.42876634829778,-10.957437603993355
4.430763086957969,-0.9574376039933554
4.432759825618157,20.042562396006645
4.434756564278345,14.042562396006645
4.436753302938533,-3.9574376039933554
4.4387500415987216,-12.957437603993355
4.44074678025891,-7.957437603993355
4.442743518919099,5.042562396006645
4.444740257579287,1.0425623960066446
4.446736996239475,-9.957437603993355
4.448733734899664,2.0425623960066446
4.450730473559852,6.042562396006645
4.45272721222004,-0.9574376039933554
4.454723950880228,0.042562396006644576
4.4567206895404174,2.0425623960066446
4.458717428200606,-2.9574376039933554
4.460714166860794,-11.957437603993355
4.462710905520982,13.042562396006645
4.46470764418117,-6.957437603993355
4.466704382841359,-3.9574376039933554
4.468701121501547,7.042562396006645
4.470697860161736,-5.957437603993355
4.472694598821924,18.042562396006645
4.4746913374821125,11.042562396006645
4.476688076142301,-6.957437603993355
4.478684814802489,-2.9574376039933554
4.480681553462677,0.042562396006644576
4.482678292122865,-1.9574376039933554
4.4846750307830545,-0.9574376039933554
4.486671769443243,-8.957437603993355
4.488668508103431,-12.957437603993355
4.490665246763619,22.042562396006645
4.4926619854238075,-4.957437603993355
4.494658724083996,1.0425623960066446
4.496655462744184,0.042562396006644576
4.498652201404373,9.042562396006645
4.500648940064561,5.042562396006645
4.5026456787247495,-6.957437603993355
4.504642417384938,9.042562396006645
4.506639156045126,-7.957437603993355
4.508635894705314,-10.957437603993355
4.5106326333655025,-4.957437603993355
4.512629372025692,12.042562396006645
4.51462611068588,9.042562396006645
4.516622849346068,-3.9574376039933554
4.518619588006256,-4.957437603993355
4.5206163266664445,-4.957437603993355
4.522613065326633,-2.9574376039933554
4.524609803986821,3.0425623960066446
4.526606542647009,1.0425623960066446
4.528603281307198,-4.957437603993355
4.530600019967387,4.042562396006645
4.532596758627575,2.0425623960066446
4.534593497287763,2.0425623960066446
4.536590235947951,-1.9574376039933554
4.5385869746081395,-4.957437603993355
4.540583713268328,2.0425623960066446
4.542580451928517,1.0425623960066446
4.544577190588705,-4.957437603993355
4.546573929248893,0.042562396006644576
4.548570667909082,1.0425623960066446
4.55056740656927,3.0425623960066446
4.552564145229458,5.042562396006645
4.554560883889646,3.0425623960066446
4.556557622549835,0.042562396006644576
4.558554361210024,-7.957437603993355
4.560551099870212,1.0425623960066446
4.5625478385304,-4.957437603993355
4.564544577190588,-6.957437603993355
4.566541315850777,2.0425623960066446
4.568538054510965,3.0425623960066446
4.570534793171154,4.042562396006645
4.572531531831342,8.042562396006645
4.57452827049153,2.0425623960066446
4.576525009151719,-1.9574376039933554
4.578521747811907,-10.957437603993355
4.580518486472095,3.0425623960066446
4.582515225132283,-2.9574376039933554
4.5845119637924725,3.0425623960066446
4.586508702452661,-6.957437603993355
4.588505441112849,6.042562396006645
4.590502179773037,4.042562396006645
4.592498918433225,2.0425623960066446
4.594495657093414,6.042562396006645
4.596492395753602,-4.957437603993355
4.59848913441379,-1.9574376039933554
4.600485873073979,-3.9574376039933554
4.6024826117341675,-1.9574376039933554
4.604479350394356,8.042562396006645
4.606476089054544,2.0425623960066446
4.608472827714732,-6.957437603993355
4.6104695663749204,-3.9574376039933554
4.612466305035109,3.0425623960066446
4.614463043695298,0.042562396006644576
4.616459782355486,1.0425623960066446
4.618456521015674,-3.9574376039933554
4.6204532596758625,0.042562396006644576
4.622449998336051,2.0425623960066446
4.624446736996239,-2.9574376039933554
4.626443475656427,-6.957437603993355
4.628440214316616,-6.957437603993355
4.630436952976805,22.042562396006645
4.632433691636993,9.042562396006645
4.634430430297181,-1.9574376039933554
4.636427168957369,-14.957437603993355
4.6384239076175575,-11.957437603993355
4.640420646277746,0.042562396006644576
4.642417384937935,11.042562396006645
4.644414123598123,13.042562396006645
4.646410862258311,-9.957437603993355
4.6484076009185,-5.957437603993355
4.650404339578688,1.0425623960066446
4.652401078238876,4.042562396006645
4.654397816899064,4.042562396006645
4.656394555559253,-9.957437603993355
4.658391294219442,8.042562396006645
4.66038803287963,-2.9574376039933554
4.662384771539818,-14.957437603993355
4.664381510200006,7.042562396006645
4.666378248860195,11.042562396006645
4.668374987520383,12.042562396006645
4.670371726180571,-8.957437603993355
4.67236846484076,8.042562396006645
4.674365203500948,0.042562396006644576
4.676361942161137,-3.9574376039933554
4.678358680821325,-1.9574376039933554
4.680355419481513,0.042562396006644576
4.682352158141701,-2.9574376039933554
4.68434889680189,2.0425623960066446
4.686345635462079,-3.9574376039933554
4.688342374122267,-2.9574376039933554
4.690339112782455,4.042562396006645
4.692335851442643,8.042562396006645
4.694332590102832,-2.9574376039933554
4.69632932876302,-4.957437603993355
4.698326067423208,-2.9574376039933554
4.700322806083397,6.042562396006645
4.7023195447435855,-2.9574376039933554
4.704316283403774,-10.957437603993355
4.706313022063962,-1.9574376039933554
4.70830976072415,7.042562396006645
4.710306499384338,1.0425623960066446
4.712303238044527,3.0425623960066446
4.714299976704716,15.042562396006645
4.716296715364904,-3.9574376039933554
4.718293454025092,-5.957437603993355
4.7202901926852805,-3.9574376039933554
4.722286931345469,-5.957437603993355
4.724283670005657,1.0425623960066446
4.726280408665845,-6.957437603993355
4.728277147326034,5.042562396006645
4.730273885986223,-1.9574376039933554
4.732270624646411,-2.9574376039933554
4.734267363306599,2.0425623960066446
4.736264101966787,9.042562396006645
4.7382608406269755,-3.9574376039933554
4.740257579287164,-8.957437603993355
4.742254317947353,8.042562396006645
4.744251056607541,0.042562396006644576
4.746247795267729,-4.957437603993355
4.748244533927918,-0.9574376039933554
4.750241272588106,2.0425623960066446
4.752238011248294,1.0425623960066446
4.754234749908482,3.0425623960066446
4.7562314885686705,0.042562396006644576
4.75822822722886,-7.957437603993355
4.760224965889048,-0.9574376039933554
4.762221704549236,0.042562396006644576
4.764218443209424,0.042562396006644576
4.766215181869613,-0.9574376039933554
4.768211920529801,-2.9574376039933554
4.770208659189989,5.042562396006645
4.772205397850178,0.042562396006644576
4.774202136510366,-1.9574376039933554
4.776198875170555,-6.957437603993355
4.778195613830743,-11.957437603993355
4.780192352490931,0.042562396006644576
4.782189091151119,20.042562396006645
4.784185829811308,10.042562396006645
4.786182568471497,-4.957437603993355
4.788179307131685,1.0425623960066446
4.790176045791873,-3.9574376039933554
4.792172784452061,8.042562396006645
4.79416952311225,-5.957437603993355
4.796166261772438,-0.9574376039933554
4.798163000432626,-2.9574376039933554
4.800159739092815,-1.9574376039933554
4.8021564777530035,9.042562396006645
4.804153216413192,3.0425623960066446
4.80614995507338,-18.957437603993355
4.808146693733568,4.042562396006645
4.810143432393756,14.042562396006645
4.812140171053945,-2.9574376039933554
4.814136909714134,0.042562396006644576
4.816133648374322,-2.9574376039933554
4.81813038703451,-8.957437603993355
4.8201271256946985,-13.957437603993355
4.822123864354887,5.042562396006645
4.824120603015075,-2.9574376039933554
4.826117341675263,5.042562396006645
4.828114080335451,10.042562396006645
4.8301108189956405,9.042562396006645
4.832107557655829,-4.957437603993355
4.834104296316017,6.042562396006645
4.836101034976205,-3.9574376039933554
4.8380977736363935,-1.9574376039933554
4.840094512296582,-2.9574376039933554
4.84209125095677,0.042562396006644576
4.844087989616959,-8.957437603993355
4.846084728277147,-8.957437603993355
4.8480814669373355,3.0425623960066446
4.850078205597524,17.042562396006645
4.852074944257712,-6.957437603993355
4.8540716829179,1.0425623960066446
4.8560684215780885,7.042562396006645
4.858065160238278,0.042562396006644576
4.860061898898466,-1.9574376039933554
4.862058637558654,9.042562396006645
4.864055376218842,-4.957437603993355
4.8660521148790306,-6.957437603993355
4.868048853539219,-1.9574376039933554
4.870045592199407,3.0425623960066446
4.872042330859596,1.0425623960066446
4.874039069519784,1.0425623960066446
4.876035808179973,-0.9574376039933554
4.878032546840161,-2.9574376039933554
4.880029285500349,1.0425623960066446
4.882026024160537,1.0425623960066446
4.884022762820726,-2.9574376039933554
4.886019501480915,-1.9574376039933554
4.888016240141103,0.042562396006644576
4.890012978801291,8.042562396006645
4.892009717461479,1.0425623960066446
4.894006456121668,1.0425623960066446
4.896003194781856,-1.9574376039933554
4.897999933442044,-3.9574376039933554
4.899996672102232,-1.9574376039933554
4.9019934107624215,-5.957437603993355
4.90399014942261,-1.9574376039933554
4.905986888082798,-3.9574376039933554
4.907983626742986,-2.9574376039933554
4.909980365403174,7.042562396006645
4.911977104063363,11.042562396006645
4.913973842723551,-3.9574376039933554
4.91597058138374,-2.9574376039933554
4.917967320043928,-0.9574376039933554
4.9199640587041165,-10.957437603993355
4.921960797364305,11.042562396006645
4.923957536024493,4.042562396006645
4.925954274684681,-9.957437603993355
4.927951013344869,-0.9574376039933554
4.9299477520050585,11.042562396006645
4.931944490665247,-0.9574376039933554
4.933941229325435,-4.957437603993355
4.935937967985623,3.0425623960066446
4.9379347066458115,-1.9574376039933554
4.939931445306,-1.9574376039933554
4.941928183966188,-7.957437603993355
4.943924922626377,-13.957437603993355
4.945921661286565,-2.9574376039933554
4.9479183999467535,20.042562396006645
4.949915138606942,13.042562396006645
4.95191187726713,-0.9574376039933554
4.953908615927318,-1.9574376039933554
4.9559053545875065,-5.957437603993355
4.957902093247696,0.042562396006644576
4.959898831907884,4.042562396006645
4.961895570568072,-2.9574376039933554
4.96389230922826,-0.9574376039933554
4.9658890478884485,-5.957437603993355
4.967885786548637,1.0425623960066446
4.969882525208825,1.0425623960066446
4.971879263869014,0.042562396006644576
4.973876002529202,9.042562396006645
4.975872741189391,-0.9574376039933554
4.977869479849579,-0.9574376039933554
4.979866218509767,-2.9574376039933554
4.981862957169955,-2.9574376039933554
4.9838596958301435,0.042562396006644576
4.985856434490332,-1.9574376039933554
4.987853173150521,-2.9574376039933554
4.989849911810709,3.0425623960066446
4.991846650470897,5.042562396006645
4.993843389131086,4.042562396006645
4.995840127791274,0.042562396006644576
4.997836866451462,-4.957437603993355
4.99983360511165,-2.9574376039933554
5.001830343771839,3.0425623960066446
5.003827082432028,-4.957437603993355
5.005823821092216,-9.957437603993355
5.007820559752404,11.042562396006645
5.009817298412592,14.042562396006645
5.011814037072781,-0.9574376039933554
5.013810775732969,-0.9574376039933554
5.015807514393158,-3.9574376039933554
5.017804253053346,-10.957437603993355
5.019800991713534,8.042562396006645
5.021797730373723,3.0425623960066446
5.023794469033911,-4.957437603993355
5.025791207694099,-5.957437603993355
5.027787946354287,12.042562396006645
5.0297846850144765,3.0425623960066446
5.031781423674665,-2.9574376039933554
5.033778162334853,-4.957437603993355
5.035774900995041,4.042562396006645
5.0377716396552294,1.0425623960066446
5.039768378315418,-4.957437603993355
5.041765116975606,-6.957437603993355
5.043761855635795,2.0425623960066446
5.045758594295983,2.0425623960066446
5.0477553329561715,-3.9574376039933554
5.04975207161636,4.042562396006645
5.051748810276548,3.0425623960066446
5.053745548936736,4.042562396006645
5.0557422875969245,-0.9574376039933554
5.057739026257113,-6.957437603993355
5.059735764917302,-7.957437603993355
5.06173250357749,-3.9574376039933554
5.063729242237678,8.042562396006645
5.0657259808978665,6.042562396006645
5.067722719558055,-7.957437603993355
5.069719458218243,-0.9574376039933554
5.071716196878431,5.042562396006645
5.07371293553862,-4.957437603993355
5.075709674198809,4.042562396006645
5.077706412858997,10.042562396006645
5.079703151519185,2.0425623960066446
5.081699890179373,-1.9574376039933554
5.0836966288395615,-3.9574376039933554
5.08569336749975,-6.957437603993355
5.087690106159939,-6.957437603993355
5.089686844820127,4.042562396006645
5.091683583480315,4.042562396006645
5.093680322140504,2.0425623960066446
5.095677060800692,1.0425623960066446
5.09767379946088,0.042562396006644576
5.099670538121068,-4.957437603993355
5.101667276781257,-2.9574376039933554
5.103664015441446,-1.9574376039933554
5.105660754101634,-4.957437603993355
5.107657492761822,7.042562396006645
5.10965423142201,2.0425623960066446
5.111650970082199,5.042562396006645
5.113647708742387,8.042562396006645
5.115644447402576,0.042562396006644576
5.117641186062764,-9.957437603993355
5.119637924722952,-13.957437603993355
5.121634663383141,12.042562396006645
5.123631402043329,2.0425623960066446
5.125628140703517,22.042562396006645
5.127624879363705,3.0425623960066446
5.1296216180238945,-6.957437603993355
5.131618356684083,1.0425623960066446
5.133615095344271,-3.9574376039933554
5.135611834004459,-3.9574376039933554
5.137608572664647,-2.9574376039933554
5.139605311324836,4.042562396006645
5.141602049985024,2.0425623960066446
5.143598788645212,-7.957437603993355
5.145595527305401,-7.957437603993355
5.1475922659655895,-4.957437603993355
5.149589004625778,6.042562396006645
5.151585743285966,6.042562396006645
5.153582481946154,9.042562396006645
5.155579220606342,-6.957437603993355
5.157575959266531,-0.9574376039933554
5.15957269792672,-0.9574376039933554
5.161569436586908,-2.9574376039933554
5.163566175247096,4.042562396006645
5.1655629139072845,0.042562396006644576
5.167559652567473,-2.9574376039933554
5.169556391227661,0.042562396006644576
5.171553129887849,4.042562396006645
5.173549868548038,2.0425623960066446
5.175546607208227,0.042562396006644576
5.177543345868415,-1.9574376039933554
5.179540084528603,-0.9574376039933554
5.181536823188791,-1.9574376039933554
5.1835335618489795,3.0425623960066446
5.185530300509168,-1.9574376039933554
5.187527039169357,-3.9574376039933554
5.189523777829545,3.0425623960066446
5.191520516489733,5.042562396006645
5.193517255149922,1.0425623960066446
5.19551399381011,4.042562396006645
5.197510732470298,-4.957437603993355
5.199507471130486,-2.9574376039933554
5.201504209790675,0.042562396006644576
5.203500948450864,4.042562396006645
5.205497687111052,0.042562396006644576
5.20749442577124,-2.9574376039933554
5.209491164431428,0.042562396006644576
5.211487903091617,2.0425623960066446
5.213484641751805,1.0425623960066446
5.215481380411993,1.0425623960066446
5.217478119072182,-1.9574376039933554
5.21947485773237,-2.9574376039933554
5.221471596392559,-4.957437603993355
5.223468335052747,8.042562396006645
5.225465073712935,-1.9574376039933554
5.227461812373123,-9.957437603993355
5.229458551033312,9.042562396006645
5.231455289693501,28.042562396006645
5.233452028353689,-0.9574376039933554
5.235448767013877,-17.957437603993355
5.237445505674065,-11.957437603993355
5.239442244334254,4.042562396006645
5.241438982994442,3.0425623960066446
5.24343572165463,-10.957437603993355
5.245432460314819,-7.957437603993355
5.2474291989750075,2.0425623960066446
5.249425937635196,11.042562396006645
5.251422676295384,0.042562396006644576
5.253419414955572,5.042562396006645
5.25541615361576,4.042562396006645
5.257412892275949,1.0425623960066446
5.259409630936138,-1.9574376039933554
5.261406369596326,-8.957437603993355
5.263403108256514,4.042562396006645
5.2653998469167025,3.0425623960066446
5.267396585576891,-2.9574376039933554
5.269393324237079,2.0425623960066446
5.271390062897267,5.042562396006645
5.273386801557456,1.0425623960066446
5.2753835402176446,-2.9574376039933554
5.277380278877833,0.042562396006644576
5.279377017538021,1.0425623960066446
5.281373756198209,-6.957437603993355
5.2833704948583975,-4.957437603993355
5.285367233518586,-2.9574376039933554
5.287363972178774,1.0425623960066446
5.289360710838963,-2.9574376039933554
5.291357449499151,17.042562396006645
5.29335418815934,5.042562396006645
5.295350926819528,-6.957437603993355
5.297347665479716,-3.9574376039933554
5.299344404139904,9.042562396006645
5.3013411428000925,-1.9574376039933554
5.303337881460282,-7.957437603993355
5.30533462012047,-10.957437603993355
5.307331358780658,9.042562396006645
5.309328097440846,5.042562396006645
5.311324836101035,1.0425623960066446
5.313321574761223,0.042562396006644576
5.315318313421411,-2.9574376039933554
5.3173150520816,-0.9574376039933554
5.319311790741788,0.042562396006644576
5.321308529401977,-7.957437603993355
5.323305268062165,-3.9574376039933554
5.325302006722353,15.042562396006645
5.327298745382541,-0.9574376039933554
5.32929548404273,2.0425623960066446
5.331292222702919,5.042562396006645
5.333288961363107,3.0425623960066446
5.335285700023295,0.042562396006644576
5.337282438683483,-7.957437603993355
5.339279177343672,-2.9574376039933554
5.34127591600386,-1.9574376039933554
5.343272654664048,0.042562396006644576
5.345269393324237,2.0425623960066446
5.3472661319844255,-7.957437603993355
5.349262870644614,-4.957437603993355
5.351259609304802,9.042562396006645
5.35325634796499,1.0425623960066446
5.355253086625178,0.042562396006644576
5.357249825285367,2.0425623960066446
5.359246563945556,1.0425623960066446
5.361243302605744,-1.9574376039933554
5.363240041265932,-9.957437603993355
5.3652367799261205,-12.957437603993355
5.367233518586309,-7.957437603993355
5.369230257246497,19.042562396006645
5.371226995906685,16.042562396006645
5.373223734566873,13.042562396006645
5.3752204732270625,-1.9574376039933554
5.377217211887251,-7.957437603993355
5.379213950547439,-3.9574376039933554
5.381210689207627,-1.9574376039933554
5.3832074278678155,-1.9574376039933554
5.385204166528004,-2.9574376039933554
5.387200905188192,-1.9574376039933554
5.389197643848381,4.042562396006645
5.391194382508569,2.0425623960066446
5.3931911211687575,-0.9574376039933554
5.395187859828946,-3.9574376039933554
5.397184598489134,3.0425623960066446
5.399181337149322,2.0425623960066446
5.4011780758095105,-4.957437603993355
5.4031748144697,-2.9574376039933554
5.405171553129888,-2.9574376039933554
5.407168291790076,-1.9574376039933554
5.409165030450264,5.042562396006645
5.4111617691104525,7.042562396006645
5.413158507770641,0.042562396006644576
5.415155246430829,-13.957437603993355
5.417151985091018,-1.9574376039933554
5.419148723751206,10.042562396006645
5.421145462411395,-2.9574376039933554
5.423142201071583,3.0425623960066446
5.425138939731771,-0.9574376039933554
5.427135678391959,-4.957437603993355
5.4291324170521476,1.0425623960066446
5.431129155712337,3.0425623960066446
5.433125894372525,3.0425623960066446
5.435122633032713,-1.9574376039933554
5.437119371692901,-2.9574376039933554
5.43911611035309,1.0425623960066446
5.441112849013278,0.042562396006644576
5.443109587673466,1.0425623960066446
5.445106326333654,-5.957437603993355
5.4471030649938434,-6.957437603993355
5.449099803654032,4.042562396006645
5.45109654231422,7.042562396006645
5.453093280974408,2.0425623960066446
5.455090019634596,0.042562396006644576
5.457086758294785,-2.9574376039933554
5.459083496954973,1.0425623960066446
5.461080235615162,3.0425623960066446
5.46307697427535,4.042562396006645
5.4650737129355385,-7.957437603993355
5.467070451595727,-6.957437603993355
5.469067190255915,-2.9574376039933554
5.471063928916103,6.042562396006645
5.473060667576291,7.042562396006645
5.4750574062364805,9.042562396006645
5.477054144896669,-0.9574376039933554
5.479050883556857,-16.957437603993355
5.481047622217045,-15.957437603993355
5.4830443608772335,-0.9574376039933554
5.485041099537422,33.042562396006645
5.48703783819761,7.042562396006645
5.489034576857799,-4.957437603993355
5.491031315517987,1.0425623960066446
5.4930280541781755,9.042562396006645
5.495024792838364,-1.9574376039933554
5.497021531498552,-4.957437603993355
5.49901827015874,-6.957437603993355
5.5010150088189285,-1.9574376039933554
5.503011747479118,4.042562396006645
5.505008486139306,-9.957437603993355
5.507005224799494,-13.957437603993355
5.509001963459682,5.042562396006645
5.5109987021198705,-4.957437603993355
5.512995440780059,15.042562396006645
5.514992179440247,7.042562396006645
5.516988918100435,7.042562396006645
5.518985656760624,2.0425623960066446
5.520982395420813,-1.9574376039933554
5.522979134081001,-5.957437603993355
5.524975872741189,-13.957437603993355
5.526972611401377,-4.957437603993355
5.5289693500615655,3.0425623960066446
5.530966088721754,4.042562396006645
5.532962827381943,14.042562396006645
5.534959566042131,0.042562396006644576
5.536956304702319,5.042562396006645
5.538953043362508,1.0425623960066446
5.540949782022696,-6.957437603993355
5.542946520682884,-6.957437603993355
5.544943259343072,4.042562396006645
5.546939998003261,-3.9574376039933554
5.54893673666345,-0.9574376039933554
5.550933475323638,9.042562396006645
5.552930213983826,5.042562396006645
5.554926952644014,-1.9574376039933554
5.556923691304203,-1.9574376039933554
5.558920429964391,-2.9574376039933554
5.56091716862458,-6.957437603993355
5.562913907284768,3.0425623960066446
5.564910645944956,-1.9574376039933554
5.566907384605145,-1.9574376039933554
5.568904123265333,6.042562396006645
5.570900861925521,1.0425623960066446
5.572897600585709,2.0425623960066446
5.5748943392458985,2.0425623960066446
5.576891077906087,-4.957437603993355
5.578887816566275,-6.957437603993355
5.580884555226463,-0.9574376039933554
5.582881293886651,4.042562396006645
5.58487803254684,0.042562396006644576
5.586874771207028,-2.9574376039933554
5.588871509867217,6.042562396006645
5.590868248527405,2.0425623960066446
5.5928649871875935,5.042562396006645
5.594861725847782,-2.9574376039933554
5.59685846450797,-0.9574376039933554
5.598855203168158,0.042562396006644576
5.6008519418283464,0.042562396006644576
5.602848680488535,-6.957437603993355
5.604845419148724,-14.957437603993355
5.606842157808912,4.042562396006645
5.6088388964691,19.042562396006645
5.6108356351292885,-1.9574376039933554
5.612832373789477,0.042562396006644576
5.614829112449665,8.042562396006645
5.616825851109853,1.0425623960066446
5.618822589770042,3.0425623960066446
5.620819328430231,-5.957437603993355
5.622816067090419,-2.9574376039933554
5.624812805750607,-2.9574376039933554
5.626809544410795,0.042562396006644576
5.6288062830709835,1.0425623960066446
5.630803021731172,5.042562396006645
5.632799760391361,-2.9574376039933554
5.634796499051549,-9.957437603993355
5.636793237711737,7.042562396006645
5.638789976371926,-0.9574376039933554
5.640786715032114,1.0425623960066446
5.642783453692302,-2.9574376039933554
5.64478019235249,-3.9574376039933554
5.646776931012679,-1.9574376039933554
5.648773669672868,19.042562396006645
5.650770408333056,0.042562396006644576
5.652767146993244,0.042562396006644576
5.654763885653432,-4.957437603993355
5.656760624313621,4.042562396006645
5.658757362973809,-11.957437603993355
5.660754101633998,-6.957437603993355
5.662750840294186,8.042562396006645
5.664747578954374,-2.9574376039933554
5.666744317614563,-0.9574376039933554
5.668741056274751,0.042562396006644576
5.670737794934939,5.042562396006645
5.672734533595127,-3.9574376039933554
5.674731272255316,-11.957437603993355
5.676728010915505,-6.957437603993355
5.678724749575693,21.042562396006645
5.680721488235881,3.0425623960066446
5.682718226896069,-6.957437603993355
5.684714965556258,-9.957437603993355
5.686711704216446,-1.9574376039933554
5.688708442876634,0.042562396006644576
5.690705181536823,4.042562396006645
5.6927019201970115,6.042562396006645
5.6946986588572,-8.957437603993355
5.696695397517388,-5.957437603993355
5.698692136177576,-0.9574376039933554
5.700688874837764,20.042562396006645
5.702685613497953,-2.9574376039933554
5.704682352158142,-11.957437603993355
5.70667909081833,-10.957437603993355
5.708675829478518,17.042562396006645
5.7106725681387065,5.042562396006645
5.712669306798895,0.042562396006644576
5.714666045459083,-6.957437603993355
5.716662784119271,-3.9574376039933554
5.71865952277946,1.0425623960066446
5.720656261439649,0.042562396006644576
5.722653000099837,0.042562396006644576
5.724649738760025,-2.9574376039933554
5.726646477420213,-3.9574376039933554
5.7286432160804015,-1.9574376039933554
5.73063995474059,7.042562396006645
5.732636693400779,4.042562396006645
5.734633432060967,-0.9574376039933554
5.736630170721155,-2.9574376039933554
5.738626909381344,-2.9574376039933554
5.740623648041532,-0.9574376039933554
5.74262038670172,11.042562396006645
5.744617125361908,-6.957437603993355
5.746613864022097,-5.957437603993355
5.748610602682286,11.042562396006645
5.750607341342474,5.042562396006645
5.752604080002662,3.0425623960066446
5.75460081866285,-1.9574376039933554
5.756597557323039,-6.957437603993355
5.758594295983227,-4.957437603993355
5.760591034643415,3.0425623960066446
5.762587773303604,0.042562396006644576
5.764584511963792,-2.9574376039933554
5.766581250623981,-1.9574376039933554
5.768577989284169,-2.9574376039933554
5.770574727944357,12.042562396006645
5.772571466604545,5.042562396006645
5.774568205264734,0.042562396006644576
5.776564943924923,-2.9574376039933554
5.778561682585111,-1.9574376039933554
5.780558421245299,-0.9574376039933554
5.782555159905487,-6.957437603993355
5.784551898565676,1.0425623960066446
5.786548637225864,-3.9574376039933554
5.788545375886052,1.0425623960066446
5.790542114546241,10.042562396006645
5.7925388532064295,8.042562396006645
5.794535591866618,2.0425623960066446
5.796532330526806,-2.9574376039933554
5.798529069186994,-8.957437603993355
5.800525807847182,-2.9574376039933554
5.802522546507371,3.0425623960066446
5.80451928516756,7.042562396006645
5.806516023827748,-5.957437603993355
5.808512762487936,0.042562396006644576
5.8105095011481245,7.042562396006645
5.812506239808313,2.0425623960066446
5.814502978468501,-6.957437603993355
5.816499717128689,-4.957437603993355
5.818496455788878,-2.9574376039933554
5.8204931944490665,5.042562396006645
5.822489933109255,0.042562396006644576
5.824486671769443,5.042562396006645
5.826483410429631,4.042562396006645
5.8284801490898195,-1.9574376039933554
5.830476887750008,-3.9574376039933554
5.832473626410196,1.0425623960066446
5.834470365070385,0.042562396006644576
5.836467103730573,0.042562396006644576
5.8384638423907615,-1.9574376039933554
5.84046058105095,-2.9574376039933554
5.842457319711138,-4.957437603993355
5.844454058371326,-9.957437603993355
5.8464507970315145,8.042562396006645
5.848447535691704,10.042562396006645
5.850444274351892,2.0425623960066446
5.85244101301208,-4.957437603993355
5.854437751672268,-4.957437603993355
5.8564344903324566,1.0425623960066446
5.858431228992645,-1.9574376039933554
5.860427967652833,4.042562396006645
5.862424706313022,13.042562396006645
5.86442144497321,-3.9574376039933554
5.866418183633399,-7.957437603993355
5.868414922293587,-3.9574376039933554
5.870411660953775,1.0425623960066446
5.872408399613963,-2.9574376039933554
5.874405138274152,10.042562396006645
5.876401876934341,-0.9574376039933554
5.878398615594529,-2.9574376039933554
5.880395354254717,-1.9574376039933554
5.882392092914905,1.0425623960066446
5.884388831575094,-0.9574376039933554
5.886385570235282,-2.9574376039933554
5.88838230889547,2.0425623960066446
5.890379047555659,3.0425623960066446
5.8923757862158475,-6.957437603993355
5.894372524876036,-11.957437603993355
5.896369263536224,6.042562396006645
5.898366002196412,20.042562396006645
5.9003627408566,5.042562396006645
5.902359479516789,-6.957437603993355
5.904356218176977,-10.957437603993355
5.906352956837166,-4.957437603993355
5.908349695497354,10.042562396006645
5.9103464341575425,5.042562396006645
5.912343172817731,3.0425623960066446
5.914339911477919,-7.957437603993355
5.916336650138107,-4.957437603993355
5.918333388798295,3.0425623960066446
5.9203301274584845,-2.9574376039933554
5.922326866118673,-0.9574376039933554
5.924323604778861,-1.9574376039933554
5.926320343439049,6.042562396006645
5.9283170820992375,-0.9574376039933554
5.930313820759426,5.042562396006645
5.932310559419614,5.042562396006645
5.934307298079803,0.042562396006644576
5.936304036739991,-4.957437603993355
5.9383007754001795,-3.9574376039933554
5.940297514060368,-0.9574376039933554
5.942294252720556,-2.9574376039933554
5.944290991380744,-3.9574376039933554
5.9462877300409325,2.0425623960066446
5.948284468701122,-1.9574376039933554
5.95028120736131,3.0425623960066446
5.952277946021498,2.0425623960066446
5.954274684681686,-2.9574376039933554
5.9562714233418745,3.0425623960066446
5.958268162002063,2.0425623960066446
5.960264900662251,0.042562396006644576
5.96226163932244,-8.957437603993355
5.964258377982628,-6.957437603993355
5.966255116642817,4.042562396006645
5.968251855303005,6.042562396006645
5.970248593963193,-0.9574376039933554
5.972245332623381,9.042562396006645
5.9742420712835695,7.042562396006645
5.976238809943759,-11.957437603993355
5.978235548603947,-5.957437603993355
5.980232287264135,1.0425623960066446
5.982229025924323,-14.957437603993355
5.984225764584512,1.0425623960066446
5.9862225032447,13.042562396006645
5.988219241904888,0.042562396006644576
5.990215980565076,3.0425623960066446
5.992212719225265,7.042562396006645
5.994209457885454,-10.957437603993355
5.996206196545642,-6.957437603993355
5.99820293520583,13.042562396006645
6.000199673866018,1.0425623960066446
6.002196412526207,-3.9574376039933554
6.004193151186395,-6.957437603993355
6.006189889846584,-1.9574376039933554
6.008186628506772,1.0425623960066446
6.0101833671669604,0.042562396006644576
6.012180105827149,2.0425623960066446
6.014176844487337,-3.9574376039933554
6.016173583147525,0.042562396006644576
6.018170321807713,-3.9574376039933554
6.0201670604679025,14.042562396006645
6.022163799128091,-2.9574376039933554
6.024160537788279,-10.957437603993355
6.026157276448467,7.042562396006645
6.0281540151086555,8.042562396006645
6.030150753768844,6.042562396006645
6.032147492429032,0.042562396006644576
6.034144231089221,-3.9574376039933554
6.036140969749409,-1.9574376039933554
6.0381377084095975,0.042562396006644576
6.040134447069786,3.0425623960066446
6.042131185729974,-10.957437603993355
6.044127924390162,-14.957437603993355
6.0461246630503505,-0.9574376039933554
6.04812140171054,6.042562396006645
6.050118140370728,17.042562396006645
6.052114879030916,-1.9574376039933554
6.054111617691104,-4.957437603993355
6.0561083563512925,-1.9574376039933554
6.058105095011481,-1.9574376039933554
6.060101833671669,0.042562396006644576
6.062098572331857,3.0425623960066446
6.064095310992046,-4.957437603993355
6.066092049652235,1.0425623960066446
6.068088788312423,1.0425623960066446
6.070085526972611,1.0425623960066446
6.072082265632799,2.0425623960066446
6.0740790042929875,-2.9574376039933554
6.076075742953176,-2.9574376039933554
6.078072481613365,-4.957437603993355
6.080069220273553,4.042562396006645
6.082065958933741,-5.957437603993355
6.08406269759393,-5.957437603993355
6.086059436254118,2.0425623960066446
6.088056174914306,3.0425623960066446
6.090052913574494,11.042562396006645
6.092049652234683,9.042562396006645
6.094046390894872,5.042562396006645
6.09604312955506,0.042562396006644576
6.098039868215248,-11.957437603993355
6.100036606875436,1.0425623960066446
6.102033345535625,0.042562396006644576
6.104030084195813,-3.9574376039933554
6.106026822856002,-4.957437603993355
6.10802356151619,5.042562396006645
6.110020300176378,8.042562396006645
6.112017038836567,-1.9574376039933554
6.114013777496755,-4.957437603993355
6.116010516156943,7.042562396006645
6.118007254817131,1.0425623960066446
6.1200039934773205,0.042562396006644576
6.122000732137509,-0.9574376039933554
6.123997470797697,-7.957437603993355
6.125994209457885,-3.9574376039933554
6.127990948118073,5.042562396006645
6.129987686778262,7.042562396006645
6.13198442543845,0.042562396006644576
6.133981164098639,-9.957437603993355
6.135977902758827,-2.9574376039933554
6.1379746414190155,3.0425623960066446
6.139971380079204,-4.957437603993355
6.141968118739392,17.042562396006645
6.14396485739958,1.0425623960066446
6.145961596059768,-4.957437603993355
6.147958334719957,-2.9574376039933554
6.149955073380146,-1.9574376039933554
6.151951812040334,4.042562396006645
6.153948550700522,-5.957437603993355
6.1559452893607105,-8.957437603993355
6.157942028020899,-21.957437603993355
6.159938766681087,19.042562396006645
6.161935505341275,6.042562396006645
6.163932244001464,-3.9574376039933554
6.165928982661653,1.0425623960066446
6.167925721321841,17.042562396006645
6.169922459982029,-0.9574376039933554
6.171919198642217,-7.957437603993355
6.1739159373024055,-6.957437603993355
6.175912675962594,8.042562396006645
6.177909414622783,3.0425623960066446
6.179906153282971,-4.957437603993355
6.181902891943159,-1.9574376039933554
6.183899630603348,-2.9574376039933554
6.185896369263536,-5.957437603993355
6.187893107923724,2.0425623960066446
6.189889846583912,3.0425623960066446
6.191886585244101,3.0425623960066446
6.19388332390429,1.0425623960066446
6.195880062564478,1.0425623960066446
6.197876801224666,-0.9574376039933554
6.199873539884854,1.0425623960066446
6.201870278545043,0.042562396006644576
6.203867017205231,-2.9574376039933554
6.20586375586542,-4.957437603993355
6.207860494525608,-0.9574376039933554
6.209857233185796,12.042562396006645
6.211853971845985,4.042562396006645
6.213850710506173,-1.9574376039933554
6.215847449166361,-2.9574376039933554
6.217844187826549,-3.9574376039933554
6.219840926486738,-4.957437603993355
6.221837665146927,1.0425623960066446
6.223834403807115,0.042562396006644576
6.225831142467303,0.042562396006644576
6.227827881127491,2.0425623960066446
6.22982461978768,1.0425623960066446
6.231821358447868,3.0425623960066446
6.233818097108056,-0.9574376039933554
6.235814835768245,-2.9574376039933554
6.2378115744284335,-0.9574376039933554
6.239808313088622,0.042562396006644576
6.24180505174881,-2.9574376039933554
6.243801790408998,1.0425623960066446
6.245798529069186,1.0425623960066446
6.247795267729375,3.0425623960066446
6.249792006389564,2.0425623960066446
6.251788745049752,4.042562396006645
6.25378548370994,-0.9574376039933554
6.2557822223701285,-2.9574376039933554
6.257778961030317,0.042562396006644576
6.259775699690505,0.042562396006644576
6.261772438350693,-7.957437603993355
6.263769177010882,0.042562396006644576
6.2657659156710706,1.0425623960066446
6.267762654331259,14.042562396006645
6.269759392991447,4.042562396006645
6.271756131651635,3.0425623960066446
6.2737528703118235,-1.9574376039933554
6.275749608972012,-3.9574376039933554
6.277746347632201,-6.957437603993355
6.279743086292389,-4.957437603993355
6.281739824952577,-10.957437603993355
6.283736563612766,12.042562396006645
6.285733302272954,11.042562396006645
6.287730040933142,8.042562396006645
6.28972677959333,-2.9574376039933554
6.2917235182535185,-2.9574376039933554
6.293720256913708,-2.9574376039933554
6.295716995573896,-1.9574376039933554
6.297713734234084,-1.9574376039933554
6.299710472894272,0.042562396006644576
6.301707211554461,0.042562396006644576
6.303703950214649,-1.9574376039933554
6.305700688874837,-1.9574376039933554
6.307697427535026,-0.9574376039933554
6.309694166195214,8.042562396006645
6.311690904855403,-0.9574376039933554
6.313687643515591,-1.9574376039933554
6.315684382175779,-10.957437603993355
6.317681120835967,-1.9574376039933554
6.319677859496156,2.0425623960066446
6.321674598156345,17.042562396006645
6.323671336816533,0.042562396006644576
6.325668075476721,-4.957437603993355
6.327664814136909,-2.9574376039933554
6.329661552797098,0.042562396006644576
6.331658291457286,1.0425623960066446
6.333655030117474,-4.957437603993355
6.335651768777663,1.0425623960066446
6.3376485074378515,1.0425623960066446
6.33964524609804,4.042562396006645
