0,1,2,3,4,5,6,7,8,9,10,11,12,13,14,15,16,17,18,19,20,21,22,23,24,25,26,27,28,29,30,31,32,33,34,35,36,37,38,39,40,41,42,43,44,45,46,47,48,49,50,51,52,53,54,55,56,57,58,59,60,61,62,63,64,65,66,67,68,69,70,71,72,73,74,75,76,77,78,79,80,81,82,83,84,85,86,87,88,89,90,91,92,93,94,95,96,97,98,99,100,101,102,103,104,105,106,107,108,109,110,111,112,113,114,115,116,117,118,119,120,121,122,123,124,125,126,127,128,129,130,131,132,133,134,135,136,137,138,139,140,141,142,143,144,145,146,147,148,149,150,151,152,153,154,155,156,157,158,159,160,161,162,163,164,165,166,167,168,169,170,171,172,173,174,175,176,177,178,179,180,181,182,183,184,185,186,187,188,189,190,191,192,193,194,195,196,197,198,199,200,201,202,203,204,205,206,207,208,209,210,211,212,213,214,215,216,217,218,219,220,221,222,223,224,225,226,227,228,229,230,231,232,233,234,235,236,237,238,239,240,241,242,243,244,245,246,247,248,249,250,251,252,253,254,255,256,257,258,259,260,261,262,263,264,265,266,267,268,269,270,271,272,273,274,275,276,277,278,279,280,281,282,283,284,285,286,287,288,289,290,291,292,293,294,295,296,297,298,299,300,301,302,303,304,305,306,307,308,309,310,311,312,313,314,315,316,317,318,319,320,321,322,323,324,325,326,327,328,329,330,331,332,333,334,335,336,337,338,339,340,341,342,343,344,345,346,347,348,349,350,351,352,353,354,355,356,357,358,359,360,361,362,363,364,365,366,367,368,369,370,371,372,373,374,375,376,377,378,379,380,381,382,383,384,385,386,387,388,389,390,391,392,393,394,395,396,397,398,399,400,401,402,403,404,405,406,407,408,409,410,411,412,413,414,415,416,417,418,419,420,421,422,423,424,425,426,427,428,429,430,431,432,433,434,435,436,437,438,439,440,441,442,443,444,445,446,447,448,449,450,451,452,453,454,455,456,457,458,459,460,461,462,463,464,465,466,467,468,469,470,471,472,473,474,475,476,477,478,479,480,481,482,483,484,485,486,487,488,489,490,491,492,493,494,495,496,497,498,499,500,501,502,503,504,505,506,507,508,509,510,511,512,513,514,515,516,517,518,519,520,521,522,523,524,525,526,527,528,529,530,531,532,533,534,535,536,537,538,539,540,541,542,543,544,545,546,547,548,549,550,551,552,553,554,555,556,557,558,559,560,561,562,563,564,565,566,567,568,569,570,571,572,573,574,575,576,577,578,579,580,581,582,583,584,585,586,587,588,589,590,591,592,593,594,595,596,597,598,599,600,601,602,603,604,605,606,607,608,609,610,611,612,613,614,615,616,617,618,619,620,621,622,623,624,625,626,627,628,629,630,631,632,633,634,635,636,637,638,639,640,641,642,643,644,645,646,647,648,649,650,651,652,653,654,655,656,657,658,659,660,661,662,663,664,665,666,667,668,669,670,671,672,673,674,675,676,677,678,679,680,681,682,683,684,685,686,687,688,689,690,691,692,693,694,695,696,697,698,699,700,701,702,703,704,705,706,707,708,709,710,711,712,713,714,715,716,717,718,719,720,721,722,723,724,725,726,727,728,729,730,731,732,733,734,735,736,737,738,739,740,741,742,743,744,745,746,747,748,749,750,751,752,753,754,755,756,757,758,759,760,761,762,763,764,765,766,767,768,769,770,771,772,773,774,775,776,777,778,779,780,781,782,783,784,785,786,787,788,789,790,791,792,793,794,795,796,797,798,799,800,801,802,803,804,805,806,807,808,809,810,811,812,813,814,815,816,817,818,819,820,821,822,823,824,825,826,827,828,829,830,831,832,833,834,835,836,837,838,839,840,841,842,843,844,845,846,847,848,849,850,851,852,853,854,855,856,857,858,859,860,861,862,863,864,865,866,867,868,869,870,871,872,873,874,875,876,877,878,879,880,881,882,883,884,885,886,887,888,889,890,891,892,893,894,895,896,897,898,899,900,901,902,903,904,905,906,907,908,909,910,911,912,913,914,915,916,917,918,919,920,921,922,923,924,925,926,927,928,929,930,931,932,933,934,935,936,937,938,939,940,941,942,943,944,945,946,947,948,949,950,951,952,953,954,955,956,957,958,959,960,961,962,963,964,965,966,967,968,969,970,971,972,973,974,975,976,977,978,979,980,981,982,983,984,985,986,987,988,989,990,991,992,993,994,995,996,997,998,999,1000,1001,1002,1003,1004,1005,1006,1007,1008,1009,1010,1011,1012,1013,1014,1015,1016,1017,1018,1019,1020,1021,1022,1023
33.008139534883696,84.0081395348837,125.00813953488371,117.00813953488371,54.008139534883696,13.008139534883695,-25.991860465116304,-42.991860465116304,6.0081395348836955,43.008139534883696,35.008139534883696,3.0081395348836963,-29.991860465116304,-40.991860465116304,-13.991860465116305,45.008139534883696,85.0081395348837,17.008139534883696,-43.991860465116304,-36.991860465116304,-15.991860465116305,0.008139534883696342,24.008139534883696,35.008139534883696,20.008139534883696,9.008139534883696,14.008139534883695,29.008139534883696,59.008139534883696,68.0081395348837,54.008139534883696,25.008139534883696,12.008139534883695,-2.991860465116304,-44.991860465116304,-83.9918604651163,-47.991860465116304,-45.991860465116304,-17.991860465116304,12.008139534883695,44.008139534883696,17.008139534883696,44.008139534883696,52.008139534883696,8.008139534883696,-8.991860465116304,-2.991860465116304,31.008139534883696,71.0081395348837,83.0081395348837,26.008139534883696,-28.991860465116304,-59.991860465116304,-45.991860465116304,-39.991860465116304,-34.991860465116304,-18.991860465116304,5.008139534883696,-3.991860465116304,-43.991860465116304,-22.991860465116304,8.008139534883696,-29.991860465116304,-35.991860465116304,20.008139534883696,100.00813953488371,112.00813953488371,61.008139534883696,5.008139534883696,-24.991860465116304,-35.991860465116304,-16.991860465116304,4.008139534883696,-1.991860465116304,2.0081395348836963,-25.991860465116304,-41.991860465116304,-10.991860465116305,44.008139534883696,29.008139534883696,12.008139534883695,-3.991860465116304,-18.991860465116304,-30.991860465116304,-51.991860465116304,-79.9918604651163,-20.991860465116304,32.008139534883696,58.008139534883696,73.0081395348837,90.00813953488371,88.00813953488371,56.008139534883696,0.008139534883696342,-66.9918604651163,-68.9918604651163,-29.991860465116304,7.0081395348836955,-21.991860465116304,-9.991860465116304,7.0081395348836955,-11.991860465116305,-40.991860465116304,-74.9918604651163,-62.991860465116304,-26.991860465116304,28.008139534883696,82.0081395348837,128.0081395348837,132.0081395348837,44.008139534883696,-23.991860465116304,-25.991860465116304,-38.991860465116304,-29.991860465116304,-16.991860465116304,-8.991860465116304,-7.9918604651163045,-22.991860465116304,-15.991860465116305,-22.991860465116304,-13.991860465116305,10.008139534883696,22.008139534883696,-2.991860465116304,-9.991860465116304,41.008139534883696,41.008139534883696,-7.9918604651163045,-25.991860465116304,-5.9918604651163045,11.008139534883695,5.008139534883696,0.008139534883696342,-7.9918604651163045,-7.9918604651163045,-15.991860465116305,-17.991860465116304,-9.991860465116304,-8.991860465116304,2.0081395348836963,-7.9918604651163045,-4.991860465116304,0.008139534883696342,6.0081395348836955,25.008139534883696,28.008139534883696,21.008139534883696,21.008139534883696,20.008139534883696,17.008139534883696,10.008139534883696,1.0081395348836963,-6.9918604651163045,-7.9918604651163045,-19.991860465116304,-19.991860465116304,-24.991860465116304,-24.991860465116304,-19.991860465116304,-10.991860465116305,-4.991860465116304,-0.9918604651163035,6.0081395348836955,8.008139534883696,18.008139534883696,21.008139534883696,20.008139534883696,21.008139534883696,22.008139534883696,15.008139534883695,10.008139534883696,3.0081395348836963,-2.991860465116304,-7.9918604651163045,-19.991860465116304,-21.991860465116304,-20.991860465116304,-21.991860465116304,-15.991860465116305,-10.991860465116305,-6.9918604651163045,0.008139534883696342,7.0081395348836955,7.0081395348836955,18.008139534883696,18.008139534883696,20.008139534883696,22.008139534883696,20.008139534883696,18.008139534883696,11.008139534883695,3.0081395348836963,-2.991860465116304,-7.9918604651163045,-19.991860465116304,-22.991860465116304,-22.991860465116304,-21.991860465116304,-19.991860465116304,-11.991860465116305,-9.991860465116304,-0.9918604651163035,5.008139534883696,11.008139534883695,18.008139534883696,20.008139534883696,21.008139534883696,22.008139534883696,20.008139534883696,19.008139534883696,10.008139534883696,0.008139534883696342,-1.991860465116304,-6.9918604651163045,-15.991860465116305,-22.991860465116304,-20.991860465116304,-28.991860465116304,-22.991860465116304,-15.991860465116305,-10.991860465116305,9.008139534883696,20.008139534883696,24.008139534883696,31.008139534883696,25.008139534883696,20.008139534883696,15.008139534883695,12.008139534883695,12.008139534883695,8.008139534883696,0.008139534883696342,-7.9918604651163045,-11.991860465116305,-19.991860465116304,-22.991860465116304,-25.991860465116304,-22.991860465116304,-17.991860465116304,-11.991860465116305,-5.9918604651163045,-1.991860465116304,2.0081395348836963,3.0081395348836963,11.008139534883695,20.008139534883696,24.008139534883696,27.008139534883696,29.008139534883696,21.008139534883696,11.008139534883695,4.008139534883696,-7.9918604651163045,-4.991860465116304,-11.991860465116305,-17.991860465116304,-13.991860465116305,-11.991860465116305,-15.991860465116305,-18.991860465116304,-13.991860465116305,-4.991860465116304,2.0081395348836963,8.008139534883696,15.008139534883695,13.008139534883695,8.008139534883696,4.008139534883696,9.008139534883696,22.008139534883696,36.008139534883696,35.008139534883696,19.008139534883696,1.0081395348836963,-15.991860465116305,-30.991860465116304,-43.991860465116304,-39.991860465116304,-28.991860465116304,-20.991860465116304,-12.991860465116305,-2.991860465116304,6.0081395348836955,13.008139534883695,19.008139534883696,13.008139534883695,10.008139534883696,15.008139534883695,18.008139534883696,15.008139534883695,19.008139534883696,31.008139534883696,20.008139534883696,2.0081395348836963,-18.991860465116304,-36.991860465116304,-46.991860465116304,-34.991860465116304,-9.991860465116304,-2.991860465116304,3.0081395348836963,17.008139534883696,18.008139534883696,5.008139534883696,6.0081395348836955,9.008139534883696,16.008139534883696,27.008139534883696,22.008139534883696,15.008139534883695,11.008139534883695,1.0081395348836963,-6.9918604651163045,-10.991860465116305,-15.991860465116305,-19.991860465116304,-16.991860465116304,-7.9918604651163045,1.0081395348836963,7.0081395348836955,-6.9918604651163045,-14.991860465116305,2.0081395348836963,8.008139534883696,20.008139534883696,26.008139534883696,23.008139534883696,21.008139534883696,15.008139534883695,12.008139534883695,11.008139534883695,4.008139534883696,-2.991860465116304,-4.991860465116304,-12.991860465116305,-20.991860465116304,-24.991860465116304,-33.991860465116304,-28.991860465116304,-18.991860465116304,-10.991860465116305,-8.991860465116304,-6.9918604651163045,23.008139534883696,50.008139534883696,52.008139534883696,34.008139534883696,10.008139534883696,0.008139534883696342,11.008139534883695,13.008139534883695,1.0081395348836963,-8.991860465116304,-12.991860465116305,-18.991860465116304,-23.991860465116304,-23.991860465116304,-22.991860465116304,-18.991860465116304,-12.991860465116305,-6.9918604651163045,0.008139534883696342,0.008139534883696342,3.0081395348836963,9.008139534883696,12.008139534883695,7.0081395348836955,16.008139534883696,27.008139534883696,32.008139534883696,31.008139534883696,19.008139534883696,5.008139534883696,-4.991860465116304,-22.991860465116304,-33.991860465116304,-29.991860465116304,-27.991860465116304,-17.991860465116304,-8.991860465116304,-2.991860465116304,4.008139534883696,2.0081395348836963,3.0081395348836963,9.008139534883696,13.008139534883695,17.008139534883696,21.008139534883696,21.008139534883696,17.008139534883696,13.008139534883695,6.0081395348836955,-0.9918604651163035,-7.9918604651163045,-17.991860465116304,-20.991860465116304,-15.991860465116305,-22.991860465116304,-20.991860465116304,-14.991860465116305,-6.9918604651163045,3.0081395348836963,10.008139534883696,9.008139534883696,14.008139534883695,17.008139534883696,20.008139534883696,20.008139534883696,21.008139534883696,19.008139534883696,12.008139534883695,3.0081395348836963,-3.991860465116304,-6.9918604651163045,-13.991860465116305,-21.991860465116304,-22.991860465116304,-21.991860465116304,-9.991860465116304,-2.991860465116304,-0.9918604651163035,0.008139534883696342,4.008139534883696,5.008139534883696,12.008139534883695,17.008139534883696,21.008139534883696,24.008139534883696,22.008139534883696,16.008139534883696,11.008139534883695,4.008139534883696,-6.9918604651163045,-9.991860465116304,-19.991860465116304,-21.991860465116304,-19.991860465116304,-21.991860465116304,-15.991860465116305,-2.991860465116304,3.0081395348836963,5.008139534883696,2.0081395348836963,4.008139534883696,10.008139534883696,11.008139534883695,14.008139534883695,17.008139534883696,17.008139534883696,12.008139534883695,8.008139534883696,1.0081395348836963,-5.9918604651163045,-10.991860465116305,-13.991860465116305,-12.991860465116305,-13.991860465116305,-24.991860465116304,-25.991860465116304,-17.991860465116304,-6.9918604651163045,-4.991860465116304,5.008139534883696,9.008139534883696,15.008139534883695,16.008139534883696,20.008139534883696,21.008139534883696,19.008139534883696,14.008139534883695,10.008139534883696,2.0081395348836963,-3.991860465116304,-7.9918604651163045,-18.991860465116304,-21.991860465116304,-23.991860465116304,-24.991860465116304,-20.991860465116304,-13.991860465116305,-9.991860465116304,-2.991860465116304,5.008139534883696,13.008139534883695,21.008139534883696,20.008139534883696,19.008139534883696,19.008139534883696,22.008139534883696,11.008139534883695,7.0081395348836955,2.0081395348836963,-2.991860465116304,-10.991860465116305,-19.991860465116304,-25.991860465116304,-26.991860465116304,-23.991860465116304,-15.991860465116305,-4.991860465116304,0.008139534883696342,-2.991860465116304,2.0081395348836963,6.0081395348836955,8.008139534883696,17.008139534883696,20.008139534883696,21.008139534883696,21.008139534883696,17.008139534883696,11.008139534883695,0.008139534883696342,-7.9918604651163045,-8.991860465116304,-18.991860465116304,-23.991860465116304,-25.991860465116304,-23.991860465116304,-19.991860465116304,-12.991860465116305,-6.9918604651163045,1.0081395348836963,3.0081395348836963,8.008139534883696,16.008139534883696,19.008139534883696,20.008139534883696,20.008139534883696,22.008139534883696,17.008139534883696,12.008139534883695,5.008139534883696,-3.991860465116304,-7.9918604651163045,-18.991860465116304,-21.991860465116304,-23.991860465116304,-24.991860465116304,-18.991860465116304,-12.991860465116305,-8.991860465116304,-3.991860465116304,1.0081395348836963,9.008139534883696,16.008139534883696,20.008139534883696,20.008139534883696,23.008139534883696,22.008139534883696,16.008139534883696,10.008139534883696,5.008139534883696,-5.9918604651163045,-10.991860465116305,-15.991860465116305,-21.991860465116304,-23.991860465116304,-24.991860465116304,-19.991860465116304,-14.991860465116305,-9.991860465116304,-0.9918604651163035,4.008139534883696,7.0081395348836955,16.008139534883696,20.008139534883696,17.008139534883696,20.008139534883696,20.008139534883696,15.008139534883695,10.008139534883696,1.0081395348836963,-7.9918604651163045,-10.991860465116305,-19.991860465116304,-21.991860465116304,-25.991860465116304,-26.991860465116304,-20.991860465116304,-14.991860465116305,-12.991860465116305,-4.991860465116304,1.0081395348836963,4.008139534883696,13.008139534883695,18.008139534883696,17.008139534883696,18.008139534883696,21.008139534883696,18.008139534883696,12.008139534883695,5.008139534883696,-2.991860465116304,-6.9918604651163045,-16.991860465116304,-20.991860465116304,-23.991860465116304,-21.991860465116304,-18.991860465116304,-13.991860465116305,-7.9918604651163045,1.0081395348836963,8.008139534883696,9.008139534883696,17.008139534883696,18.008139534883696,19.008139534883696,17.008139534883696,20.008139534883696,19.008139534883696,11.008139534883695,4.008139534883696,-1.991860465116304,-7.9918604651163045,-17.991860465116304,-20.991860465116304,-25.991860465116304,-23.991860465116304,-18.991860465116304,-14.991860465116305,-7.9918604651163045,-1.991860465116304,2.0081395348836963,5.008139534883696,15.008139534883695,19.008139534883696,22.008139534883696,19.008139534883696,21.008139534883696,15.008139534883695,11.008139534883695,5.008139534883696,-1.991860465116304,-7.9918604651163045,-15.991860465116305,-23.991860465116304,-25.991860465116304,-23.991860465116304,-19.991860465116304,-12.991860465116305,-9.991860465116304,0.008139534883696342,5.008139534883696,6.0081395348836955,14.008139534883695,18.008139534883696,17.008139534883696,19.008139534883696,20.008139534883696,16.008139534883696,12.008139534883695,7.0081395348836955,-2.991860465116304,-7.9918604651163045,-18.991860465116304,-19.991860465116304,-22.991860465116304,-22.991860465116304,-19.991860465116304,-12.991860465116305,-8.991860465116304,-2.991860465116304,4.008139534883696,6.0081395348836955,14.008139534883695,19.008139534883696,20.008139534883696,20.008139534883696,21.008139534883696,17.008139534883696,12.008139534883695,5.008139534883696,-3.991860465116304,-5.9918604651163045,-13.991860465116305,-21.991860465116304,-22.991860465116304,-23.991860465116304,-19.991860465116304,-14.991860465116305,-9.991860465116304,-2.991860465116304,4.008139534883696,9.008139534883696,16.008139534883696,16.008139534883696,21.008139534883696,22.008139534883696,20.008139534883696,17.008139534883696,12.008139534883695,3.0081395348836963,-2.991860465116304,-7.9918604651163045,-15.991860465116305,-20.991860465116304,-23.991860465116304,-23.991860465116304,-19.991860465116304,-12.991860465116305,-6.9918604651163045,-1.991860465116304,2.0081395348836963,7.0081395348836955,13.008139534883695,17.008139534883696,20.008139534883696,20.008139534883696,21.008139534883696,17.008139534883696,11.008139534883695,2.0081395348836963,-2.991860465116304,-6.9918604651163045,-15.991860465116305,-21.991860465116304,-23.991860465116304,-24.991860465116304,-21.991860465116304,-14.991860465116305,-10.991860465116305,-4.991860465116304,4.008139534883696,9.008139534883696,14.008139534883695,18.008139534883696,19.008139534883696,20.008139534883696,22.008139534883696,17.008139534883696,13.008139534883695,5.008139534883696,-3.991860465116304,-8.991860465116304,-14.991860465116305,-22.991860465116304,-23.991860465116304,-23.991860465116304,-19.991860465116304,-14.991860465116305,-10.991860465116305,-0.9918604651163035,4.008139534883696,9.008139534883696,15.008139534883695,18.008139534883696,20.008139534883696,21.008139534883696,20.008139534883696,14.008139534883695,12.008139534883695,5.008139534883696,-1.991860465116304,-9.991860465116304,-14.991860465116305,-20.991860465116304,-24.991860465116304,-24.991860465116304,-19.991860465116304,-11.991860465116305,-4.991860465116304,0.008139534883696342,5.008139534883696,7.0081395348836955,14.008139534883695,20.008139534883696,21.008139534883696,19.008139534883696,21.008139534883696,18.008139534883696,12.008139534883695,5.008139534883696,-3.991860465116304,-6.9918604651163045,-14.991860465116305,-19.991860465116304,-22.991860465116304,-24.991860465116304,-19.991860465116304,-14.991860465116305,-7.9918604651163045,-2.991860465116304,1.0081395348836963,6.0081395348836955,12.008139534883695,18.008139534883696,21.008139534883696,21.008139534883696,20.008139534883696,18.008139534883696,13.008139534883695,5.008139534883696,-2.991860465116304,-7.9918604651163045,-14.991860465116305,-20.991860465116304,-23.991860465116304,-22.991860465116304,-18.991860465116304,-13.991860465116305,-6.9918604651163045,-1.991860465116304,3.0081395348836963,6.0081395348836955,12.008139534883695,19.008139534883696,21.008139534883696,19.008139534883696,20.008139534883696,16.008139534883696,12.008139534883695,4.008139534883696,-2.991860465116304,-7.9918604651163045,-13.991860465116305,-19.991860465116304,-23.991860465116304,-21.991860465116304,-19.991860465116304,-13.991860465116305,-8.991860465116304,-1.991860465116304,4.008139534883696,8.008139534883696,12.008139534883695,17.008139534883696,20.008139534883696,18.008139534883696,21.008139534883696,14.008139534883695,10.008139534883696,4.008139534883696,-3.991860465116304,-7.9918604651163045,-14.991860465116305,-21.991860465116304,-22.991860465116304,-23.991860465116304,-20.991860465116304,-13.991860465116305,-7.9918604651163045,-1.991860465116304,4.008139534883696,7.0081395348836955,14.008139534883695,16.008139534883696,20.008139534883696,19.008139534883696,19.008139534883696,18.008139534883696,12.008139534883695,8.008139534883696,-3.991860465116304,-5.9918604651163045,-11.991860465116305,-19.991860465116304,-23.991860465116304,-20.991860465116304,-17.991860465116304,-12.991860465116305,-10.991860465116305,-3.991860465116304,5.008139534883696,7.0081395348836955,12.008139534883695,17.008139534883696,19.008139534883696,19.008139534883696,24.008139534883696,16.008139534883696,13.008139534883695,6.0081395348836955,-2.991860465116304,-6.9918604651163045,-13.991860465116305,-20.991860465116304,-21.991860465116304,-21.991860465116304,-19.991860465116304,-10.991860465116305,-6.9918604651163045,-2.991860465116304,1.0081395348836963,5.008139534883696,10.008139534883696,16.008139534883696,19.008139534883696,21.008139534883696,22.008139534883696,18.008139534883696,14.008139534883695,7.0081395348836955,-2.991860465116304,-4.991860465116304,-13.991860465116305,-20.991860465116304,-22.991860465116304,-23.991860465116304,-19.991860465116304,-14.991860465116305,-7.9918604651163045,-2.991860465116304,1.0081395348836963,6.0081395348836955,9.008139534883696,16.008139534883696,20.008139534883696,19.008139534883696,20.008139534883696,17.008139534883696,12.008139534883695,8.008139534883696,-2.991860465116304,-7.9918604651163045,-10.991860465116305,-17.991860465116304,-23.991860465116304,-23.991860465116304,-19.991860465116304,-13.991860465116305,-5.9918604651163045,-4.991860465116304,2.0081395348836963,7.0081395348836955,11.008139534883695,16.008139534883696,18.008139534883696,20.008139534883696,23.008139534883696,19.008139534883696,13.008139534883695,3.0081395348836963,-1.991860465116304,-6.9918604651163045,-12.991860465116305,-20.991860465116304,-22.991860465116304,-19.991860465116304,-17.991860465116304,-11.991860465116305,-7.9918604651163045,-2.991860465116304,4.008139534883696,7.0081395348836955,12.008139534883695,16.008139534883696,19.008139534883696,19.008139534883696,24.008139534883696,19.008139534883696,12.008139534883695,6.0081395348836955,-1.991860465116304,-7.9918604651163045,-13.991860465116305,-20.991860465116304,-21.991860465116304,-23.991860465116304,-19.991860465116304,-14.991860465116305,-9.991860465116304,-3.991860465116304,3.0081395348836963,7.0081395348836955,12.008139534883695,16.008139534883696,20.008139534883696,19.008139534883696,20.008139534883696,15.008139534883695,13.008139534883695,8.008139534883696,-2.991860465116304,-6.9918604651163045,-12.991860465116305,-18.991860465116304,-22.991860465116304,-21.991860465116304,-16.991860465116304,-13.991860465116305,-9.991860465116304,-4.991860465116304,3.0081395348836963,7.0081395348836955,9.008139534883696,16.008139534883696,20.008139534883696,17.008139534883696,22.008139534883696,17.008139534883696,13.008139534883695,7.0081395348836955,-1.991860465116304,-4.991860465116304,-11.991860465116305,-18.991860465116304,-20.991860465116304,-24.991860465116304,-18.991860465116304,-12.991860465116305,-8.991860465116304,-1.991860465116304,2.0081395348836963,8.008139534883696,14.008139534883695,18.008139534883696,24.008139534883696,19.008139534883696,22.008139534883696,18.008139534883696,12.008139534883695,5.008139534883696,-0.9918604651163035,-5.9918604651163045,-13.991860465116305,-18.991860465116304,-22.991860465116304,-23.991860465116304,-20.991860465116304,-14.991860465116305,-11.991860465116305,-1.991860465116304,2.0081395348836963
1.0,1.0,1.0,1.0,1.0,1.0,1.0,1.0,1.0,1.0,1.0,1.0,1.0,1.0,1.0,1.0,1.0,1.0,1.0,1.0,1.0,1.0,1.0,1.0,1.0,1.0,1.0,1.0,1.0,1.0,1.0,1.0,1.0,1.0,1.0,1.0,1.0,1.0,1.0,1.0,1.0,1.0,1.0,1.0,1.0,1.0,1.0,1.0,1.0,1.0,1.0,1.0,1.0,1.0,1.0,1.0,1.0,1.0,1.0,1.0,1.0,1.0,1.0,1.0,1.0,1.0,1.0,1.0,1.0,1.0,1.0,1.0,1.0,1.0,1.0,1.0,1.0,1.0,1.0,1.0,1.0,1.0,1.0,1.0,1.0,1.0,1.0,1.0,1.0,1.0,1.0,1.0,1.0,1.0,1.0,1.0,1.0,1.0,1.0,1.0,1.0,1.0,1.0,1.0,1.0,1.0,1.0,1.0,1.0,1.0,1.0,1.0,1.0,1.0,1.0,1.0,1.0,1.0,1.0,1.0,1.0,1.0,1.0,1.0,1.0,1.0,1.0,1.0,1.0,1.0,1.0,1.0,1.0,1.0,1.0,1.0,1.0,1.0,1.0,1.0,1.0,1.0,1.0,1.0,1.0,1.0,1.0,1.0,1.0,1.0,1.0,1.0,1.0,1.0,1.0,1.0,1.0,1.0,1.0,1.0,1.0,1.0,1.0,1.0,1.0,1.0,1.0,1.0,1.0,1.0,1.0,1.0,1.0,1.0,1.0,1.0,1.0,1.0,1.0,1.0,1.0,1.0,1.0,1.0,1.0,1.0,1.0,1.0,1.0,1.0,1.0,1.0,1.0,1.0,1.0,1.0,1.0,1.0,1.0,1.0,1.0,1.0,1.0,1.0,1.0,1.0,1.0,1.0,1.0,1.0,1.0,1.0,1.0,1.0,1.0,1.0,1.0,1.0,1.0,1.0,1.0,1.0,1.0,1.0,1.0,1.0,1.0,1.0,1.0,1.0,1.0,1.0,1.0,1.0,1.0,1.0,1.0,1.0,1.0,1.0,1.0,1.0,1.0,1.0,1.0,1.0,1.0,1.0,1.0,1.0,1.0,1.0,1.0,1.0,1.0,1.0,1.0,1.0,1.0,1.0,1.0,1.0,1.0,1.0,1.0,1.0,1.0,1.0,1.0,1.0,1.0,1.0,1.0,1.0,1.0,1.0,1.0,1.0,1.0,1.0,1.0,1.0,1.0,1.0,1.0,1.0,1.0,1.0,1.0,1.0,1.0,1.0,1.0,1.0,1.0,1.0,1.0,1.0,1.0,1.0,1.0,1.0,1.0,1.0,1.0,1.0,1.0,1.0,1.0,1.0,1.0,1.0,1.0,1.0,1.0,1.0,1.0,1.0,1.0,1.0,1.0,1.0,1.0,1.0,1.0,1.0,1.0,1.0,1.0,1.0,1.0,1.0,1.0,1.0,1.0,1.0,1.0,1.0,1.0,1.0,1.0,1.0,1.0,1.0,1.0,1.0,1.0,1.0,1.0,1.0,1.0,1.0,1.0,0.0,0.0,0.0,0.0,0.0,0.0,0.0,0.0,0.0,0.0,0.0,0.0,0.0,0.0,0.0,0.0,0.0,0.0,0.0,0.0,0.0,0.0,0.0,0.0,0.0,0.0,0.0,0.0,0.0,0.0,0.0,0.0,0.0,0.0,0.0,0.0,0.0,0.0,0.0,0.0,0.0,0.0,0.0,0.0,0.0,0.0,0.0,0.0,0.0,0.0,0.0,0.0,0.0,0.0,0.0,0.0,0.0,0.0,0.0,0.0,0.0,0.0,0.0,0.0,0.0,0.0,0.0,0.0,0.0,0.0,0.0,0.0,0.0,0.0,0.0,0.0,0.0,0.0,0.0,0.0,0.0,0.0,0.0,0.0,0.0,0.0,0.0,0.0,0.0,0.0,0.0,0.0,0.0,0.0,0.0,0.0,0.0,0.0,0.0,0.0,0.0,0.0,0.0,0.0,0.0,0.0,0.0,0.0,0.0,0.0,0.0,0.0,0.0,0.0,0.0,0.0,0.0,0.0,0.0,0.0,0.0,0.0,0.0,0.0,0.0,0.0,0.0,0.0,0.0,0.0,0.0,0.0,0.0,0.0,0.0,0.0,0.0,0.0,0.0,0.0,0.0,0.0,0.0,0.0,0.0,0.0,0.0,0.0,0.0,0.0,0.0,0.0,0.0,0.0,0.0,0.0,0.0,0.0,0.0,0.0,0.0,0.0,0.0,0.0,0.0,0.0,0.0,0.0,0.0,0.0,0.0,0.0,0.0,0.0,0.0,0.0,0.0,0.0,0.0,0.0,0.0,0.0,0.0,0.0,0.0,0.0,0.0,0.0,0.0,0.0,0.0,0.0,0.0,0.0,0.0,0.0,0.0,0.0,0.0,0.0,0.0,0.0,0.0,0.0,0.0,0.0,0.0,0.0,0.0,0.0,0.0,0.0,0.0,0.0,0.0,0.0,0.0,0.0,0.0,0.0,0.0,0.0,0.0,0.0,0.0,0.0,0.0,0.0,0.0,0.0,0.0,0.0,0.0,0.0,0.0,0.0,0.0,0.0,0.0,0.0,0.0,0.0,0.0,0.0,0.0,0.0,0.0,0.0,0.0,0.0,0.0,0.0,0.0,0.0,0.0,0.0,0.0,0.0,0.0,0.0,0.0,0.0,0.0,0.0,0.0,0.0,0.0,0.0,0.0,0.0,0.0,0.0,0.0,0.0,0.0,0.0,0.0,0.0,0.0,0.0,0.0,0.0,0.0,0.0,0.0,0.0,0.0,0.0,0.0,0.0,0.0,0.0,0.0,0.0,0.0,0.0,0.0,0.0,0.0,0.0,0.0,0.0,0.0,0.0,0.0,0.0,0.0,0.0,0.0,0.0,0.0,0.0,0.0,0.0,0.0,0.0,0.0,0.0,0.0,0.0,0.0,0.0,0.0,0.0,0.0,0.0,0.0,0.0,0.0,0.0,0.0,0.0,0.0,0.0,0.0,0.0,0.0,0.0,0.0,0.0,0.0,0.0,0.0,0.0,0.0,0.0,0.0,0.0,0.0,0.0,0.0,0.0,0.0,0.0,0.0,0.0,0.0,0.0,0.0,0.0,0.0,0.0,0.0,0.0,0.0,0.0,0.0,0.0,0.0,0.0,0.0,0.0,0.0,0.0,0.0,0.0,0.0,0.0,0.0,0.0,0.0,0.0,0.0,0.0,0.0,0.0,0.0,0.0,0.0,0.0,0.0,0.0,0.0,0.0,0.0,0.0,0.0,0.0,0.0,0.0,0.0,0.0,0.0,0.0,0.0,0.0,0.0,0.0,0.0,0.0,0.0,0.0,0.0,0.0,0.0,0.0,0.0,0.0,0.0,0.0,0.0,0.0,0.0,0.0,0.0,0.0,0.0,0.0,0.0,0.0,0.0,0.0,0.0,0.0,0.0,0.0,0.0,0.0,0.0,0.0,0.0,0.0,0.0,0.0,0.0,0.0,0.0,0.0,0.0,0.0,0.0,0.0,0.0,0.0,0.0,0.0,0.0,0.0,0.0,0.0,0.0,0.0,0.0,0.0,0.0,0.0,0.0,0.0,0.0,0.0,0.0,0.0,0.0,0.0,0.0,0.0,0.0,0.0,0.0,0.0,0.0,0.0,0.0,0.0,0.0,0.0,0.0,0.0,0.0,0.0,0.0,0.0,0.0,0.0,0.0,0.0,0.0,0.0,0.0,0.0,0.0,0.0,0.0,0.0,0.0,0.0,0.0,0.0,0.0,0.0,0.0,0.0,0.0,0.0,0.0,0.0,0.0,0.0,0.0,0.0,0.0,0.0,0.0,0.0,0.0,0.0,0.0,0.0,0.0,0.0,0.0,0.0,0.0,0.0,0.0,0.0,0.0,0.0,0.0,0.0,0.0,0.0,0.0,0.0,0.0,0.0,0.0,0.0,0.0,0.0,0.0,0.0,0.0,0.0,0.0,0.0,0.0,0.0,0.0,0.0,0.0,0.0,0.0,0.0,0.0,0.0,0.0,0.0,0.0,0.0,0.0,0.0,0.0,0.0,0.0,0.0,0.0,0.0,0.0,0.0,0.0,0.0,0.0,0.0,0.0,0.0,0.0,0.0,0.0,0.0,0.0,0.0,0.0,0.0,0.0,0.0,0.0,0.0,0.0,0.0,0.0,0.0,0.0,0.0,0.0,0.0,0.0,0.0,0.0,0.0,0.0,0.0,0.0,0.0,0.0,0.0,0.0,0.0,0.0,0.0,0.0,0.0,0.0,0.0,0.0,0.0,0.0,0.0,0.0,0.0,0.0,0.0,0.0,0.0,0.0,0.0,0.0,0.0,0.0,0.0,0.0,0.0,0.0,0.0,0.0,0.0,0.0,0.0,0.0,0.0,0.0,0.0,0.0,0.0,0.0,0.0,0.0,0.0,0.0,0.0,0.0,0.0,0.0,0.0,0.0,0.0,0.0,0.0,0.0,0.0,0.0
