0,1,2,3,4,5,6,7,8,9,10,11,12,13,14,15,16,17,18,19,20,21,22,23,24,25,26,27,28,29,30,31,32,33,34,35,36,37,38,39,40,41,42,43,44,45,46,47,48,49,50,51,52,53,54,55,56,57,58,59,60,61,62,63,64,65,66,67,68,69,70,71,72,73,74,75,76,77,78,79,80,81,82,83,84,85,86,87,88,89,90,91,92,93,94,95,96,97,98,99,100,101,102,103,104,105,106,107,108,109,110,111,112,113,114,115,116,117,118,119,120,121,122,123,124,125,126,127,128,129,130,131,132,133,134,135,136,137,138,139,140,141,142,143,144,145,146,147,148,149,150,151,152,153,154,155,156,157,158,159,160,161,162,163,164,165,166,167,168,169,170,171,172,173,174,175,176,177,178,179,180,181,182,183,184,185,186,187,188,189,190,191,192,193,194,195,196,197,198,199,200,201,202,203,204,205,206,207,208,209,210,211,212,213,214,215,216,217,218,219,220,221,222,223,224,225,226,227,228,229,230,231,232,233,234,235,236,237,238,239,240,241,242,243,244,245,246,247,248,249,250,251,252,253,254,255,256,257,258,259,260,261,262,263,264,265,266,267,268,269,270,271,272,273,274,275,276,277,278,279,280,281,282,283,284,285,286,287,288,289,290,291,292,293,294,295,296,297,298,299,300,301,302,303,304,305,306,307,308,309,310,311,312,313,314,315,316,317,318,319,320,321,322,323,324,325,326,327,328,329,330,331,332,333,334,335,336,337,338,339,340,341,342,343,344,345,346,347,348,349,350,351,352,353,354,355,356,357,358,359,360,361,362,363,364,365,366,367,368,369,370,371,372,373,374,375,376,377,378,379,380,381,382,383,384,385,386,387,388,389,390,391,392,393,394,395,396,397,398,399,400,401,402,403,404,405,406,407,408,409,410,411,412,413,414,415,416,417,418,419,420,421,422,423,424,425,426,427,428,429,430,431,432,433,434,435,436,437,438,439,440,441,442,443,444,445,446,447,448,449,450,451,452,453,454,455,456,457,458,459,460,461,462,463,464,465,466,467,468,469,470,471,472,473,474,475,476,477,478,479,480,481,482,483,484,485,486,487,488,489,490,491,492,493,494,495,496,497,498,499,500,501,502,503,504,505,506,507,508,509,510,511,512,513,514,515,516,517,518,519,520,521,522,523,524,525,526,527,528,529,530,531,532,533,534,535,536,537,538,539,540,541,542,543,544,545,546,547,548,549,550,551,552,553,554,555,556,557,558,559,560,561,562,563,564,565,566,567,568,569,570,571,572,573,574,575,576,577,578,579,580,581,582,583,584,585,586,587,588,589,590,591,592,593,594,595,596,597,598,599,600,601,602,603,604,605,606,607,608,609,610,611,612,613,614,615,616,617,618,619,620,621,622,623,624,625,626,627,628,629,630,631,632,633,634,635,636,637,638,639,640,641,642,643,644,645,646,647,648,649,650,651,652,653,654,655,656,657,658,659,660,661,662,663,664,665,666,667,668,669,670,671,672,673,674,675,676,677,678,679,680,681,682,683,684,685,686,687,688,689,690,691,692,693,694,695,696,697,698,699,700,701,702,703,704,705,706,707,708,709,710,711,712,713,714,715,716,717,718,719,720,721,722,723,724,725,726,727,728,729,730,731,732,733,734,735,736,737,738,739,740,741,742,743,744,745,746,747,748,749,750,751,752,753,754,755,756,757,758,759,760,761,762,763,764,765,766,767,768,769,770,771,772,773,774,775,776,777,778,779,780,781,782,783,784,785,786,787,788,789,790,791,792,793,794,795,796,797,798,799,800,801,802,803,804,805,806,807,808,809,810,811,812,813,814,815,816,817,818,819,820,821,822,823,824,825,826,827,828,829,830,831,832,833,834,835,836,837,838,839,840,841,842,843,844,845,846,847,848,849,850,851,852,853,854,855,856,857,858,859,860,861,862,863,864,865,866,867,868,869,870,871,872,873,874,875,876,877,878,879,880,881,882,883,884,885,886,887,888,889,890,891,892,893,894,895,896,897,898,899,900,901,902,903,904,905,906,907,908,909,910,911,912,913,914,915,916,917,918,919,920,921,922,923,924,925,926,927,928,929,930,931,932,933,934,935,936,937,938,939,940,941,942,943,944,945,946,947,948,949,950,951,952,953,954,955,956,957,958,959,960,961,962,963,964,965,966,967,968,969,970,971,972,973,974,975,976,977,978,979,980,981,982,983,984,985,986,987,988,989,990,991,992,993,994,995,996,997,998,999,1000,1001,1002,1003,1004,1005,1006,1007,1008,1009,1010,1011,1012,1013,1014,1015,1016,1017,1018,1019,1020,1021,1022,1023
1.1511960132890522,-15.848803986710946,-4.848803986710949,0.1511960132890522,1.1511960132890522,3.1511960132890517,5.151196013289051,1.1511960132890522,5.151196013289051,33.15119601328905,68.15119601328905,79.15119601328905,58.15119601328905,39.151196013289045,19.151196013289045,-22.848803986710948,-51.84880398671095,-35.848803986710955,-22.848803986710948,-14.848803986710946,-6.848803986710948,-10.848803986710946,1.1511960132890522,2.1511960132890517,-29.848803986710948,-31.848803986710948,-24.848803986710948,4.151196013289051,-3.8488039867109483,-0.8488039867109478,21.151196013289045,1.1511960132890522,35.15119601328905,45.15119601328905,27.151196013289052,9.151196013289052,-20.848803986710948,-38.848803986710955,-64.84880398671095,-66.84880398671095,-21.848803986710948,34.15119601328905,50.15119601328905,34.15119601328905,56.15119601328905,107.15119601328905,39.151196013289045,26.151196013289052,38.151196013289045,-10.848803986710946,-25.848803986710948,-43.84880398671095,-54.84880398671095,-68.84880398671095,-45.84880398671095,-43.84880398671095,-49.84880398671095,-40.848803986710955,-10.848803986710946,24.151196013289052,33.15119601328905,17.151196013289052,-7.848803986710948,-12.848803986710946,2.1511960132890517,11.151196013289054,17.151196013289052,17.151196013289052,15.151196013289054,9.151196013289052,-11.848803986710946,-25.848803986710948,-60.84880398671095,-69.84880398671095,-44.84880398671095,-17.848803986710948,-20.848803986710948,-4.848803986710949,51.15119601328905,75.15119601328905,90.15119601328905,25.151196013289052,-18.848803986710948,-30.848803986710948,-31.848803986710948,-3.8488039867109483,29.151196013289052,65.15119601328905,53.15119601328905,19.151196013289045,-33.84880398671095,-52.84880398671095,-70.84880398671095,-33.84880398671095,-40.848803986710955,-48.84880398671095,-9.848803986710948,38.151196013289045,68.15119601328905,42.151196013289045,15.151196013289054,-16.848803986710948,-54.84880398671095,-37.848803986710955,0.1511960132890522,-9.848803986710948,13.151196013289054,83.15119601328905,72.15119601328905,30.151196013289052,-39.848803986710955,-62.84880398671095,-75.84880398671095,-91.84880398671095,-107.84880398671095,-44.84880398671095,-28.848803986710948,28.151196013289052,88.15119601328905,121.15119601328905,125.15119601328905,147.15119601328902,109.15119601328905,30.151196013289052,-11.848803986710946,-55.84880398671095,-53.84880398671095,-89.84880398671095,-99.84880398671095,-65.84880398671095,-47.84880398671095,-36.848803986710955,-6.848803986710948,-6.848803986710948,45.15119601328905,33.15119601328905,-51.84880398671095,-7.848803986710948,75.15119601328905,136.15119601328905,112.15119601328905,5.151196013289051,-41.848803986710955,-36.848803986710955,-1.848803986710948,18.151196013289045,4.151196013289051,-13.848803986710946,-28.848803986710948,-39.848803986710955,-36.848803986710955,-52.84880398671095,-32.84880398671095,-19.848803986710948,-13.848803986710946,-19.848803986710948,-36.848803986710955,-11.848803986710946,65.15119601328905,108.15119601328905,60.15119601328905,15.151196013289054,-20.848803986710948,-66.84880398671095,-57.84880398671095,24.151196013289052,30.151196013289052,-20.848803986710948,-60.84880398671095,-41.848803986710955,9.151196013289052,77.15119601328905,110.15119601328905,20.151196013289045,-75.84880398671095,-91.84880398671095,-31.848803986710948,17.151196013289052,81.15119601328905,93.15119601328905,95.15119601328905,86.15119601328905,18.151196013289045,-46.84880398671095,-34.84880398671095,-77.84880398671095,-78.84880398671095,2.1511960132890517,-0.8488039867109478,5.151196013289051,41.151196013289045,-0.8488039867109478,-61.84880398671095,-89.84880398671095,-48.84880398671095,-19.848803986710948,-26.848803986710948,16.151196013289052,57.15119601328905,46.15119601328905,42.151196013289045,-6.848803986710948,-62.84880398671095,-66.84880398671095,-19.848803986710948,53.15119601328905,41.151196013289045,-51.84880398671095,-12.848803986710946,111.15119601328905,168.15119601328902,145.15119601328902,16.151196013289052,-79.84880398671095,-82.84880398671095,-87.84880398671095,-39.848803986710955,3.1511960132890517,41.151196013289045,86.15119601328905,44.15119601328905,-28.848803986710948,-50.84880398671095,-28.848803986710948,42.151196013289045,67.15119601328905,11.151196013289054,1.1511960132890522,-3.8488039867109483,-14.848803986710946,0.1511960132890522,6.151196013289052,-35.848803986710955,-58.84880398671095,-60.84880398671095,-45.84880398671095,-10.848803986710946,4.151196013289051,8.151196013289052,25.151196013289052,48.15119601328905,22.151196013289045,33.15119601328905,50.15119601328905,29.151196013289052,-1.848803986710948,-45.84880398671095,-58.84880398671095,-63.84880398671095,-25.848803986710948,-1.848803986710948,7.151196013289052,-10.848803986710946,-39.848803986710955,-28.848803986710948,-17.848803986710948,-6.848803986710948,-11.848803986710946,36.151196013289045,76.15119601328905,85.15119601328905,123.15119601328905,37.151196013289045,-42.848803986710955,-19.848803986710948,-26.848803986710948,-33.84880398671095,-28.848803986710948,-25.848803986710948,-20.848803986710948,-10.848803986710946,-10.848803986710946,-30.848803986710948,-43.84880398671095,-43.84880398671095,-24.848803986710948,-0.8488039867109478,22.151196013289045,22.151196013289045,41.151196013289045,21.151196013289045,14.151196013289054,28.151196013289052,12.151196013289054,-1.848803986710948,-10.848803986710946,-14.848803986710946,-19.848803986710948,-1.848803986710948,27.151196013289052,-7.848803986710948,-44.84880398671095,-42.848803986710955,-26.848803986710948,-13.848803986710946,17.151196013289052,18.151196013289045,13.151196013289054,3.1511960132890517,8.151196013289052,22.151196013289045,32.15119601328905,25.151196013289052,3.1511960132890517,-15.848803986710946,-23.848803986710948,-34.84880398671095,-18.848803986710948,5.151196013289051,21.151196013289045,40.151196013289045,10.151196013289052,-18.848803986710948,-21.848803986710948,-26.848803986710948,-7.848803986710948,3.1511960132890517,5.151196013289051,20.151196013289045,14.151196013289054,8.151196013289052,11.151196013289054,14.151196013289054,6.151196013289052,5.151196013289051,0.1511960132890522,-2.8488039867109483,-3.8488039867109483,-10.848803986710946,-22.848803986710948,-35.848803986710955,-55.84880398671095,-68.84880398671095,-44.84880398671095,-7.848803986710948,52.15119601328905,68.15119601328905,35.15119601328905,39.151196013289045,50.15119601328905,31.151196013289052,-4.848803986710949,0.1511960132890522,1.1511960132890522,-1.848803986710948,-5.848803986710948,-7.848803986710948,-8.848803986710948,-10.848803986710946,-14.848803986710946,-13.848803986710946,-23.848803986710948,-28.848803986710948,-26.848803986710948,-22.848803986710948,-15.848803986710946,-8.848803986710948,-8.848803986710948,1.1511960132890522,16.151196013289052,30.151196013289052,26.151196013289052,15.151196013289054,3.1511960132890517,9.151196013289052,21.151196013289045,33.15119601328905,28.151196013289052,3.1511960132890517,-14.848803986710946,-18.848803986710948,2.1511960132890517,13.151196013289054,-7.848803986710948,-19.848803986710948,-25.848803986710948,-27.848803986710948,-17.848803986710948,-0.8488039867109478,13.151196013289054,16.151196013289052,12.151196013289054,11.151196013289054,8.151196013289052,9.151196013289052,23.151196013289052,21.151196013289045,1.1511960132890522,-11.848803986710946,-24.848803986710948,-30.848803986710948,-14.848803986710946,-10.848803986710946,-7.848803986710948,0.1511960132890522,15.151196013289054,3.1511960132890517,-5.848803986710948,3.1511960132890517,12.151196013289054,19.151196013289045,17.151196013289052,18.151196013289045,14.151196013289054,13.151196013289054,5.151196013289051,5.151196013289051,1.1511960132890522,-8.848803986710948,-6.848803986710948,-13.848803986710946,-30.848803986710948,-29.848803986710948,-24.848803986710948,-14.848803986710946,-12.848803986710946,3.1511960132890517,21.151196013289045,39.151196013289045,32.15119601328905,23.151196013289052,16.151196013289052,20.151196013289045,21.151196013289045,14.151196013289054,6.151196013289052,0.1511960132890522,-1.848803986710948,-10.848803986710946,-19.848803986710948,-22.848803986710948,-12.848803986710946,-16.848803986710948,-22.848803986710948,-22.848803986710948,-14.848803986710946,5.151196013289051,13.151196013289054,21.151196013289045,28.151196013289052,20.151196013289045,19.151196013289045,22.151196013289045,23.151196013289052,32.15119601328905,22.151196013289045,2.1511960132890517,-10.848803986710946,-18.848803986710948,-17.848803986710948,-29.848803986710948,-27.848803986710948,-24.848803986710948,-19.848803986710948,-22.848803986710948,-19.848803986710948,-11.848803986710946,-8.848803986710948,12.151196013289054,22.151196013289045,46.15119601328905,50.15119601328905,74.15119601328905,61.15119601328905,23.151196013289052,-8.848803986710948,-18.848803986710948,-19.848803986710948,-26.848803986710948,-29.848803986710948,-29.848803986710948,-29.848803986710948,-31.848803986710948,-26.848803986710948,-23.848803986710948,-14.848803986710946,-10.848803986710946,-6.848803986710948,9.151196013289052,17.151196013289052,21.151196013289045,26.151196013289052,33.15119601328905,29.151196013289052,12.151196013289054,6.151196013289052,-1.848803986710948,-1.848803986710948,-8.848803986710948,-15.848803986710946,-15.848803986710946,-19.848803986710948,-20.848803986710948,-22.848803986710948,-19.848803986710948,-13.848803986710946,-5.848803986710948,8.151196013289052,20.151196013289045,22.151196013289045,21.151196013289045,28.151196013289052,34.15119601328905,32.15119601328905,27.151196013289052,13.151196013289054,0.1511960132890522,-3.8488039867109483,-7.848803986710948,-9.848803986710948,-14.848803986710946,-21.848803986710948,-14.848803986710946,-12.848803986710946,-12.848803986710946,-5.848803986710948,-3.8488039867109483,7.151196013289052,16.151196013289052,18.151196013289045,24.151196013289052,27.151196013289052,24.151196013289052,23.151196013289052,18.151196013289045,13.151196013289054,3.1511960132890517,-3.8488039867109483,-10.848803986710946,-20.848803986710948,-23.848803986710948,-20.848803986710948,-12.848803986710946,-10.848803986710946,-11.848803986710946,-14.848803986710946,-6.848803986710948,9.151196013289052,16.151196013289052,20.151196013289045,26.151196013289052,29.151196013289052,22.151196013289045,17.151196013289052,7.151196013289052,1.1511960132890522,-3.8488039867109483,-9.848803986710948,-23.848803986710948,-27.848803986710948,-22.848803986710948,-22.848803986710948,-17.848803986710948,-5.848803986710948,-10.848803986710946,-18.848803986710948,-2.8488039867109483,-5.848803986710948,0.1511960132890522,11.151196013289054,25.151196013289052,17.151196013289052,14.151196013289054,25.151196013289052,27.151196013289052,25.151196013289052,1.1511960132890522,-15.848803986710946,-20.848803986710948,-23.848803986710948,-18.848803986710948,-21.848803986710948,-25.848803986710948,-25.848803986710948,-22.848803986710948,-17.848803986710948,-17.848803986710948,-11.848803986710946,5.151196013289051,15.151196013289054,30.151196013289052,36.151196013289045,37.151196013289045,42.151196013289045,34.15119601328905,20.151196013289045,1.1511960132890522,-6.848803986710948,-23.848803986710948,-27.848803986710948,-28.848803986710948,-27.848803986710948,-25.848803986710948,-23.848803986710948,-19.848803986710948,-12.848803986710946,-4.848803986710949,-1.848803986710948,11.151196013289054,12.151196013289054,18.151196013289045,19.151196013289045,14.151196013289054,11.151196013289054,7.151196013289052,10.151196013289052,15.151196013289054,17.151196013289052,5.151196013289051,-4.848803986710949,-12.848803986710946,-19.848803986710948,-27.848803986710948,-26.848803986710948,-23.848803986710948,-15.848803986710946,-7.848803986710948,-0.8488039867109478,9.151196013289052,13.151196013289054,18.151196013289045,20.151196013289045,18.151196013289045,17.151196013289052,12.151196013289054,3.1511960132890517,-2.8488039867109483,-6.848803986710948,-15.848803986710946,-19.848803986710948,-18.848803986710948,-18.848803986710948,-20.848803986710948,-19.848803986710948,-17.848803986710948,-11.848803986710946,-5.848803986710948,1.1511960132890522,9.151196013289052,14.151196013289054,20.151196013289045,24.151196013289052,24.151196013289052,21.151196013289045,14.151196013289054,9.151196013289052,5.151196013289051,-0.8488039867109478,-7.848803986710948,-11.848803986710946,-16.848803986710948,-19.848803986710948,-19.848803986710948,-19.848803986710948,-15.848803986710946,-9.848803986710948,-4.848803986710949,1.1511960132890522,8.151196013289052,11.151196013289054,15.151196013289054,16.151196013289052,19.151196013289045,13.151196013289054,15.151196013289054,10.151196013289052,-1.848803986710948,-2.8488039867109483,-6.848803986710948,-14.848803986710946,-15.848803986710946,-19.848803986710948,-20.848803986710948,-16.848803986710948,-17.848803986710948,-7.848803986710948,-1.848803986710948,0.1511960132890522,11.151196013289054,17.151196013289052,20.151196013289045,22.151196013289045,20.151196013289045,17.151196013289052,19.151196013289045,8.151196013289052,0.1511960132890522,-3.8488039867109483,-5.848803986710948,-11.848803986710946,-17.848803986710948,-17.848803986710948,-19.848803986710948,-18.848803986710948,-14.848803986710946,-9.848803986710948,-4.848803986710949,0.1511960132890522,7.151196013289052,13.151196013289054,17.151196013289052,18.151196013289045,13.151196013289054,14.151196013289054,10.151196013289052,6.151196013289052,2.1511960132890517,-1.848803986710948,-9.848803986710948,-13.848803986710946,-13.848803986710946,-18.848803986710948,-17.848803986710948,-14.848803986710946,-10.848803986710946,-7.848803986710948,-4.848803986710949,0.1511960132890522,11.151196013289054,16.151196013289052,20.151196013289045,22.151196013289045,20.151196013289045,17.151196013289052,12.151196013289054,5.151196013289051,3.1511960132890517,-4.848803986710949,-10.848803986710946,-16.848803986710948,-18.848803986710948,-20.848803986710948,-21.848803986710948,-20.848803986710948,-18.848803986710948,-11.848803986710946,-4.848803986710949,3.1511960132890517,10.151196013289052,18.151196013289045,20.151196013289045,19.151196013289045,20.151196013289045,16.151196013289052,12.151196013289054,6.151196013289052,1.1511960132890522,-2.8488039867109483,-6.848803986710948,-11.848803986710946,-12.848803986710946,-17.848803986710948,-18.848803986710948,-15.848803986710946,-11.848803986710946,-4.848803986710949,0.1511960132890522,5.151196013289051,10.151196013289052,14.151196013289054,19.151196013289045,20.151196013289045,18.151196013289045,14.151196013289054,9.151196013289052,3.1511960132890517,0.1511960132890522,-3.8488039867109483,-9.848803986710948,-11.848803986710946,-14.848803986710946,-19.848803986710948,-17.848803986710948,-15.848803986710946,-14.848803986710946,-8.848803986710948,-3.8488039867109483,1.1511960132890522,9.151196013289052,17.151196013289052,23.151196013289052,21.151196013289045,19.151196013289045,16.151196013289052,11.151196013289054,6.151196013289052,0.1511960132890522,-2.8488039867109483,-6.848803986710948,-11.848803986710946,-14.848803986710946,-19.848803986710948,-18.848803986710948,-14.848803986710946,-15.848803986710946,-8.848803986710948,-3.8488039867109483,2.1511960132890517,11.151196013289054,15.151196013289054,22.151196013289045,21.151196013289045,19.151196013289045,18.151196013289045,14.151196013289054,7.151196013289052,1.1511960132890522,-3.8488039867109483,-7.848803986710948,-15.848803986710946,-13.848803986710946,-14.848803986710946,-18.848803986710948,-16.848803986710948,-12.848803986710946,-8.848803986710948,-4.848803986710949,3.1511960132890517,10.151196013289052,14.151196013289054,21.151196013289045,20.151196013289045,19.151196013289045,18.151196013289045,11.151196013289054,3.1511960132890517,1.1511960132890522,-0.8488039867109478,-8.848803986710948,-11.848803986710946,-17.848803986710948,-18.848803986710948,-19.848803986710948,-14.848803986710946,-14.848803986710946,-7.848803986710948,-3.8488039867109483,0.1511960132890522,11.151196013289054,16.151196013289052,19.151196013289045,21.151196013289045,22.151196013289045,18.151196013289045,12.151196013289054,9.151196013289052,0.1511960132890522,-2.8488039867109483,-7.848803986710948,-10.848803986710946,-10.848803986710946,-12.848803986710946,-14.848803986710946,-13.848803986710946,-10.848803986710946,-7.848803986710948,-2.8488039867109483,2.1511960132890517,10.151196013289052,13.151196013289054,14.151196013289054,17.151196013289052,12.151196013289054,9.151196013289052,6.151196013289052,2.1511960132890517,-3.8488039867109483,-4.848803986710949,-6.848803986710948,-12.848803986710946,-12.848803986710946,-17.848803986710948,-19.848803986710948,-17.848803986710948,-14.848803986710946,-7.848803986710948,-2.8488039867109483,2.1511960132890517,16.151196013289052,17.151196013289052,19.151196013289045,21.151196013289045,20.151196013289045,15.151196013289054,14.151196013289054,8.151196013289052,1.1511960132890522,-2.8488039867109483,-8.848803986710948,-11.848803986710946,-12.848803986710946,-17.848803986710948,-18.848803986710948,-17.848803986710948,-17.848803986710948,-7.848803986710948,-2.8488039867109483,-1.848803986710948,7.151196013289052,12.151196013289054,14.151196013289054,19.151196013289045,19.151196013289045,16.151196013289052,15.151196013289054,9.151196013289052,4.151196013289051,-1.848803986710948,-9.848803986710948,-11.848803986710946,-17.848803986710948,-19.848803986710948,-19.848803986710948,-18.848803986710948,-15.848803986710946,-7.848803986710948,-3.8488039867109483,3.1511960132890517,12.151196013289054,17.151196013289052,20.151196013289045,19.151196013289045,17.151196013289052,15.151196013289054,10.151196013289052,5.151196013289051,0.1511960132890522,-2.8488039867109483,-10.848803986710946,-13.848803986710946,-13.848803986710946,-19.848803986710948,-18.848803986710948,-18.848803986710948,-10.848803986710946,-5.848803986710948,1.1511960132890522,1.1511960132890522,11.151196013289054,18.151196013289045,21.151196013289045,25.151196013289052,20.151196013289045,20.151196013289045,12.151196013289054,8.151196013289052,1.1511960132890522,-3.8488039867109483,-7.848803986710948,-15.848803986710946,-15.848803986710946,-19.848803986710948,-21.848803986710948,-18.848803986710948,-14.848803986710946,-7.848803986710948,-3.8488039867109483,3.1511960132890517,12.151196013289054,18.151196013289045,20.151196013289045,21.151196013289045,17.151196013289052,16.151196013289052,11.151196013289054,7.151196013289052,0.1511960132890522,-1.848803986710948,-11.848803986710946,-15.848803986710946,-15.848803986710946,-20.848803986710948,-23.848803986710948,-17.848803986710948,-11.848803986710946,-7.848803986710948,0.1511960132890522,3.1511960132890517,12.151196013289054,19.151196013289045,22.151196013289045,25.151196013289052,22.151196013289045,19.151196013289045,14.151196013289054,7.151196013289052,3.1511960132890517,-1.848803986710948,-10.848803986710946,-14.848803986710946,-17.848803986710948,-18.848803986710948,-21.848803986710948,-18.848803986710948,-15.848803986710946,-6.848803986710948,-2.8488039867109483,2.1511960132890517,12.151196013289054,19.151196013289045,20.151196013289045,24.151196013289052,21.151196013289045,20.151196013289045,13.151196013289054,8.151196013289052,2.1511960132890517,-1.848803986710948,-6.848803986710948,-10.848803986710946,-14.848803986710946,-15.848803986710946,-17.848803986710948,-13.848803986710946,-13.848803986710946,-4.848803986710949,-2.8488039867109483,0.1511960132890522,14.151196013289054,18.151196013289045,20.151196013289045,22.151196013289045,20.151196013289045,16.151196013289052
1.0,1.0,1.0,1.0,1.0,1.0,1.0,1.0,1.0,1.0,1.0,1.0,1.0,1.0,1.0,1.0,1.0,1.0,1.0,1.0,1.0,1.0,1.0,1.0,1.0,1.0,1.0,1.0,1.0,1.0,1.0,1.0,1.0,1.0,1.0,1.0,1.0,1.0,1.0,1.0,1.0,1.0,1.0,1.0,1.0,1.0,1.0,1.0,1.0,1.0,1.0,1.0,1.0,1.0,1.0,1.0,1.0,1.0,1.0,1.0,1.0,1.0,1.0,1.0,1.0,1.0,1.0,1.0,1.0,1.0,1.0,1.0,1.0,1.0,1.0,1.0,1.0,1.0,1.0,1.0,1.0,1.0,1.0,1.0,1.0,1.0,1.0,1.0,1.0,1.0,1.0,1.0,1.0,1.0,1.0,1.0,1.0,1.0,1.0,1.0,1.0,1.0,1.0,1.0,1.0,1.0,1.0,1.0,1.0,1.0,1.0,1.0,1.0,1.0,1.0,1.0,1.0,1.0,1.0,1.0,1.0,1.0,1.0,1.0,1.0,1.0,1.0,1.0,1.0,1.0,1.0,1.0,1.0,1.0,1.0,1.0,1.0,1.0,1.0,1.0,1.0,1.0,1.0,1.0,1.0,1.0,1.0,1.0,1.0,1.0,1.0,1.0,1.0,1.0,1.0,1.0,1.0,1.0,1.0,1.0,1.0,1.0,1.0,1.0,1.0,1.0,1.0,1.0,1.0,1.0,1.0,1.0,1.0,1.0,1.0,1.0,1.0,1.0,1.0,1.0,1.0,1.0,1.0,1.0,1.0,1.0,1.0,1.0,1.0,1.0,1.0,1.0,1.0,1.0,1.0,1.0,1.0,1.0,1.0,1.0,1.0,1.0,1.0,1.0,1.0,1.0,1.0,1.0,1.0,1.0,1.0,1.0,1.0,1.0,1.0,1.0,1.0,1.0,1.0,1.0,1.0,1.0,1.0,1.0,1.0,1.0,1.0,1.0,1.0,1.0,1.0,1.0,1.0,1.0,1.0,1.0,1.0,1.0,1.0,1.0,1.0,1.0,1.0,1.0,1.0,1.0,1.0,1.0,1.0,1.0,1.0,1.0,1.0,1.0,1.0,1.0,1.0,1.0,1.0,1.0,1.0,1.0,1.0,1.0,1.0,1.0,1.0,1.0,1.0,1.0,1.0,1.0,1.0,1.0,1.0,1.0,1.0,1.0,1.0,1.0,1.0,1.0,1.0,1.0,1.0,1.0,1.0,1.0,1.0,1.0,1.0,1.0,1.0,1.0,1.0,1.0,1.0,1.0,1.0,1.0,1.0,1.0,1.0,1.0,1.0,1.0,1.0,1.0,1.0,1.0,1.0,1.0,1.0,1.0,1.0,1.0,1.0,1.0,1.0,1.0,1.0,1.0,1.0,1.0,1.0,1.0,1.0,1.0,1.0,1.0,1.0,1.0,1.0,1.0,1.0,1.0,1.0,1.0,1.0,1.0,1.0,1.0,1.0,1.0,1.0,1.0,1.0,1.0,1.0,1.0,1.0,1.0,1.0,1.0,1.0,1.0,1.0,1.0,1.0,1.0,1.0,1.0,1.0,1.0,1.0,1.0,1.0,1.0,1.0,1.0,1.0,1.0,1.0,1.0,1.0,1.0,1.0,1.0,1.0,1.0,1.0,1.0,1.0,1.0,1.0,1.0,1.0,1.0,1.0,1.0,1.0,1.0,1.0,1.0,1.0,1.0,1.0,1.0,1.0,1.0,1.0,1.0,1.0,1.0,1.0,1.0,1.0,1.0,1.0,1.0,1.0,1.0,1.0,1.0,1.0,1.0,1.0,1.0,1.0,1.0,1.0,1.0,1.0,1.0,1.0,1.0,1.0,1.0,1.0,1.0,1.0,1.0,1.0,1.0,1.0,1.0,1.0,1.0,1.0,1.0,1.0,1.0,1.0,1.0,1.0,1.0,1.0,1.0,1.0,1.0,1.0,1.0,1.0,1.0,1.0,1.0,1.0,1.0,1.0,1.0,1.0,1.0,1.0,1.0,1.0,1.0,1.0,1.0,1.0,1.0,0.0,0.0,0.0,0.0,0.0,0.0,0.0,0.0,0.0,0.0,0.0,0.0,0.0,0.0,0.0,0.0,0.0,0.0,0.0,0.0,0.0,0.0,0.0,0.0,0.0,0.0,0.0,0.0,0.0,0.0,0.0,0.0,0.0,0.0,0.0,0.0,0.0,0.0,0.0,0.0,0.0,0.0,0.0,0.0,0.0,0.0,0.0,0.0,0.0,0.0,0.0,0.0,0.0,0.0,0.0,0.0,0.0,0.0,0.0,0.0,0.0,0.0,0.0,0.0,0.0,0.0,0.0,0.0,0.0,0.0,0.0,0.0,0.0,0.0,0.0,0.0,0.0,0.0,0.0,0.0,0.0,0.0,0.0,0.0,0.0,0.0,0.0,0.0,0.0,0.0,0.0,0.0,0.0,0.0,0.0,0.0,0.0,0.0,0.0,0.0,0.0,0.0,0.0,0.0,0.0,0.0,0.0,0.0,0.0,0.0,0.0,0.0,0.0,0.0,0.0,0.0,0.0,0.0,0.0,0.0,0.0,0.0,0.0,0.0,0.0,0.0,0.0,0.0,0.0,0.0,0.0,0.0,0.0,0.0,0.0,0.0,0.0,0.0,0.0,0.0,0.0,0.0,0.0,0.0,0.0,0.0,0.0,0.0,0.0,0.0,0.0,0.0,0.0,0.0,0.0,0.0,0.0,0.0,0.0,0.0,0.0,0.0,0.0,0.0,0.0,0.0,0.0,0.0,0.0,0.0,0.0,0.0,0.0,0.0,0.0,0.0,0.0,0.0,0.0,0.0,0.0,0.0,0.0,0.0,0.0,0.0,0.0,0.0,0.0,0.0,0.0,0.0,0.0,0.0,0.0,0.0,0.0,0.0,0.0,0.0,0.0,0.0,0.0,0.0,0.0,0.0,0.0,0.0,0.0,0.0,0.0,0.0,0.0,0.0,0.0,0.0,0.0,0.0,0.0,0.0,0.0,0.0,0.0,0.0,0.0,0.0,0.0,0.0,0.0,0.0,0.0,0.0,0.0,0.0,0.0,0.0,0.0,0.0,0.0,0.0,0.0,0.0,0.0,0.0,0.0,0.0,0.0,0.0,0.0,0.0,0.0,0.0,0.0,0.0,0.0,0.0,0.0,0.0,0.0,0.0,0.0,0.0,0.0,0.0,0.0,0.0,0.0,0.0,0.0,0.0,0.0,0.0,0.0,0.0,0.0,0.0,0.0,0.0,0.0,0.0,0.0,0.0,0.0,0.0,0.0,0.0,0.0,0.0,0.0,0.0,0.0,0.0,0.0,0.0,0.0,0.0,0.0,0.0,0.0,0.0,0.0,0.0,0.0,0.0,0.0,0.0,0.0,0.0,0.0,0.0,0.0,0.0,0.0,0.0,0.0,0.0,0.0,0.0,0.0,0.0,0.0,0.0,0.0,0.0,0.0,0.0,0.0,0.0,0.0,0.0,0.0,0.0,0.0,0.0,0.0,0.0,0.0,0.0,0.0,0.0,0.0,0.0,0.0,0.0,0.0,0.0,0.0,0.0,0.0,0.0,0.0,0.0,0.0,0.0,0.0,0.0,0.0,0.0,0.0,0.0,0.0,0.0,0.0,0.0,0.0,0.0,0.0,0.0,0.0,0.0,0.0,0.0,0.0,0.0,0.0,0.0,0.0,0.0,0.0,0.0,0.0,0.0,0.0,0.0,0.0,0.0,0.0,0.0,0.0,0.0,0.0,0.0,0.0,0.0,0.0,0.0,0.0,0.0,0.0,0.0,0.0,0.0,0.0,0.0,0.0,0.0,0.0,0.0,0.0,0.0,0.0,0.0,0.0,0.0,0.0,0.0,0.0,0.0,0.0,0.0,0.0,0.0,0.0,0.0,0.0,0.0,0.0,0.0,0.0,0.0,0.0,0.0,0.0,0.0,0.0,0.0,0.0,0.0,0.0,0.0,0.0,0.0,0.0,0.0,0.0,0.0,0.0,0.0,0.0,0.0,0.0,0.0,0.0,0.0,0.0,0.0,0.0,0.0,0.0,0.0,0.0,0.0,0.0,0.0,0.0,0.0,0.0,0.0,0.0,0.0,0.0,0.0,0.0,0.0,0.0,0.0,0.0,0.0,0.0,0.0,0.0,0.0,0.0,0.0,0.0,0.0,0.0,0.0,0.0,0.0,0.0,0.0,0.0,0.0,0.0,0.0,0.0,0.0,0.0,0.0,0.0,0.0,0.0,0.0,0.0,0.0,0.0,0.0,0.0,0.0,0.0,0.0,0.0,0.0,0.0,0.0,0.0,0.0,0.0,0.0,0.0,0.0,0.0,0.0,0.0,0.0,0.0,0.0,0.0,0.0,0.0,0.0,0.0,0.0,0.0,0.0,0.0,0.0,0.0,0.0,0.0,0.0,0.0,0.0,0.0,0.0,0.0,0.0,0.0,0.0,0.0,0.0,0.0,0.0
