0,1,2,3,4,5,6,7,8,9,10,11,12,13,14,15,16,17,18,19,20,21,22,23,24,25,26,27,28,29,30,31,32,33,34,35,36,37,38,39,40,41,42,43,44,45,46,47,48,49,50,51,52,53,54,55,56,57,58,59,60,61,62,63,64,65,66,67,68,69,70,71,72,73,74,75,76,77,78,79,80,81,82,83,84,85,86,87,88,89,90,91,92,93,94,95,96,97,98,99,100,101,102,103,104,105,106,107,108,109,110,111,112,113,114,115,116,117,118,119,120,121,122,123,124,125,126,127,128,129,130,131,132,133,134,135,136,137,138,139,140,141,142,143,144,145,146,147,148,149,150,151,152,153,154,155,156,157,158,159,160,161,162,163,164,165,166,167,168,169,170,171,172,173,174,175,176,177,178,179,180,181,182,183,184,185,186,187,188,189,190,191,192,193,194,195,196,197,198,199,200,201,202,203,204,205,206,207,208,209,210,211,212,213,214,215,216,217,218,219,220,221,222,223,224,225,226,227,228,229,230,231,232,233,234,235,236,237,238,239,240,241,242,243,244,245,246,247,248,249,250,251,252,253,254,255,256,257,258,259,260,261,262,263,264,265,266,267,268,269,270,271,272,273,274,275,276,277,278,279,280,281,282,283,284,285,286,287,288,289,290,291,292,293,294,295,296,297,298,299,300,301,302,303,304,305,306,307,308,309,310,311,312,313,314,315,316,317,318,319,320,321,322,323,324,325,326,327,328,329,330,331,332,333,334,335,336,337,338,339,340,341,342,343,344,345,346,347,348,349,350,351,352,353,354,355,356,357,358,359,360,361,362,363,364,365,366,367,368,369,370,371,372,373,374,375,376,377,378,379,380,381,382,383,384,385,386,387,388,389,390,391,392,393,394,395,396,397,398,399,400,401,402,403,404,405,406,407,408,409,410,411,412,413,414,415,416,417,418,419,420,421,422,423,424,425,426,427,428,429,430,431,432,433,434,435,436,437,438,439,440,441,442,443,444,445,446,447,448,449,450,451,452,453,454,455,456,457,458,459,460,461,462,463,464,465,466,467,468,469,470,471,472,473,474,475,476,477,478,479,480,481,482,483,484,485,486,487,488,489,490,491,492,493,494,495,496,497,498,499,500,501,502,503,504,505,506,507,508,509,510,511,512,513,514,515,516,517,518,519,520,521,522,523,524,525,526,527,528,529,530,531,532,533,534,535,536,537,538,539,540,541,542,543,544,545,546,547,548,549,550,551,552,553,554,555,556,557,558,559,560,561,562,563,564,565,566,567,568,569,570,571,572,573,574,575,576,577,578,579,580,581,582,583,584,585,586,587,588,589,590,591,592,593,594,595,596,597,598,599,600,601,602,603,604,605,606,607,608,609,610,611,612,613,614,615,616,617,618,619,620,621,622,623,624,625,626,627,628,629,630,631,632,633,634,635,636,637,638,639,640,641,642,643,644,645,646,647,648,649,650,651,652,653,654,655,656,657,658,659,660,661,662,663,664,665,666,667,668,669,670,671,672,673,674,675,676,677,678,679,680,681,682,683,684,685,686,687,688,689,690,691,692,693,694,695,696,697,698,699,700,701,702,703,704,705,706,707,708,709,710,711,712,713,714,715,716,717,718,719,720,721,722,723,724,725,726,727,728,729,730,731,732,733,734,735,736,737,738,739,740,741,742,743,744,745,746,747,748,749,750,751,752,753,754,755,756,757,758,759,760,761,762,763,764,765,766,767,768,769,770,771,772,773,774,775,776,777,778,779,780,781,782,783,784,785,786,787,788,789,790,791,792,793,794,795,796,797,798,799,800,801,802,803,804,805,806,807,808,809,810,811,812,813,814,815,816,817,818,819,820,821,822,823,824,825,826,827,828,829,830,831,832,833,834,835,836,837,838,839,840,841,842,843,844,845,846,847,848,849,850,851,852,853,854,855,856,857,858,859,860,861,862,863,864,865,866,867,868,869,870,871,872,873,874,875,876,877,878,879,880,881,882,883,884,885,886,887,888,889,890,891,892,893,894,895,896,897,898,899,900,901,902,903,904,905,906,907,908,909,910,911,912,913,914,915,916,917,918,919,920,921,922,923,924,925,926,927,928,929,930,931,932,933,934,935,936,937,938,939,940,941,942,943,944,945,946,947,948,949,950,951,952,953,954,955,956,957,958,959,960,961,962,963,964,965,966,967,968,969,970,971,972,973,974,975,976,977,978,979,980,981,982,983,984,985,986,987,988,989,990,991,992,993,994,995,996,997,998,999,1000,1001,1002,1003,1004,1005,1006,1007,1008,1009,1010,1011,1012,1013,1014,1015,1016,1017,1018,1019,1020,1021,1022,1023
8.008671096345495,9.008671096345497,7.008671096345495,7.008671096345495,4.008671096345495,2.008671096345495,-0.9913289036545052,-4.991328903654505,-7.991328903654505,-10.991328903654503,-10.991328903654503,-9.991328903654503,-11.991328903654507,-4.991328903654505,-4.991328903654505,-2.991328903654505,0.008671096345494789,3.008671096345495,5.008671096345495,9.008671096345497,8.008671096345495,12.008671096345493,10.008671096345497,8.008671096345495,6.008671096345495,3.008671096345495,-2.991328903654505,-6.991328903654505,-6.991328903654505,-8.991328903654507,-10.991328903654503,-7.991328903654505,-8.991328903654507,-5.991328903654505,-1.9913289036545048,1.0086710963454948,3.008671096345495,4.008671096345495,5.008671096345495,7.008671096345495,8.008671096345495,11.008671096345497,9.008671096345497,8.008671096345495,5.008671096345495,0.008671096345494789,-1.9913289036545048,-5.991328903654505,-4.991328903654505,-9.991328903654503,-9.991328903654503,-8.991328903654507,-9.991328903654503,-8.991328903654507,-2.991328903654505,-1.9913289036545048,3.008671096345495,1.0086710963454948,5.008671096345495,8.008671096345495,11.008671096345497,12.008671096345493,13.008671096345493,8.008671096345495,5.008671096345495,2.008671096345495,-1.9913289036545048,-2.991328903654505,-8.991328903654507,-6.991328903654505,-7.991328903654505,-7.991328903654505,-10.991328903654503,-7.991328903654505,-2.991328903654505,-1.9913289036545048,3.008671096345495,5.008671096345495,8.008671096345495,8.008671096345495,8.008671096345495,10.008671096345497,9.008671096345497,9.008671096345497,3.008671096345495,0.008671096345494789,1.0086710963454948,-2.991328903654505,-7.991328903654505,-8.991328903654507,-10.991328903654503,-11.991328903654507,-10.991328903654503,-3.991328903654505,-2.991328903654505,-1.9913289036545048,2.008671096345495,4.008671096345495,6.008671096345495,10.008671096345497,10.008671096345497,10.008671096345497,8.008671096345495,10.008671096345497,5.008671096345495,1.0086710963454948,-1.9913289036545048,-4.991328903654505,-8.991328903654507,-9.991328903654503,-12.991328903654507,-7.991328903654505,-9.991328903654503,-7.991328903654505,-6.991328903654505,1.0086710963454948,2.008671096345495,4.008671096345495,8.008671096345495,10.008671096345497,11.008671096345497,12.008671096345493,9.008671096345497,7.008671096345495,7.008671096345495,2.008671096345495,-1.9913289036545048,-4.991328903654505,-7.991328903654505,-10.991328903654503,-11.991328903654507,-9.991328903654503,-10.991328903654503,-4.991328903654505,-4.991328903654505,2.008671096345495,4.008671096345495,4.008671096345495,8.008671096345495,8.008671096345495,9.008671096345497,10.008671096345497,10.008671096345497,8.008671096345495,7.008671096345495,3.008671096345495,-0.9913289036545052,-4.991328903654505,-6.991328903654505,-11.991328903654507,-11.991328903654507,-11.991328903654507,-7.991328903654505,-7.991328903654505,-4.991328903654505,1.0086710963454948,3.008671096345495,3.008671096345495,8.008671096345495,10.008671096345497,10.008671096345497,9.008671096345497,8.008671096345495,11.008671096345497,6.008671096345495,3.008671096345495,-1.9913289036545048,-4.991328903654505,-7.991328903654505,-10.991328903654503,-12.991328903654507,-8.991328903654507,-12.991328903654507,-6.991328903654505,-2.991328903654505,-0.9913289036545052,3.008671096345495,4.008671096345495,7.008671096345495,9.008671096345497,9.008671096345497,10.008671096345497,9.008671096345497,9.008671096345497,6.008671096345495,3.008671096345495,0.008671096345494789,-3.991328903654505,-7.991328903654505,-8.991328903654507,-11.991328903654507,-11.991328903654507,-7.991328903654505,-6.991328903654505,-3.991328903654505,-0.9913289036545052,0.008671096345494789,2.008671096345495,6.008671096345495,6.008671096345495,11.008671096345497,8.008671096345495,9.008671096345497,8.008671096345495,5.008671096345495,1.0086710963454948,2.008671096345495,-3.991328903654505,-7.991328903654505,-11.991328903654507,-11.991328903654507,-10.991328903654503,-10.991328903654503,-3.991328903654505,-2.991328903654505,-0.9913289036545052,2.008671096345495,4.008671096345495,6.008671096345495,9.008671096345497,8.008671096345495,10.008671096345497,10.008671096345497,8.008671096345495,6.008671096345495,4.008671096345495,-1.9913289036545048,-6.991328903654505,-6.991328903654505,-9.991328903654503,-10.991328903654503,-9.991328903654503,-9.991328903654503,-5.991328903654505,-3.991328903654505,-2.991328903654505,2.008671096345495,5.008671096345495,7.008671096345495,5.008671096345495,7.008671096345495,12.008671096345493,10.008671096345497,8.008671096345495,5.008671096345495,1.0086710963454948,-1.9913289036545048,-7.991328903654505,-3.991328903654505,-7.991328903654505,-10.991328903654503,-9.991328903654503,-10.991328903654503,-5.991328903654505,-2.991328903654505,0.008671096345494789,5.008671096345495,5.008671096345495,7.008671096345495,7.008671096345495,8.008671096345495,9.008671096345497,8.008671096345495,6.008671096345495,5.008671096345495,3.008671096345495,-1.9913289036545048,-4.991328903654505,-5.991328903654505,-6.991328903654505,-10.991328903654503,-7.991328903654505,-7.991328903654505,-5.991328903654505,-1.9913289036545048,-3.991328903654505,3.008671096345495,5.008671096345495,7.008671096345495,7.008671096345495,12.008671096345493,11.008671096345497,10.008671096345497,7.008671096345495,4.008671096345495,2.008671096345495,0.008671096345494789,-3.991328903654505,-9.991328903654503,-11.991328903654507,-9.991328903654503,-10.991328903654503,-10.991328903654503,-7.991328903654505,-2.991328903654505,-2.991328903654505,1.0086710963454948,3.008671096345495,6.008671096345495,7.008671096345495,11.008671096345497,11.008671096345497,14.008671096345493,8.008671096345495,8.008671096345495,4.008671096345495,-0.9913289036545052,-3.991328903654505,-6.991328903654505,-9.991328903654503,-9.991328903654503,-10.991328903654503,-10.991328903654503,-7.991328903654505,-2.991328903654505,-0.9913289036545052,3.008671096345495,3.008671096345495,7.008671096345495,11.008671096345497,9.008671096345497,12.008671096345493,10.008671096345497,10.008671096345497,5.008671096345495,2.008671096345495,-0.9913289036545052,-4.991328903654505,-4.991328903654505,-11.991328903654507,-10.991328903654503,-9.991328903654503,-10.991328903654503,-4.991328903654505,-2.991328903654505,1.0086710963454948,4.008671096345495,3.008671096345495,6.008671096345495,9.008671096345497,11.008671096345497,12.008671096345493,11.008671096345497,8.008671096345495,5.008671096345495,1.0086710963454948,-4.991328903654505,-4.991328903654505,-6.991328903654505,-8.991328903654507,-10.991328903654503,-10.991328903654503,-9.991328903654503,-4.991328903654505,-0.9913289036545052,1.0086710963454948,5.008671096345495,2.008671096345495,5.008671096345495,10.008671096345497,12.008671096345493,11.008671096345497,9.008671096345497,5.008671096345495,5.008671096345495,2.008671096345495,-0.9913289036545052,-2.991328903654505,-7.991328903654505,-11.991328903654507,-11.991328903654507,-13.991328903654507,-14.991328903654507,-7.991328903654505,-2.991328903654505,2.008671096345495,3.008671096345495,5.008671096345495,8.008671096345495,19.00867109634549,14.008671096345493,8.008671096345495,6.008671096345495,12.008671096345493,12.008671096345493,6.008671096345495,-2.991328903654505,-1.9913289036545048,-10.991328903654503,-18.991328903654505,-23.991328903654505,-20.991328903654505,-7.991328903654505,0.008671096345494789,-2.991328903654505,-5.991328903654505,-3.991328903654505,6.008671096345495,28.008671096345488,37.008671096345495,16.008671096345495,-0.9913289036545052,-2.991328903654505,-8.991328903654507,-13.991328903654507,-25.991328903654505,-32.991328903654505,-21.991328903654505,-10.991328903654503,1.0086710963454948,7.008671096345495,19.00867109634549,13.008671096345493,16.008671096345495,30.008671096345488,28.008671096345488,23.008671096345488,-15.991328903654507,-29.991328903654505,2.008671096345495,19.00867109634549,3.008671096345495,-5.991328903654505,-23.991328903654505,-43.991328903654505,-37.991328903654505,2.008671096345495,35.00867109634549,40.008671096345495,12.008671096345493,-28.991328903654505,-34.991328903654505,-7.991328903654505,18.008671096345495,21.00867109634549,3.008671096345495,8.008671096345495,8.008671096345495,6.008671096345495,-4.991328903654505,-1.9913289036545048,16.008671096345495,23.008671096345488,20.00867109634549,7.008671096345495,-15.991328903654507,12.008671096345493,0.008671096345494789,-31.991328903654505,-58.9913289036545,-36.991328903654505,-8.991328903654507,-0.9913289036545052,1.0086710963454948,-0.9913289036545052,17.008671096345495,30.008671096345488,41.008671096345495,32.00867109634549,17.008671096345495,1.0086710963454948,-13.991328903654507,-11.991328903654507,-28.991328903654505,-45.9913289036545,1.0086710963454948,38.008671096345495,5.008671096345495,-23.991328903654505,-30.991328903654505,-43.991328903654505,-44.991328903654505,-26.991328903654505,-0.9913289036545052,23.008671096345488,46.0086710963455,71.0086710963455,36.008671096345495,18.008671096345495,14.008671096345493,26.008671096345488,68.0086710963455,44.008671096345495,-13.991328903654507,-55.9913289036545,-74.9913289036545,-22.991328903654505,42.008671096345495,45.008671096345495,16.008671096345495,-28.991328903654505,-38.991328903654505,11.008671096345497,56.0086710963455,75.0086710963455,12.008671096345493,-4.991328903654505,-7.991328903654505,-44.991328903654505,-64.9913289036545,-79.9913289036545,-117.9913289036545,-63.9913289036545,10.008671096345497,47.0086710963455,47.0086710963455,28.008671096345488,59.0086710963455,60.0086710963455,59.0086710963455,24.008671096345488,-18.991328903654505,-30.991328903654505,-0.9913289036545052,-29.991328903654505,-43.991328903654505,-23.991328903654505,-47.9913289036545,-70.9913289036545,-52.9913289036545,1.0086710963454948,14.008671096345493,32.00867109634549,42.008671096345495,10.008671096345497,25.008671096345488,14.008671096345493,-22.991328903654505,7.008671096345495,3.008671096345495,10.008671096345497,48.0086710963455,72.0086710963455,52.0086710963455,-1.9913289036545048,-80.9913289036545,-109.9913289036545,-75.9913289036545,-36.991328903654505,23.008671096345488,32.00867109634549,1.0086710963454948,-11.991328903654507,-57.9913289036545,-59.9913289036545,-10.991328903654503,19.00867109634549,98.0086710963455,131.0086710963455,134.0086710963455,92.0086710963455,41.008671096345495,-2.991328903654505,-66.9913289036545,-115.9913289036545,-87.9913289036545,-39.991328903654505,-23.991328903654505,37.008671096345495,40.008671096345495,7.008671096345495,6.008671096345495,13.008671096345493,13.008671096345493,-8.991328903654507,-10.991328903654503,-19.991328903654505,-31.991328903654505,-61.9913289036545,-94.9913289036545,-69.9913289036545,14.008671096345493,55.0086710963455,80.0086710963455,59.0086710963455,29.008671096345488,4.008671096345495,11.008671096345497,29.008671096345488,75.0086710963455,52.0086710963455,6.008671096345495,-34.991328903654505,-65.9913289036545,-61.9913289036545,-48.9913289036545,-27.991328903654505,-10.991328903654503,30.008671096345488,101.0086710963455,76.0086710963455,-2.991328903654505,-3.991328903654505,-32.991328903654505,-115.9913289036545,-110.9913289036545,-8.991328903654507,51.0086710963455,81.0086710963455,76.0086710963455,83.0086710963455,34.00867109634549,-27.991328903654505,-28.991328903654505,-27.991328903654505,-70.9913289036545,-100.9913289036545,-81.9913289036545,20.00867109634549,36.008671096345495,66.0086710963455,75.0086710963455,6.008671096345495,-68.9913289036545,-42.991328903654505,0.008671096345494789,61.0086710963455,81.0086710963455,104.0086710963455,92.0086710963455,52.0086710963455,-31.991328903654505,-131.9913289036545,-110.9913289036545,-50.9913289036545,42.008671096345495,31.008671096345488,-15.991328903654507,-37.991328903654505,-84.9913289036545,-94.9913289036545,-79.9913289036545,-3.991328903654505,117.0086710963455,143.0086710963455,93.0086710963455,82.0086710963455,67.0086710963455,50.0086710963455,-36.991328903654505,-80.9913289036545,-74.9913289036545,-93.9913289036545,-76.9913289036545,-28.991328903654505,28.008671096345488,68.0086710963455,49.0086710963455,32.00867109634549,4.008671096345495,-43.991328903654505,-93.9913289036545,-60.9913289036545,-17.991328903654505,34.00867109634549,82.0086710963455,99.0086710963455,70.0086710963455,18.008671096345495,-19.991328903654505,-88.9913289036545,-81.9913289036545,-38.991328903654505,-23.991328903654505,20.00867109634549,38.008671096345495,4.008671096345495,4.008671096345495,32.00867109634549,57.0086710963455,78.0086710963455,9.008671096345497,-60.9913289036545,-75.9913289036545,-57.9913289036545,-38.991328903654505,-14.991328903654507,8.008671096345495,32.00867109634549,-20.991328903654505,-43.991328903654505,28.008671096345488,80.0086710963455,81.0086710963455,93.0086710963455,84.0086710963455,22.00867109634549,-74.9913289036545,-89.9913289036545,-82.9913289036545,-105.9913289036545,-62.9913289036545,-55.9913289036545,8.008671096345495,131.0086710963455,185.0086710963455,43.008671096345495,-46.9913289036545,-78.9913289036545,-83.9913289036545,-36.991328903654505,3.008671096345495,-1.9913289036545048,75.0086710963455,137.0086710963455,110.0086710963455,54.0086710963455,-22.991328903654505,-66.9913289036545,-59.9913289036545,-49.9913289036545,-66.9913289036545,-91.9913289036545,-81.9913289036545,-48.9913289036545,-12.991328903654507,15.008671096345493,37.008671096345495,102.0086710963455,104.0086710963455,64.0086710963455,55.0086710963455,23.008671096345488,-0.9913289036545052,-61.9913289036545,-76.9913289036545,-42.991328903654505,-18.991328903654505,21.00867109634549,19.00867109634549,-25.991328903654505,-53.9913289036545,-28.991328903654505,-27.991328903654505,-10.991328903654503,68.0086710963455,99.0086710963455,71.0086710963455,58.0086710963455,22.00867109634549,-23.991328903654505,-30.991328903654505,-46.9913289036545,-75.9913289036545,-67.9913289036545,-11.991328903654507,50.0086710963455,30.008671096345488,19.00867109634549,20.00867109634549,11.008671096345497,0.008671096345494789,-19.991328903654505,-52.9913289036545,-80.9913289036545,-56.9913289036545,-8.991328903654507,105.0086710963455,132.0086710963455,60.0086710963455,-7.991328903654505,-58.9913289036545,-71.9913289036545,-70.9913289036545,-8.991328903654507,44.008671096345495,87.0086710963455,70.0086710963455,29.008671096345488,-7.991328903654505,-19.991328903654505,-23.991328903654505,-33.991328903654505,-33.991328903654505,-26.991328903654505,-57.9913289036545,-76.9913289036545,-15.991328903654507,83.0086710963455,61.0086710963455,53.0086710963455,34.00867109634549,41.008671096345495,19.00867109634549,-42.991328903654505,-48.9913289036545,-21.991328903654505,13.008671096345493,8.008671096345495,-11.991328903654507,-40.991328903654505,-43.991328903654505,-19.991328903654505,-20.991328903654505,27.008671096345488,51.0086710963455,-4.991328903654505,-48.9913289036545,-34.991328903654505,-50.9913289036545,8.008671096345495,92.0086710963455,92.0086710963455,95.0086710963455,108.0086710963455,17.008671096345495,-0.9913289036545052,-11.991328903654507,-53.9913289036545,-97.9913289036545,-119.9913289036545,-91.9913289036545,-46.9913289036545,10.008671096345497,54.0086710963455,132.0086710963455,76.0086710963455,-18.991328903654505,-54.9913289036545,-46.9913289036545,-16.991328903654505,9.008671096345497,23.008671096345488,48.0086710963455,49.0086710963455,24.008671096345488,-14.991328903654507,-30.991328903654505,-30.991328903654505,-31.991328903654505,-42.991328903654505,-36.991328903654505,-41.991328903654505,17.008671096345495,60.0086710963455,53.0086710963455,37.008671096345495,24.008671096345488,9.008671096345497,-34.991328903654505,-42.991328903654505,-7.991328903654505,26.008671096345488,75.0086710963455,33.00867109634549,-17.991328903654505,-36.991328903654505,-47.9913289036545,-56.9913289036545,-14.991328903654507,9.008671096345497,-3.991328903654505,0.008671096345494789,12.008671096345493,14.008671096345493,14.008671096345493,27.008671096345488,-10.991328903654503,-28.991328903654505,-24.991328903654505,4.008671096345495,31.008671096345488,51.0086710963455,56.0086710963455,-1.9913289036545048,-12.991328903654507,-9.991328903654503,-12.991328903654507,-12.991328903654507,-24.991328903654505,-28.991328903654505,-12.991328903654507,0.008671096345494789,6.008671096345495,8.008671096345495,-6.991328903654505,0.008671096345494789,4.008671096345495,1.0086710963454948,1.0086710963454948,-0.9913289036545052,0.008671096345494789,-6.991328903654505,6.008671096345495,16.008671096345495,17.008671096345495,31.008671096345488,9.008671096345497,-5.991328903654505,-14.991328903654507,-4.991328903654505,-5.991328903654505,-15.991328903654507,-19.991328903654505,-17.991328903654505,-11.991328903654507,-3.991328903654505,-2.991328903654505,1.0086710963454948,13.008671096345493,19.00867109634549,3.008671096345495,4.008671096345495,16.008671096345495,5.008671096345495,3.008671096345495,-2.991328903654505,-18.991328903654505,-24.991328903654505,-26.991328903654505,-17.991328903654505,-20.991328903654505,1.0086710963454948,23.008671096345488,15.008671096345493,28.008671096345488,28.008671096345488,17.008671096345495,5.008671096345495,12.008671096345493,3.008671096345495,-12.991328903654507,-4.991328903654505,12.008671096345493,22.00867109634549,35.00867109634549,43.008671096345495,23.008671096345488,-15.991328903654507,-37.991328903654505,-47.9913289036545,-38.991328903654505,-19.991328903654505,-19.991328903654505,-16.991328903654505,-26.991328903654505,-18.991328903654505,3.008671096345495,25.008671096345488,27.008671096345488,40.008671096345495,37.008671096345495,-6.991328903654505,-20.991328903654505,-4.991328903654505,-15.991328903654507,-43.991328903654505,-16.991328903654505,-7.991328903654505,12.008671096345493,32.00867109634549,56.0086710963455,32.00867109634549,1.0086710963454948,-11.991328903654507,-23.991328903654505,-15.991328903654507,-17.991328903654505,-12.991328903654507,-5.991328903654505,2.008671096345495,11.008671096345497,14.008671096345493,14.008671096345493,9.008671096345497,5.008671096345495,-3.991328903654505,-14.991328903654507,-19.991328903654505,-17.991328903654505,-21.991328903654505,-19.991328903654505,-7.991328903654505,0.008671096345494789,1.0086710963454948,3.008671096345495,9.008671096345497,21.00867109634549,37.008671096345495,37.008671096345495,22.00867109634549,14.008671096345493,6.008671096345495,7.008671096345495,11.008671096345497,8.008671096345495,4.008671096345495,-2.991328903654505,-28.991328903654505,-42.991328903654505,-43.991328903654505,-40.991328903654505,-26.991328903654505,-9.991328903654503,13.008671096345493,20.00867109634549,18.008671096345495,0.008671096345494789,20.00867109634549,61.0086710963455,61.0086710963455,35.00867109634549,22.00867109634549,11.008671096345497,2.008671096345495,-7.991328903654505,-8.991328903654507,-16.991328903654505,-20.991328903654505,-20.991328903654505,-21.991328903654505,-23.991328903654505,-22.991328903654505,-20.991328903654505,-26.991328903654505,-16.991328903654505,-17.991328903654505,-10.991328903654503,2.008671096345495,8.008671096345495,13.008671096345493,27.008671096345488,34.00867109634549,38.008671096345495
0.0,0.0,0.0,0.0,0.0,0.0,0.0,0.0,0.0,0.0,0.0,0.0,0.0,0.0,0.0,0.0,0.0,0.0,0.0,0.0,0.0,0.0,0.0,0.0,0.0,0.0,0.0,0.0,0.0,0.0,0.0,0.0,0.0,0.0,0.0,0.0,0.0,0.0,0.0,0.0,0.0,0.0,0.0,0.0,0.0,0.0,0.0,0.0,0.0,0.0,0.0,0.0,0.0,0.0,0.0,0.0,0.0,0.0,0.0,0.0,0.0,0.0,0.0,0.0,0.0,0.0,0.0,0.0,0.0,0.0,0.0,0.0,0.0,0.0,0.0,0.0,0.0,0.0,0.0,0.0,0.0,0.0,0.0,0.0,0.0,0.0,0.0,0.0,0.0,0.0,0.0,0.0,0.0,0.0,0.0,0.0,0.0,0.0,0.0,0.0,0.0,0.0,0.0,0.0,0.0,0.0,0.0,0.0,0.0,0.0,0.0,0.0,0.0,0.0,0.0,0.0,0.0,0.0,0.0,0.0,0.0,0.0,0.0,0.0,0.0,0.0,0.0,0.0,0.0,0.0,0.0,0.0,0.0,0.0,0.0,0.0,0.0,0.0,0.0,0.0,0.0,0.0,0.0,0.0,0.0,0.0,0.0,0.0,0.0,0.0,0.0,0.0,0.0,0.0,0.0,0.0,0.0,0.0,0.0,0.0,0.0,0.0,0.0,0.0,0.0,0.0,0.0,0.0,0.0,0.0,0.0,0.0,0.0,0.0,0.0,0.0,0.0,0.0,0.0,0.0,0.0,0.0,0.0,0.0,0.0,0.0,0.0,0.0,0.0,0.0,0.0,0.0,0.0,0.0,0.0,0.0,0.0,0.0,0.0,0.0,0.0,0.0,0.0,0.0,0.0,0.0,0.0,0.0,0.0,0.0,0.0,0.0,0.0,0.0,0.0,0.0,0.0,0.0,0.0,0.0,0.0,0.0,0.0,0.0,0.0,0.0,0.0,0.0,0.0,0.0,0.0,0.0,0.0,0.0,0.0,0.0,0.0,0.0,0.0,0.0,0.0,0.0,0.0,0.0,0.0,0.0,0.0,0.0,0.0,0.0,0.0,0.0,0.0,0.0,0.0,0.0,0.0,0.0,0.0,0.0,0.0,0.0,0.0,0.0,0.0,0.0,0.0,0.0,0.0,0.0,0.0,0.0,0.0,0.0,0.0,0.0,0.0,0.0,0.0,0.0,0.0,0.0,0.0,0.0,0.0,0.0,0.0,0.0,0.0,0.0,0.0,0.0,0.0,0.0,0.0,0.0,0.0,0.0,0.0,0.0,0.0,0.0,0.0,0.0,0.0,0.0,0.0,0.0,0.0,0.0,0.0,0.0,0.0,0.0,0.0,0.0,0.0,0.0,0.0,0.0,0.0,0.0,0.0,0.0,0.0,0.0,0.0,0.0,0.0,0.0,0.0,0.0,0.0,0.0,0.0,0.0,0.0,0.0,0.0,0.0,0.0,0.0,0.0,0.0,0.0,0.0,0.0,0.0,0.0,0.0,0.0,0.0,0.0,0.0,0.0,0.0,0.0,0.0,0.0,0.0,0.0,0.0,0.0,0.0,0.0,0.0,0.0,0.0,0.0,0.0,0.0,0.0,0.0,0.0,0.0,0.0,1.0,1.0,1.0,1.0,1.0,1.0,1.0,1.0,1.0,1.0,1.0,1.0,1.0,1.0,1.0,1.0,1.0,1.0,1.0,1.0,1.0,1.0,1.0,1.0,1.0,1.0,1.0,1.0,1.0,1.0,1.0,1.0,1.0,1.0,1.0,1.0,1.0,1.0,1.0,1.0,1.0,1.0,1.0,1.0,1.0,1.0,1.0,1.0,1.0,1.0,1.0,1.0,1.0,1.0,1.0,1.0,1.0,1.0,1.0,1.0,1.0,1.0,1.0,1.0,1.0,1.0,1.0,1.0,1.0,1.0,1.0,1.0,1.0,1.0,1.0,1.0,1.0,1.0,1.0,1.0,1.0,1.0,1.0,1.0,1.0,1.0,1.0,1.0,1.0,1.0,1.0,1.0,1.0,1.0,1.0,1.0,1.0,1.0,1.0,1.0,1.0,1.0,1.0,1.0,1.0,1.0,1.0,1.0,1.0,1.0,1.0,1.0,1.0,1.0,1.0,1.0,1.0,1.0,1.0,1.0,1.0,1.0,1.0,1.0,1.0,1.0,1.0,1.0,1.0,1.0,1.0,1.0,1.0,1.0,1.0,1.0,1.0,1.0,1.0,1.0,1.0,1.0,1.0,1.0,1.0,1.0,1.0,1.0,1.0,1.0,1.0,1.0,1.0,1.0,1.0,1.0,1.0,1.0,1.0,1.0,1.0,1.0,1.0,1.0,1.0,1.0,1.0,1.0,1.0,1.0,1.0,1.0,1.0,1.0,1.0,1.0,1.0,1.0,1.0,1.0,1.0,1.0,1.0,1.0,1.0,1.0,1.0,1.0,1.0,1.0,1.0,1.0,1.0,1.0,1.0,1.0,1.0,1.0,1.0,1.0,1.0,1.0,1.0,1.0,1.0,1.0,1.0,1.0,1.0,1.0,1.0,1.0,1.0,1.0,1.0,1.0,1.0,1.0,1.0,1.0,1.0,1.0,1.0,1.0,1.0,1.0,1.0,1.0,1.0,1.0,1.0,1.0,1.0,1.0,1.0,1.0,1.0,1.0,1.0,1.0,1.0,1.0,1.0,1.0,1.0,1.0,1.0,1.0,1.0,1.0,1.0,1.0,1.0,1.0,1.0,1.0,1.0,1.0,1.0,1.0,1.0,1.0,1.0,1.0,1.0,1.0,1.0,1.0,1.0,1.0,1.0,1.0,1.0,1.0,1.0,1.0,1.0,1.0,1.0,1.0,1.0,1.0,1.0,1.0,1.0,1.0,1.0,1.0,1.0,1.0,1.0,1.0,1.0,1.0,1.0,1.0,1.0,1.0,1.0,1.0,1.0,1.0,1.0,1.0,1.0,1.0,1.0,1.0,1.0,1.0,1.0,1.0,1.0,1.0,1.0,1.0,1.0,1.0,1.0,1.0,1.0,1.0,1.0,1.0,1.0,1.0,1.0,1.0,1.0,1.0,1.0,1.0,1.0,1.0,1.0,1.0,1.0,1.0,1.0,1.0,1.0,1.0,1.0,1.0,1.0,1.0,1.0,1.0,1.0,1.0,1.0,1.0,1.0,1.0,1.0,1.0,1.0,1.0,1.0,1.0,1.0,1.0,1.0,1.0,1.0,1.0,1.0,1.0,1.0,1.0,1.0,1.0,1.0,1.0,1.0,1.0,1.0,1.0,1.0,1.0,1.0,1.0,1.0,1.0,1.0,1.0,1.0,1.0,1.0,1.0,1.0,1.0,1.0,1.0,1.0,1.0,1.0,1.0,1.0,1.0,1.0,1.0,1.0,1.0,1.0,1.0,1.0,1.0,1.0,1.0,1.0,1.0,1.0,1.0,1.0,1.0,1.0,1.0,1.0,1.0,1.0,1.0,1.0,1.0,1.0,1.0,1.0,1.0,1.0,1.0,1.0,1.0,1.0,1.0,1.0,1.0,1.0,1.0,1.0,1.0,1.0,1.0,1.0,1.0,1.0,1.0,1.0,1.0,1.0,1.0,1.0,1.0,1.0,1.0,1.0,1.0,1.0,1.0,1.0,1.0,1.0,1.0,1.0,1.0,1.0,1.0,1.0,1.0,1.0,1.0,1.0,1.0,1.0,1.0,1.0,1.0,1.0,1.0,1.0,1.0,1.0,1.0,1.0,1.0,1.0,1.0,1.0,1.0,1.0,1.0,1.0,1.0,1.0,1.0,1.0,1.0,1.0,1.0,1.0,1.0,1.0,1.0,1.0,1.0,1.0,1.0,1.0,1.0,1.0,1.0,1.0,1.0,1.0,1.0,1.0,1.0,1.0,1.0,1.0,1.0,1.0,1.0,1.0,1.0,1.0,1.0,1.0,1.0,1.0,1.0,1.0,1.0,1.0,1.0,1.0,1.0,1.0,1.0,1.0,1.0,1.0,1.0,1.0,1.0,1.0,1.0,1.0,1.0,1.0,1.0,1.0,1.0,1.0,1.0,1.0,1.0,1.0,1.0,1.0,1.0,1.0,1.0,1.0,1.0,1.0,1.0,1.0,1.0,1.0,1.0,1.0,1.0,1.0,1.0,1.0,1.0,1.0,1.0,1.0,1.0,1.0,1.0,1.0,1.0,1.0,1.0,1.0,1.0,1.0,1.0,1.0,1.0,1.0,1.0,1.0,1.0,1.0,1.0,1.0,1.0,1.0,1.0,1.0,1.0,1.0,1.0,1.0,1.0,1.0,1.0,1.0,1.0,1.0,1.0,1.0,1.0,1.0,1.0,1.0,1.0,1.0,1.0,1.0,1.0,1.0,1.0,1.0,1.0,1.0,1.0,1.0,1.0,1.0,1.0,1.0,1.0,1.0,1.0,1.0,1.0,1.0,1.0,1.0,1.0,1.0,1.0,1.0,1.0
